Data from test_V78500241_3442.txt Node
Date: Fri Mar 25 16:05:38 CST 2022
User: usil
Spectrometer: V785-0024
Trigger mode: 0
Integration Time (sec): 4.000000E-1
Scans to average: 1
Nonlinearity correction enabled: false
Boxcar width: 0
Storing dark spectrum: false
XAxis mode: Wavelengths
Number of Pixels in Spectrum: 1024
>>>>>Begin Spectral Data<<<<<
801.071	28927
801.214	28942
801.356	28767
801.499	28607
801.641	28580
801.783	28535
801.926	28531
802.068	28603
802.211	28542
802.353	28500
802.496	28207
802.638	28230
802.78	28253
802.923	28207
803.065	28109
803.208	28238
803.35	28325
803.492	28504
803.635	28584
803.777	28394
803.919	28630
804.061	28809
804.204	28535
804.346	28375
804.488	28360
804.63	28455
804.773	28538
804.915	28561
805.057	28615
805.199	28607
805.341	28729
805.483	28618
805.626	28649
805.768	28535
805.91	28713
806.052	28710
806.194	28645
806.336	28782
806.478	28740
806.62	28759
806.762	28778
806.904	28957
807.046	29239
807.188	29102
807.33	29197
807.472	29330
807.614	29071
807.756	29083
807.898	28991
808.04	29033
808.182	28839
808.324	29006
808.465	28991
808.607	29220
808.749	29246
808.891	29459
809.033	29642
809.174	29551
809.316	29379
809.458	29334
809.6	29345
809.741	29596
809.883	29543
810.025	29551
810.166	29802
810.308	29657
810.45	29581
810.591	29554
810.733	29490
810.875	29318
811.016	29440
811.158	29383
811.299	29505
811.441	29421
811.582	29581
811.724	29516
811.865	29280
812.007	29387
812.148	29414
812.29	29391
812.431	29756
812.573	29821
812.714	29874
812.855	29920
812.997	29931
813.138	30186
813.279	30110
813.421	29927
813.562	29802
813.703	29783
813.845	29543
813.986	29436
814.127	29273
814.268	29136
814.41	29296
814.551	29151
814.692	29368
814.833	29136
814.974	29193
815.115	29151
815.256	29056
815.397	29010
815.539	29174
815.68	28862
815.821	28896
815.962	28835
816.103	28862
816.244	28949
816.385	28660
816.526	28828
816.666	28481
816.807	28561
816.948	28360
817.089	28607
817.23	28466
817.371	28500
817.512	28466
817.653	28390
817.793	28478
817.934	28318
818.075	28428
818.216	28550
818.356	28542
818.497	28466
818.638	28169
818.778	28382
818.919	28154
819.06	28181
819.2	28417
819.341	28573
819.481	28500
819.622	28596
819.762	28820
819.903	28725
820.043	28660
820.184	28493
820.324	28588
820.465	28656
820.605	28611
820.746	28569
820.886	28398
821.026	28546
821.167	28569
821.307	28725
821.447	28474
821.588	28497
821.728	28230
821.868	28017
822.008	27949
822.149	27941
822.289	27930
822.429	27637
822.569	27736
822.709	27633
822.849	27603
822.99	27492
823.13	27511
823.27	27336
823.41	27268
823.55	27116
823.69	27226
823.83	27230
823.97	27260
824.11	27081
824.25	27100
824.389	26994
824.529	27260
824.669	27032
824.809	27256
824.949	27252
825.089	27154
825.228	27157
825.368	27043
825.508	26967
825.648	26994
825.787	26906
825.927	27036
826.067	26952
826.206	26948
826.346	27096
826.485	27013
826.625	27013
826.765	27165
826.904	27043
827.044	26629
827.183	26762
827.323	26769
827.462	26739
827.601	26682
827.741	26693
827.88	26716
828.02	26537
828.159	26705
828.298	26758
828.437	26701
828.577	26617
828.716	26861
828.855	26667
828.994	26419
829.134	26400
829.273	26328
829.412	26396
829.551	26358
829.69	26374
829.829	26434
829.968	26427
830.107	26492
830.246	26358
830.385	26332
830.524	26126
830.663	26168
830.802	26096
830.941	25921
831.08	25913
831.219	26100
831.357	26183
831.496	26206
831.635	26008
831.774	25906
831.913	25902
832.051	25841
832.19	25715
832.329	25837
832.467	25597
832.606	25708
832.744	25601
832.883	25693
833.022	25594
833.16	25681
833.299	25727
833.437	25738
833.576	25765
833.714	25712
833.852	25731
833.991	25700
834.129	25894
834.267	25750
834.406	25723
834.544	25906
834.682	25719
834.821	25689
834.959	25761
835.097	25685
835.235	25818
835.373	25734
835.511	25742
835.65	25658
835.788	25441
835.926	25362
836.064	25358
836.202	25324
836.34	25575
836.478	25818
836.615	25704
836.753	25510
836.891	25578
837.029	25537
837.167	25438
837.305	25487
837.443	25407
837.58	25495
837.718	25419
837.856	25411
837.993	25365
838.131	25460
838.269	25274
838.406	25266
838.544	25122
838.681	25038
838.819	25050
838.956	24703
839.094	24814
839.231	24935
839.369	24992
839.506	25202
839.643	25225
839.781	24791
839.918	24779
840.055	24764
840.193	24757
840.33	24612
840.467	24795
840.604	24760
840.742	24901
840.879	24585
841.016	24654
841.153	24502
841.29	24852
841.427	24692
841.564	24681
841.701	24692
841.838	24608
841.975	24635
842.112	24650
842.249	24566
842.385	24654
842.522	24639
842.659	24593
842.796	24422
842.933	24502
843.069	24441
843.206	24490
843.343	24536
843.479	24578
843.616	24498
843.752	24350
843.889	24369
844.025	24426
844.162	24201
844.298	24190
844.435	24194
844.571	24254
844.708	24372
844.844	24456
844.98	24361
845.117	24410
845.253	24289
845.389	24228
845.525	24205
845.661	24038
845.798	24034
845.934	24057
846.07	24030
846.206	24125
846.342	24114
846.478	24068
846.614	23741
846.75	23714
846.886	23672
847.022	23851
847.158	23904
847.294	23866
847.429	23843
847.565	23668
847.701	23912
847.837	23349
847.972	23524
848.108	23478
848.244	23387
848.379	23337
848.515	23341
848.65	23307
848.786	23307
848.921	23387
849.057	23376
849.192	23402
849.328	23254
849.463	23372
849.598	23368
849.734	23277
849.869	23185
850.004	23006
850.14	23033
850.275	23140
850.41	23083
850.545	23079
850.68	23086
850.815	23098
850.95	23060
851.085	23235
851.22	23151
851.355	23067
851.49	23060
851.625	22911
851.76	23113
851.895	22953
852.03	22999
852.165	23193
852.299	23136
852.434	23151
852.569	23048
852.703	23113
852.838	23178
852.973	23204
853.107	23212
853.242	22972
853.376	22919
853.511	22889
853.645	22809
853.78	22911
853.914	22881
854.048	22854
854.183	22839
854.317	22892
854.451	23044
854.585	22972
854.72	22919
854.854	23094
854.988	22828
855.122	22843
855.256	22942
855.39	23003
855.524	22949
855.658	22934
855.792	22995
855.926	22923
856.06	22927
856.194	22923
856.327	22908
856.461	22809
856.595	22831
856.729	22835
856.862	23102
856.996	23044
857.13	22957
857.263	23025
857.397	22919
857.53	22847
857.664	22889
857.797	22999
857.931	23117
858.064	22908
858.197	22938
858.331	22915
858.464	22759
858.597	22801
858.731	22858
858.864	22881
858.997	22809
859.13	22850
859.263	22949
859.396	23075
859.529	22820
859.662	22755
859.795	22850
859.928	22896
860.061	23075
860.194	23086
860.327	22968
860.46	22885
860.592	22949
860.725	23109
860.858	23014
860.99	22869
861.123	22801
861.256	22812
861.388	22854
861.521	23531
861.653	22892
861.786	22660
861.918	22713
862.05	22763
862.183	22793
862.315	22694
862.447	22873
862.58	22725
862.712	22645
862.844	22508
862.976	22656
863.108	22653
863.24	22972
863.372	22550
863.504	22668
863.636	22664
863.768	22622
863.9	22634
864.032	22516
864.164	22500
864.296	22557
864.428	22691
864.559	22672
864.691	22725
864.823	22535
864.954	22504
865.086	22424
865.217	22402
865.349	22417
865.48	22512
865.612	22596
865.743	22653
865.875	22485
866.006	22333
866.137	22398
866.269	22428
866.4	22402
866.531	22440
866.662	22443
866.793	22344
866.924	22333
867.055	22447
867.186	22462
867.317	22516
867.448	22249
867.579	22322
867.71	22337
867.841	22253
867.972	22432
868.103	22348
868.233	22447
868.364	22432
868.495	22447
868.625	22596
868.756	22793
868.886	22603
869.017	22485
869.147	22710
869.278	22675
869.408	22618
869.539	22580
869.669	22748
869.799	22755
869.929	22740
870.06	22805
870.19	22942
870.32	22843
870.45	23094
870.58	23022
870.71	23022
870.84	23052
870.97	23010
871.1	23067
871.23	23250
871.36	23318
871.489	23048
871.619	23155
871.749	23200
871.879	23204
872.008	23410
872.138	23311
872.267	23197
872.397	23105
872.526	23178
872.656	23113
872.785	23098
872.915	23250
873.044	23307
873.173	23250
873.303	23379
873.432	23360
873.561	23269
873.69	23223
873.819	23273
873.948	23303
874.077	23307
874.206	23254
874.335	23299
874.464	23273
874.593	23638
874.722	23444
874.851	23478
874.979	23573
875.108	23501
875.237	23459
875.365	23288
875.494	23505
875.623	23493
875.751	23307
875.88	23623
876.008	23562
876.136	23661
876.265	23832
876.393	23923
876.521	23969
876.65	23958
876.778	23904
876.906	23760
877.034	23809
877.162	23901
877.29	23752
877.418	23748
877.546	23927
877.674	23779
877.802	23843
877.93	23828
878.058	23764
878.185	23581
878.313	23710
878.441	23707
878.568	23745
878.696	23687
878.824	23790
878.951	23813
879.079	23931
879.206	24045
879.333	23904
879.461	23828
879.588	23882
879.715	24003
879.842	24072
879.97	23889
880.097	23600
880.224	23436
880.351	23577
880.478	23619
880.605	23680
880.732	23486
880.859	23851
880.986	23566
881.112	23653
881.239	23520
881.366	23410
881.493	23318
881.619	23143
881.746	23246
881.872	23143
881.999	23033
882.125	23178
882.252	23315
882.378	23185
882.505	23155
882.631	23109
882.757	22839
882.883	23037
883.01	22812
883.136	22683
883.262	22626
883.388	22774
883.514	22831
883.64	22889
883.766	22778
883.892	22660
884.018	22736
884.143	22626
884.269	22854
884.395	22508
884.52	22470
884.646	22459
884.772	22447
884.897	22276
885.023	22375
885.148	22523
885.274	22538
885.399	22527
885.524	22489
885.65	22561
885.775	22523
885.9	22546
886.025	22554
886.15	22596
886.275	22436
886.4	22523
886.525	22512
886.65	22462
886.775	22341
886.9	22535
887.025	22618
887.149	22363
887.274	22306
887.399	22291
887.523	22223
887.648	22109
887.773	22139
887.897	22284
888.021	22322
888.146	22207
888.27	22367
888.395	22341
888.519	22265
888.643	22246
888.767	22200
888.891	22135
889.015	21998
889.139	22147
889.263	21956
889.387	22067
889.511	22291
889.635	22112
889.759	22067
889.883	22021
890.006	22036
890.13	22074
890.254	21827
890.377	21960
890.501	21762
890.624	21705
890.748	21907
890.871	21679
890.995	21576
891.118	21431
891.241	21538
891.364	21690
891.488	21583
891.611	21504
891.734	21587
891.857	21629
891.98	21580
892.103	21553
892.226	21557
892.349	21416
892.471	21397
892.594	21397
892.717	21374
892.839	21325
892.962	21405
893.085	21458
893.207	21473
893.33	21302
893.452	21420
893.575	21583
893.697	21382
893.819	21720
893.941	21625
894.064	21542
894.186	21291
894.308	21363
894.43	21435
894.552	21511
894.674	21462
894.796	21344
894.918	21389
895.04	21424
895.161	21439
895.283	21450
895.405	21317
895.526	21466
895.648	21431
895.769	21382
895.891	21382
896.012	21504
896.134	21435
896.255	21435
896.376	21393
896.498	21420
896.619	21447
896.74	21412
896.861	21447
896.982	21743
897.103	21739
897.224	21595
897.345	21618
897.466	21637
897.587	21728
897.708	21679
897.828	21587
897.949	21637
898.07	21488
898.19	21523
898.311	21705
898.431	21511
898.552	21614
898.672	21713
898.792	21690
898.913	21614
899.033	21492
899.153	21378
899.273	21294
899.393	21344
899.513	21435
899.633	21408
899.753	21397
899.873	21310
899.993	21233
900.113	21306
900.232	21203
900.352	21214
900.472	21176
900.591	21062
900.711	21051
900.83	20887
900.95	21233
901.069	21218
901.189	21043
901.308	20823
901.427	20667
901.546	20750
901.665	20754
901.784	20564
901.904	20518
902.023	20488
902.141	20278
902.26	20145
902.379	20233
902.498	20282
902.617	20202
902.735	20218
902.854	20103
902.973	20096
903.091	19868
903.21	19860
903.328	19753
903.446	19670
903.565	19677
903.683	19677
903.801	19620
903.919	19632
904.038	19540
904.156	19392
904.274	19278
904.392	19480
904.51	19365
904.627	19434
904.745	19339
904.863	19453
904.981	19103
905.098	19103
905.216	19107
905.334	18973
905.451	19053
905.569	18996
905.686	19019
905.803	19023
905.921	18741
906.038	18985
906.155	18871
906.272	18764
906.389	18601
906.506	18509
906.623	18620
906.74	18486
906.857	18467
906.974	18464
907.091	18604
907.208	18559
907.324	18559
907.441	18502
907.557	18304
907.674	18213
907.79	18216
907.907	18262
908.023	18277
908.139	18254
908.256	18216
908.372	18155
908.488	18129
908.604	18087
908.72	17882
908.836	17965
908.952	17904
909.068	18015
909.184	18083
909.3	17927
909.415	17992
909.531	17901
909.647	17710
909.762	17767
909.878	17699
909.993	17619
910.108	17737
910.224	17566
910.339	17646
910.454	17490
910.57	17410
910.685	17288
910.8	17604
910.915	17627
911.03	17417
911.145	17311
911.259	17296
911.374	17307
911.489	17143
911.604	17067
911.718	16957
911.833	16995
911.947	16790
912.062	16858
912.176	16938
912.291	17025
912.405	17006
912.519	17109
912.633	17086
912.748	17006
912.862	16972
912.976	16869
913.09	16649
913.204	16778
913.318	16790
913.431	16911
913.545	16778
913.659	16930
913.772	16694
913.886	16580
914	16653
914.113	16603
914.226	16637
914.34	16519
914.453	16500
914.566	16561
914.68	16470
914.793	16443
914.906	16211
915.019	16143
915.132	16093
915.245	16059
915.358	16116
915.47	16200
915.583	16112
915.696	16147
915.809	16284
915.921	16257
916.034	16017
916.146	16029
916.259	15968
916.371	16063
916.483	15945
916.595	15998
916.708	15915
916.82	16082
916.932	15922
917.044	15869
917.156	15857
917.268	15667
917.38	15823
917.491	15823
917.603	15778
917.715	15724
917.826	15838
917.938	15698
918.049	15530
918.161	15793
918.272	15899
918.384	15781
918.495	15720
918.606	15576
918.717	15454
918.828	15587
918.939	15534
919.05	15420
919.161	15443
919.272	15336
919.383	15287
919.494	15580
919.604	15641
919.715	15424
919.826	15291
919.936	15485
920.047	15519
920.157	15405
920.267	15614
920.378	15393
920.488	15393
920.598	15622
920.708	15755
920.818	15587
920.928	15530
921.038	15804
921.148	15724
921.258	15272
921.368	15310
921.477	15199
921.587	15093
921.697	15043
921.806	15104
921.916	14967
922.025	14758
922.134	14781
922.244	14689
922.353	14785
922.462	14568
922.571	14560
922.68	14423
922.789	14389
922.898	14419
923.007	14362
923.116	14507
923.224	14366
923.333	14377
923.442	14351
923.55	14252
923.659	14256
923.767	14343
923.876	14180
923.984	14202
924.092	14100
924.201	14149
924.309	14172
924.417	14115
924.525	14024
924.633	14024
924.741	15013
924.849	13852
924.956	13959
925.064	13852
925.172	13822
925.279	13723
925.387	13811
925.494	13814
925.602	13894
925.709	13822
925.816	13712
925.924	13681
926.031	13803
926.138	13753
926.245	13772
926.352	13575
926.459	13677
926.566	13818
926.673	13685
926.779	13384
926.886	13506
926.993	13377
927.099	13369
927.206	13285
927.312	13190
927.419	13415
927.525	13225
927.631	13293
927.737	13209
927.843	13126
927.95	13088
928.056	13133
928.162	13091
928.267	13168
928.373	13719
928.479	13107
928.585	12954
928.69	13057
928.796	13053
928.901	13050
929.007	12871
929.112	12970
929.218	12970
929.323	12821
929.428	12757
929.533	12916
929.638	12681
929.743	12795
929.848	12764
929.953	12730
930.058	12669
930.163	12490
930.267	12547
930.372	12585
930.477	12456
930.581	12654
930.685	12506
930.79	12365
930.894	12357
930.998	12384
931.103	12517
931.207	12129
931.311	11980
931.415	12003
931.519	11760
931.623	11805
