Data from test_V78500241_3305.txt Node
Date: Fri Mar 25 16:04:41 CST 2022
User: usil
Spectrometer: V785-0024
Trigger mode: 0
Integration Time (sec): 4.000000E-1
Scans to average: 1
Nonlinearity correction enabled: false
Boxcar width: 0
Storing dark spectrum: false
XAxis mode: Wavelengths
Number of Pixels in Spectrum: 1024
>>>>>Begin Spectral Data<<<<<
801.071	28641
801.214	28656
801.356	28497
801.499	28382
801.641	28200
801.783	28291
801.926	28306
802.068	28337
802.211	28192
802.353	28147
802.496	28040
802.638	28105
802.78	27892
802.923	27892
803.065	27960
803.208	27869
803.35	27880
803.492	28025
803.635	28215
803.777	27983
803.919	28379
804.061	28485
804.204	28322
804.346	28036
804.488	28086
804.63	28306
804.773	28135
804.915	28272
805.057	28440
805.199	28310
805.341	28280
805.483	28337
805.626	28276
805.768	28272
805.91	28341
806.052	28409
806.194	28230
806.336	28527
806.478	28546
806.62	28401
806.762	28519
806.904	28717
807.046	28927
807.188	28797
807.33	28759
807.472	28862
807.614	28691
807.756	28771
807.898	28721
808.04	28538
808.182	28626
808.324	28641
808.465	28778
808.607	28843
808.749	29033
808.891	29239
809.033	29170
809.174	29044
809.316	28968
809.458	29014
809.6	29189
809.741	29181
809.883	29143
810.025	29337
810.166	29467
810.308	29277
810.45	29292
810.591	29421
810.733	29136
810.875	28984
811.016	29006
811.158	29090
811.299	29181
811.441	29250
811.582	29223
811.724	29094
811.865	29033
812.007	29098
812.148	29147
812.29	29094
812.431	29379
812.573	29444
812.714	29463
812.855	29551
812.997	29657
813.138	29786
813.279	29710
813.421	29600
813.562	29448
813.703	29490
813.845	29227
813.986	29010
814.127	28869
814.268	28790
814.41	28881
814.551	28801
814.692	28820
814.833	28782
814.974	28687
815.115	28908
815.256	28660
815.397	28733
815.539	28729
815.68	28634
815.821	28641
815.962	28565
816.103	28584
816.244	28531
816.385	28440
816.526	28382
816.666	28131
816.807	28074
816.948	28188
817.089	28177
817.23	28124
817.371	27991
817.512	28154
817.653	28158
817.793	27994
817.934	28181
818.075	27998
818.216	28112
818.356	28013
818.497	28120
818.638	27899
818.778	27922
818.919	27998
819.06	27945
819.2	27895
819.341	28086
819.481	28082
819.622	28185
819.762	28500
819.903	28375
820.043	28363
820.184	28394
820.324	28143
820.465	28265
820.605	28268
820.746	28147
820.886	28204
821.026	28265
821.167	28207
821.307	28291
821.447	28112
821.588	28044
821.728	27880
821.868	27804
822.008	27523
822.149	27431
822.289	27477
822.429	27355
822.569	27294
822.709	27268
822.849	27112
822.99	26952
823.13	27013
823.27	26960
823.41	26929
823.55	26720
823.69	27009
823.83	26940
823.97	26914
824.11	26773
824.25	26724
824.389	26716
824.529	26925
824.669	26777
824.809	26830
824.949	26743
825.089	26883
825.228	26815
825.368	26484
825.508	26678
825.648	26571
825.787	26606
825.927	26670
826.067	26594
826.206	26594
826.346	26834
826.485	26716
826.625	26640
826.765	26670
826.904	26739
827.044	26446
827.183	26469
827.323	26362
827.462	26324
827.601	26393
827.741	26206
827.88	26305
828.02	26237
828.159	26389
828.298	26324
828.437	26374
828.577	26396
828.716	26427
828.855	26138
828.994	26031
829.134	26122
829.273	26062
829.412	26058
829.551	25925
829.69	26081
829.829	26107
829.968	26195
830.107	26111
830.246	25936
830.385	25940
830.524	25879
830.663	25868
830.802	25799
830.941	25605
831.08	25616
831.219	25670
831.357	25757
831.496	25883
831.635	25693
831.774	25628
831.913	25468
832.051	25438
832.19	25415
832.329	25388
832.467	25468
832.606	25282
832.744	25209
832.883	25335
833.022	25278
833.16	25316
833.299	25327
833.437	25198
833.576	25331
833.714	25407
833.852	25365
833.991	25449
834.129	25529
834.267	25460
834.406	25373
834.544	25502
834.682	25304
834.821	25324
834.959	25575
835.097	25422
835.235	25479
835.373	25403
835.511	25377
835.65	25263
835.788	25274
835.926	25012
836.064	25012
836.202	25137
836.34	25274
836.478	25270
836.615	25072
836.753	25110
836.891	25179
837.029	25194
837.167	25160
837.305	25069
837.443	25107
837.58	25084
837.718	25084
837.856	25110
837.993	24909
838.131	25038
838.269	24882
838.406	25000
838.544	24757
838.681	24639
838.819	24707
838.956	24563
839.094	24467
839.231	24715
839.369	24726
839.506	25027
839.643	24806
839.781	24429
839.918	24525
840.055	24532
840.193	24536
840.33	24369
840.467	24391
840.604	24384
840.742	24684
840.879	24201
841.016	24330
841.153	24266
841.29	24471
841.427	24376
841.564	24319
841.701	24395
841.838	24437
841.975	24311
842.112	24258
842.249	24205
842.385	24091
842.522	24350
842.659	24197
842.796	24064
842.933	24095
843.069	23984
843.206	24167
843.343	24323
843.479	24117
843.616	24026
843.752	23950
843.889	23935
844.025	24060
844.162	23999
844.298	24015
844.435	23870
844.571	23805
844.708	23973
844.844	24163
844.98	24007
845.117	24007
845.253	23893
845.389	23805
845.525	23847
845.661	23824
845.798	23672
845.934	23680
846.07	23589
846.206	23684
846.342	23684
846.478	23600
846.614	23467
846.75	23181
846.886	23383
847.022	23440
847.158	23486
847.294	23402
847.429	23402
847.565	23265
847.701	23611
847.837	23044
847.972	23174
848.108	23227
848.244	23128
848.379	23048
848.515	23010
848.65	22892
848.786	22915
848.921	23060
849.057	23094
849.192	22980
849.328	22949
849.463	22965
849.598	22911
849.734	22694
849.869	22885
850.004	22706
850.14	22725
850.275	22653
850.41	22831
850.545	22748
850.68	22687
850.815	22622
850.95	22710
851.085	22858
851.22	22767
851.355	22790
851.49	22691
851.625	22637
851.76	22740
851.895	22694
852.03	22615
852.165	22721
852.299	22790
852.434	22790
852.569	22854
852.703	22763
852.838	22965
852.973	23010
853.107	22927
853.242	22554
853.376	22554
853.511	22440
853.645	22451
853.78	22641
853.914	22451
854.048	22577
854.183	22519
854.317	22626
854.451	22736
854.585	22618
854.72	22535
854.854	22656
854.988	22546
855.122	22588
855.256	22421
855.39	22577
855.524	22634
855.658	22565
855.792	22470
855.926	22611
856.06	22580
856.194	22736
856.327	22474
856.461	22489
856.595	22470
856.729	22626
856.862	22645
856.996	22557
857.13	22538
857.263	22664
857.397	22664
857.53	22405
857.664	22531
857.797	22565
857.931	22599
858.064	22717
858.197	22710
858.331	22478
858.464	22375
858.597	22455
858.731	22447
858.864	22538
858.997	22531
859.13	22618
859.263	22497
859.396	22698
859.529	22535
859.662	22432
859.795	22519
859.928	22615
860.061	22721
860.194	22778
860.327	22637
860.46	22725
860.592	22557
860.725	22713
860.858	22622
860.99	22538
861.123	22367
861.256	22538
861.388	22455
861.521	23277
861.653	22325
861.786	22375
861.918	22394
862.05	22390
862.183	22481
862.315	22447
862.447	22394
862.58	22523
862.712	22360
862.844	22173
862.976	22280
863.108	22169
863.24	22710
863.372	22181
863.504	22124
863.636	22207
863.768	22158
863.9	22139
864.032	22166
864.164	22287
864.296	22310
864.428	22360
864.559	22314
864.691	22295
864.823	22200
864.954	22158
865.086	22234
865.217	22181
865.349	22086
865.48	22112
865.612	22249
865.743	22234
865.875	22105
866.006	22051
866.137	22169
866.269	22162
866.4	22131
866.531	21880
866.662	22006
866.793	21941
866.924	22154
867.055	22128
867.186	22044
867.317	22101
867.448	21991
867.579	22078
867.71	22013
867.841	22036
867.972	22070
868.103	21994
868.233	22029
868.364	22040
868.495	22185
868.625	22261
868.756	22386
868.886	22204
869.017	22253
869.147	22379
869.278	22459
869.408	22249
869.539	22303
869.669	22443
869.799	22367
869.929	22382
870.06	22447
870.19	22565
870.32	22523
870.45	22672
870.58	22645
870.71	22778
870.84	22873
870.97	22683
871.1	22816
871.23	22892
871.36	22778
871.489	22904
871.619	22805
871.749	22892
871.879	22976
872.008	22946
872.138	22965
872.267	22972
872.397	22843
872.526	22763
872.656	22755
872.785	22759
872.915	22831
873.044	22942
873.173	22904
873.303	22896
873.432	22976
873.561	23010
873.69	22911
873.819	22976
873.948	22965
874.077	22953
874.206	22991
874.335	22991
874.464	23052
874.593	23064
874.722	23006
874.851	23174
874.979	23197
875.108	23151
875.237	23162
875.365	22942
875.494	23132
875.623	23235
875.751	23018
875.88	23155
876.008	23242
876.136	23345
876.265	23596
876.393	23619
876.521	23516
876.65	23516
876.778	23570
876.906	23421
877.034	23391
877.162	23440
877.29	23322
877.418	23448
877.546	23486
877.674	23368
877.802	23383
877.93	23505
878.058	23410
878.185	23368
878.313	23372
878.441	23417
878.568	23269
878.696	23414
878.824	23535
878.951	23505
879.079	23680
879.206	23745
879.333	23608
879.461	23433
879.588	23600
879.715	23649
879.842	23687
879.97	23535
880.097	23356
880.224	23273
880.351	23410
880.478	23372
880.605	23246
880.732	23258
880.859	23512
880.986	23406
881.112	23337
881.239	23250
881.366	23018
881.493	22866
881.619	22831
881.746	22889
881.872	22869
881.999	22786
882.125	22778
882.252	22869
882.378	22850
882.505	22923
882.631	22698
882.757	22565
882.883	22592
883.01	22527
883.136	22500
883.262	22398
883.388	22417
883.514	22599
883.64	22641
883.766	22466
883.892	22287
884.018	22272
884.143	22440
884.269	22565
884.395	22375
884.52	22226
884.646	22166
884.772	22204
884.897	21994
885.023	22303
885.148	22261
885.274	22207
885.399	22207
885.524	22211
885.65	22162
885.775	22124
885.9	22154
886.025	22284
886.15	22280
886.275	22207
886.4	22154
886.525	22143
886.65	22006
886.775	21983
886.9	22280
887.025	22432
887.149	22055
887.274	21945
887.399	21869
887.523	21907
887.648	21819
887.773	21842
887.897	21968
888.021	21941
888.146	21816
888.27	21987
888.395	22074
888.519	21823
888.643	21838
888.767	22048
888.891	21808
889.015	21698
889.139	21679
889.263	21637
889.387	21747
889.511	21918
889.635	21800
889.759	21660
889.883	21751
890.006	21732
890.13	21789
890.254	21526
890.377	21610
890.501	21542
890.624	21313
890.748	21538
890.871	21283
890.995	21237
891.118	21268
891.241	21214
891.364	21298
891.488	21405
891.611	21260
891.734	21336
891.857	21237
891.98	21245
892.103	21272
892.226	21237
892.349	21192
892.471	20971
892.594	21146
892.717	21283
892.839	21077
892.962	21199
893.085	21283
893.207	21100
893.33	21043
893.452	21047
893.575	21249
893.697	21135
893.819	21203
893.941	21367
894.064	21325
894.186	21070
894.308	21066
894.43	21188
894.552	21294
894.674	21138
894.796	21135
894.918	21108
895.04	20994
895.161	21184
895.283	21237
895.405	21100
895.526	20986
895.648	21043
895.769	21222
895.891	21116
896.012	21089
896.134	21169
896.255	21062
896.376	21051
896.498	21135
896.619	21055
896.74	21024
896.861	21119
896.982	21412
897.103	21530
897.224	21462
897.345	21287
897.466	21268
897.587	21370
897.708	21492
897.828	21325
897.949	21161
898.07	21112
898.19	21279
898.311	21458
898.431	21218
898.552	21321
898.672	21298
898.792	21492
898.913	21260
899.033	21264
899.153	21195
899.273	21039
899.393	21017
899.513	21100
899.633	21089
899.753	21028
899.873	20899
899.993	21123
900.113	20982
900.232	20948
900.352	21001
900.472	20868
900.591	20804
900.711	20868
900.83	20743
900.95	20823
901.069	20823
901.189	20667
901.308	20533
901.427	20366
901.546	20549
901.665	20317
901.784	20396
901.904	20218
902.023	20157
902.141	19967
902.26	19875
902.379	19963
902.498	20012
902.617	19856
902.735	19955
902.854	19936
902.973	19780
903.091	19506
903.21	19441
903.328	19582
903.446	19556
903.565	19312
903.683	19320
903.801	19164
903.919	19365
904.038	19308
904.156	19194
904.274	19118
904.392	19099
904.51	19156
904.627	18993
904.745	19137
904.863	19122
904.981	18848
905.098	18772
905.216	18798
905.334	18802
905.451	18741
905.569	18863
905.686	18913
905.803	18677
905.921	18684
906.038	18563
906.155	18646
906.272	18350
906.389	18445
906.506	18346
906.623	18296
906.74	18178
906.857	18140
906.974	18117
907.091	18251
907.208	18330
907.324	18277
907.441	18178
907.557	18171
907.674	17988
907.79	17988
907.907	17992
908.023	18049
908.139	18019
908.256	18106
908.372	17920
908.488	17942
908.604	17684
908.72	17634
908.836	17737
908.952	17634
909.068	17745
909.184	17885
909.3	17665
909.415	17828
909.531	17589
909.647	17509
909.762	17372
909.878	17341
909.993	17452
910.108	17360
910.224	17493
910.339	17402
910.454	17132
910.57	17102
910.685	17128
910.8	17406
910.915	17330
911.03	17193
911.145	17048
911.259	17010
911.374	16987
911.489	16889
911.604	16835
911.718	16736
911.833	16683
911.947	16729
912.062	16577
912.176	16710
912.291	16656
912.405	16706
912.519	16927
912.633	16919
912.748	16755
912.862	16656
912.976	16599
913.09	16379
913.204	16523
913.318	16512
913.431	16656
913.545	16592
913.659	16599
913.772	16542
913.886	16421
914	16230
914.113	16348
914.226	16459
914.34	16394
914.453	16207
914.566	16268
914.68	16150
914.793	16162
914.906	15983
915.019	15945
915.132	15892
915.245	15854
915.358	15918
915.47	15918
915.583	15907
915.696	15903
915.809	16036
915.921	15975
916.034	15778
916.146	15793
916.259	15755
916.371	15964
916.483	15846
916.595	15751
916.708	15652
916.82	15724
916.932	15694
917.044	15584
917.156	15610
917.268	15534
917.38	15477
917.491	15641
917.603	15584
917.715	15591
917.826	15625
917.938	15389
918.049	15344
918.161	15462
918.272	15606
918.384	15614
918.495	15367
918.606	15340
918.717	15195
918.828	15355
918.939	15302
919.05	15150
919.161	15222
919.272	15043
919.383	14975
919.494	15252
919.604	15416
919.715	15199
919.826	15252
919.936	15260
920.047	15249
920.157	15180
920.267	15355
920.378	15176
920.488	15218
920.598	15321
920.708	15458
920.818	15416
920.928	15355
921.038	15481
921.148	15351
921.258	15142
921.368	14937
921.477	15051
921.587	14986
921.697	14773
921.806	14872
921.916	14724
922.025	14594
922.134	14632
922.244	14511
922.353	14610
922.462	14484
922.571	14454
922.68	14320
922.789	14221
922.898	14240
923.007	14187
923.116	14259
923.224	14218
923.333	14176
923.442	14077
923.55	13982
923.659	13967
923.767	14115
923.876	13955
923.984	14027
924.092	13921
924.201	14020
924.309	13921
924.417	13879
924.525	13765
924.633	13814
924.741	14701
924.849	13674
924.956	13890
925.064	13620
925.172	13567
925.279	13590
925.387	13616
925.494	13556
925.602	13791
925.709	13605
925.816	13552
925.924	13582
926.031	13597
926.138	13487
926.245	13544
926.352	13373
926.459	13548
926.566	13643
926.673	13426
926.779	13324
926.886	13274
926.993	13149
927.099	13133
927.206	13076
927.312	13129
927.419	13179
927.525	13095
927.631	13129
927.737	13114
927.843	12958
927.95	12856
928.056	13004
928.162	13004
928.267	12947
928.373	13563
928.479	13034
928.585	12829
928.69	12993
928.796	12939
928.901	12745
929.007	12741
929.112	12757
929.218	12715
929.323	12734
929.428	12662
929.533	12817
929.638	12696
929.743	12620
929.848	12646
929.953	12642
930.058	12506
930.163	12323
930.267	12346
930.372	12441
930.477	12247
930.581	12509
930.685	12311
930.79	12178
930.894	12224
930.998	12239
931.103	12266
931.207	11939
931.311	11912
931.415	11688
931.519	11543
931.623	11646
