Data from test_V78500241_3552.txt Node
Date: Fri Mar 25 16:06:24 CST 2022
User: usil
Spectrometer: V785-0024
Trigger mode: 0
Integration Time (sec): 4.000000E-1
Scans to average: 1
Nonlinearity correction enabled: false
Boxcar width: 0
Storing dark spectrum: false
XAxis mode: Wavelengths
Number of Pixels in Spectrum: 1024
>>>>>Begin Spectral Data<<<<<
801.071	28900
801.214	28828
801.356	28672
801.499	28607
801.641	28478
801.783	28542
801.926	28615
802.068	28573
802.211	28474
802.353	28405
802.496	28299
802.638	28295
802.78	28246
802.923	28097
803.065	28082
803.208	28173
803.35	28204
803.492	28272
803.635	28466
803.777	28428
803.919	28371
804.061	28824
804.204	28500
804.346	28474
804.488	28443
804.63	28675
804.773	28459
804.915	28451
805.057	28668
805.199	28409
805.341	28641
805.483	28675
805.626	28577
805.768	28565
805.91	28683
806.052	28634
806.194	28675
806.336	28778
806.478	28523
806.62	28584
806.762	28911
806.904	28938
807.046	29060
807.188	29060
807.33	29162
807.472	29155
807.614	29018
807.756	28949
807.898	28862
808.04	28915
808.182	28831
808.324	29064
808.465	29037
808.607	29193
808.749	29280
808.891	29356
809.033	29516
809.174	29322
809.316	29341
809.458	29307
809.6	29444
809.741	29486
809.883	29486
810.025	29745
810.166	29710
810.308	29661
810.45	29554
810.591	29554
810.733	29570
810.875	29436
811.016	29421
811.158	29242
811.299	29539
811.441	29611
811.582	29486
811.724	29471
811.865	29273
812.007	29452
812.148	29375
812.29	29353
812.431	29375
812.573	29714
812.714	29775
812.855	29916
812.997	29939
813.138	30220
813.279	29999
813.421	29977
813.562	29840
813.703	29703
813.845	29501
813.986	29387
814.127	29181
814.268	29162
814.41	29071
814.551	29060
814.692	29083
814.833	28904
814.974	28915
815.115	29143
815.256	28968
815.397	28984
815.539	29006
815.68	28927
815.821	28698
815.962	28873
816.103	28934
816.244	28820
816.385	28569
816.526	28702
816.666	28504
816.807	28481
816.948	28436
817.089	28432
817.23	28337
817.371	28401
817.512	28382
817.653	28360
817.793	28265
817.934	28268
818.075	28470
818.216	28398
818.356	28257
818.497	28238
818.638	28173
818.778	28188
818.919	28238
819.06	28242
819.2	28291
819.341	28417
819.481	28478
819.622	28611
819.762	28736
819.903	28774
820.043	28706
820.184	28649
820.324	28512
820.465	28538
820.605	28500
820.746	28519
820.886	28325
821.026	28516
821.167	28504
821.307	28493
821.447	28371
821.588	28356
821.728	28219
821.868	28135
822.008	27911
822.149	27888
822.289	27892
822.429	27736
822.569	27507
822.709	27534
822.849	27348
822.99	27481
823.13	27454
823.27	27329
823.41	27214
823.55	27192
823.69	27180
823.83	27214
823.97	27211
824.11	27024
824.25	27009
824.389	26944
824.529	26956
824.669	27028
824.809	27127
824.949	27192
825.089	27161
825.228	26975
825.368	26975
825.508	26975
825.648	26971
825.787	26872
825.927	26864
826.067	26906
826.206	26967
826.346	26929
826.485	26895
826.625	26796
826.765	26990
826.904	27085
827.044	26670
827.183	26762
827.323	26514
827.462	26701
827.601	26686
827.741	26511
827.88	26632
828.02	26606
828.159	26594
828.298	26606
828.437	26758
828.577	26609
828.716	26773
828.855	26606
828.994	26301
829.134	26317
829.273	26351
829.412	26389
829.551	26248
829.69	26362
829.829	26461
829.968	26602
830.107	26423
830.246	26320
830.385	26317
830.524	26187
830.663	26073
830.802	26043
830.941	25906
831.08	25925
831.219	26001
831.357	26073
831.496	26005
831.635	25944
831.774	25811
831.913	25860
832.051	25655
832.19	25837
832.329	25662
832.467	25575
832.606	25552
832.744	25601
832.883	25578
833.022	25601
833.16	25655
833.299	25514
833.437	25571
833.576	25655
833.714	25753
833.852	25666
833.991	25788
834.129	25791
834.267	25700
834.406	25719
834.544	25738
834.682	25647
834.821	25590
834.959	25814
835.097	25571
835.235	25704
835.373	25757
835.511	25624
835.65	25438
835.788	25597
835.926	25445
836.064	25327
836.202	25354
836.34	25403
836.478	25529
836.615	25483
836.753	25472
836.891	25597
837.029	25552
837.167	25483
837.305	25415
837.443	25407
837.58	25339
837.718	25597
837.856	25225
837.993	25282
838.131	25308
838.269	25148
838.406	25213
838.544	25247
838.681	24894
838.819	24932
838.956	24848
839.094	24821
839.231	24776
839.369	24932
839.506	25148
839.643	25038
839.781	24863
839.918	24787
840.055	24833
840.193	24669
840.33	24631
840.467	24669
840.604	24707
840.742	24962
840.879	24490
841.016	24631
841.153	24627
841.29	24783
841.427	24696
841.564	24665
841.701	24620
841.838	24631
841.975	24505
842.112	24540
842.249	24452
842.385	24544
842.522	24639
842.659	24490
842.796	24357
842.933	24528
843.069	24422
843.206	24369
843.343	24509
843.479	24414
843.616	24376
843.752	24216
843.889	24209
844.025	24243
844.162	24178
844.298	24296
844.435	24273
844.571	24083
844.708	24163
844.844	24441
844.98	24448
845.117	24372
845.253	24220
845.389	23980
845.525	24194
845.661	24068
845.798	23889
845.934	24049
846.07	23939
846.206	24007
846.342	24091
846.478	23958
846.614	23687
846.75	23767
846.886	23703
847.022	23824
847.158	23615
847.294	23722
847.429	23714
847.565	23611
847.701	23863
847.837	23414
847.972	23337
848.108	23414
848.244	23455
848.379	23242
848.515	23292
848.65	23132
848.786	23277
848.921	23189
849.057	23376
849.192	23376
849.328	23147
849.463	23235
849.598	23235
849.734	23204
849.869	23098
850.004	22972
850.14	23071
850.275	22919
850.41	22831
850.545	23029
850.68	23037
850.815	23060
850.95	23056
851.085	23258
851.22	23284
851.355	23090
851.49	23052
851.625	22915
851.76	22995
851.895	23056
852.03	23003
852.165	23025
852.299	23174
852.434	23052
852.569	22934
852.703	23029
852.838	23098
852.973	23170
853.107	23227
853.242	23052
853.376	22778
853.511	22828
853.645	22713
853.78	22930
853.914	22923
854.048	22809
854.183	22744
854.317	22942
854.451	23102
854.585	22984
854.72	22790
854.854	23052
854.988	22858
855.122	22877
855.256	22809
855.39	22812
855.524	22930
855.658	22892
855.792	22873
855.926	22980
856.06	22885
856.194	22869
856.327	22790
856.461	22828
856.595	22786
856.729	22991
856.862	22904
856.996	22908
857.13	22961
857.263	22995
857.397	23037
857.53	22869
857.664	22866
857.797	22847
857.931	22984
858.064	22946
858.197	23044
858.331	22843
858.464	22752
858.597	22744
858.731	22790
858.864	22740
858.997	22797
859.13	22889
859.263	22820
859.396	22873
859.529	22812
859.662	22759
859.795	22767
859.928	22850
860.061	23033
860.194	23113
860.327	22839
860.46	22869
860.592	22965
860.725	23060
860.858	22976
860.99	22881
861.123	22801
861.256	22782
861.388	22854
861.521	23627
861.653	22733
861.786	22706
861.918	22622
862.05	22729
862.183	22790
862.315	22774
862.447	22881
862.58	22679
862.712	22584
862.844	22653
862.976	22626
863.108	22584
863.24	23147
863.372	22489
863.504	22596
863.636	22554
863.768	22660
863.9	22630
864.032	22622
864.164	22573
864.296	22607
864.428	22771
864.559	22649
864.691	22626
864.823	22573
864.954	22573
865.086	22573
865.217	22504
865.349	22363
865.48	22363
865.612	22500
865.743	22516
865.875	22489
866.006	22474
866.137	22367
866.269	22512
866.4	22363
866.531	22386
866.662	22314
866.793	22375
866.924	22447
867.055	22466
867.186	22356
867.317	22356
867.448	22181
867.579	22375
867.71	22249
867.841	22265
867.972	22382
868.103	22394
868.233	22314
868.364	22360
868.495	22485
868.625	22557
868.756	22725
868.886	22508
869.017	22592
869.147	22694
869.278	22702
869.408	22702
869.539	22599
869.669	22660
869.799	22687
869.929	22710
870.06	22683
870.19	22889
870.32	22900
870.45	22949
870.58	23010
870.71	23105
870.84	23117
870.97	22877
871.1	22908
871.23	23231
871.36	23174
871.489	23022
871.619	23124
871.749	23159
871.879	23258
872.008	23246
872.138	23265
872.267	23090
872.397	23155
872.526	23060
872.656	23090
872.785	23086
872.915	23288
873.044	23220
873.173	23212
873.303	23258
873.432	23204
873.561	23376
873.69	23189
873.819	23307
873.948	23204
874.077	23299
874.206	23098
874.335	23220
874.464	23242
874.593	23414
874.722	23486
874.851	23482
874.979	23391
875.108	23543
875.237	23337
875.365	23288
875.494	23383
875.623	23440
875.751	23505
875.88	23478
876.008	23589
876.136	23684
876.265	23809
876.393	24003
876.521	23832
876.65	23828
876.778	23805
876.906	23786
877.034	23756
877.162	23775
877.29	23794
877.418	23805
877.546	23775
877.674	23649
877.802	23893
877.93	23798
878.058	23813
878.185	23684
878.313	23767
878.441	23805
878.568	23680
878.696	23615
878.824	23882
878.951	23901
879.079	24045
879.206	23973
879.333	23817
879.461	23863
879.588	23821
879.715	23847
879.842	24095
879.97	23828
880.097	23592
880.224	23589
880.351	23657
880.478	23630
880.605	23665
880.732	23551
880.859	23767
880.986	23653
881.112	23608
881.239	23452
881.366	23372
881.493	23288
881.619	23102
881.746	23265
881.872	23109
881.999	23086
882.125	23025
882.252	23208
882.378	23098
882.505	23140
882.631	22961
882.757	22694
882.883	22812
883.01	22744
883.136	22748
883.262	22653
883.388	22588
883.514	22793
883.64	22930
883.766	22656
883.892	22626
884.018	22519
884.143	22850
884.269	22786
884.395	22462
884.52	22421
884.646	22474
884.772	22405
884.897	22253
885.023	22352
885.148	22512
885.274	22550
885.399	22538
885.524	22417
885.65	22489
885.775	22485
885.9	22394
886.025	22542
886.15	22474
886.275	22284
886.4	22432
886.525	22371
886.65	22287
886.775	22390
886.9	22402
887.025	22637
887.149	22428
887.274	22299
887.399	22124
887.523	22166
887.648	22063
887.773	22120
887.897	22223
888.021	22200
888.146	22154
888.27	22211
888.395	22185
888.519	22169
888.643	22169
888.767	22154
888.891	22074
889.015	21895
889.139	22101
889.263	21964
889.387	22139
889.511	22090
889.635	22055
889.759	22048
889.883	21953
890.006	21945
890.13	22044
890.254	21861
890.377	21979
890.501	21785
890.624	21675
890.748	21751
890.871	21675
890.995	21492
891.118	21355
891.241	21538
891.364	21447
891.488	21656
891.611	21564
891.734	21458
891.857	21663
891.98	21542
892.103	21492
892.226	21542
892.349	21519
892.471	21332
892.594	21344
892.717	21568
892.839	21306
892.962	21332
893.085	21481
893.207	21329
893.33	21218
893.452	21291
893.575	21488
893.697	21279
893.819	21405
893.941	21553
894.064	21595
894.186	21272
894.308	21310
894.43	21504
894.552	21469
894.674	21454
894.796	21325
894.918	21374
895.04	21310
895.161	21481
895.283	21447
895.405	21279
895.526	21363
895.648	21317
895.769	21233
895.891	21348
896.012	21336
896.134	21405
896.255	21485
896.376	21397
896.498	21294
896.619	21515
896.74	21405
896.861	21424
896.982	21728
897.103	21838
897.224	21633
897.345	21599
897.466	21428
897.587	21530
897.708	21622
897.828	21625
897.949	21591
898.07	21344
898.19	21591
898.311	21603
898.431	21511
898.552	21591
898.672	21568
898.792	21595
898.913	21473
899.033	21603
899.153	21367
899.273	21336
899.393	21363
899.513	21450
899.633	21207
899.753	21382
899.873	21226
899.993	21340
900.113	21226
900.232	21157
900.352	21154
900.472	21096
900.591	21150
900.711	21055
900.83	20952
900.95	21131
901.069	21207
901.189	20925
901.308	20670
901.427	20549
901.546	20674
901.665	20724
901.784	20625
901.904	20507
902.023	20381
902.141	20259
902.26	20126
902.379	20206
902.498	20115
902.617	19993
902.735	20161
902.854	20062
902.973	19993
903.091	19830
903.21	19822
903.328	19677
903.446	19788
903.565	19632
903.683	19635
903.801	19502
903.919	19548
904.038	19449
904.156	19392
904.274	19430
904.392	19270
904.51	19259
904.627	19171
904.745	19255
904.863	19373
904.981	19034
905.098	19004
905.216	19038
905.334	18962
905.451	18909
905.569	18890
905.686	19057
905.803	18935
905.921	18875
906.038	18859
906.155	18772
906.272	18650
906.389	18707
906.506	18582
906.623	18544
906.74	18475
906.857	18384
906.974	18429
907.091	18490
907.208	18597
907.324	18532
907.441	18376
907.557	18247
907.674	18144
907.79	18270
907.907	18171
908.023	18239
908.139	18235
908.256	18098
908.372	18095
908.488	18030
908.604	17958
908.72	17885
908.836	17923
908.952	17889
909.068	17920
909.184	18022
909.3	17980
909.415	17866
909.531	17809
909.647	17707
909.762	17642
909.878	17668
909.993	17592
910.108	17665
910.224	17630
910.339	17646
910.454	17535
910.57	17440
910.685	17360
910.8	17630
910.915	17532
911.03	17398
911.145	17261
911.259	17250
911.374	17204
911.489	17189
911.604	17079
911.718	16957
911.833	16949
911.947	16900
912.062	16771
912.176	16904
912.291	16881
912.405	16961
912.519	16946
912.633	17105
912.748	16976
912.862	16927
912.976	16809
913.09	16618
913.204	16656
913.318	16820
913.431	16896
913.545	16805
913.659	16854
913.772	16740
913.886	16504
914	16462
914.113	16554
914.226	16565
914.34	16542
914.453	16577
914.566	16546
914.68	16436
914.793	16413
914.906	16188
915.019	16124
915.132	16124
915.245	16143
915.358	16090
915.47	16086
915.583	16032
915.696	16116
915.809	16162
915.921	16177
916.034	16090
916.146	15907
916.259	16002
916.371	16029
916.483	15964
916.595	15953
916.708	15857
916.82	15983
916.932	15911
917.044	15838
917.156	15869
917.268	15793
917.38	15781
917.491	15724
917.603	15713
917.715	15819
917.826	15827
917.938	15629
918.049	15568
918.161	15584
918.272	15846
918.384	15747
918.495	15644
918.606	15549
918.717	15359
918.828	15485
918.939	15584
919.05	15344
919.161	15401
919.272	15195
919.383	15351
919.494	15576
919.604	15671
919.715	15405
919.826	15321
919.936	15393
920.047	15507
920.157	15355
920.267	15542
920.378	15348
920.488	15374
920.598	15633
920.708	15736
920.818	15515
920.928	15542
921.038	15705
921.148	15720
921.258	15241
921.368	15268
921.477	15150
921.587	15154
921.697	14982
921.806	15157
921.916	14902
922.025	14781
922.134	14750
922.244	14667
922.353	14686
922.462	14568
922.571	14530
922.68	14480
922.789	14446
922.898	14412
923.007	14355
923.116	14381
923.224	14423
923.333	14332
923.442	14244
923.55	14206
923.659	14290
923.767	14305
923.876	14233
923.984	14202
924.092	14012
924.201	14096
924.309	14103
924.417	14062
924.525	14054
924.633	14065
924.741	14956
924.849	13883
924.956	13955
925.064	13826
925.172	13696
925.279	13670
925.387	13772
925.494	13795
925.602	13913
925.709	13681
925.816	13586
925.924	13643
926.031	13879
926.138	13674
926.245	13750
926.352	13613
926.459	13693
926.566	13715
926.673	13658
926.779	13567
926.886	13529
926.993	13381
927.099	13282
927.206	13297
927.312	13168
927.419	13331
927.525	13240
927.631	13232
927.737	13118
927.843	13149
927.95	13019
928.056	13126
928.162	13080
928.267	13198
928.373	13704
928.479	13168
928.585	12932
928.69	13023
928.796	13103
928.901	13015
929.007	12684
929.112	12878
929.218	12829
929.323	12795
929.428	12814
929.533	12943
929.638	12745
929.743	12722
929.848	12787
929.953	12681
930.058	12597
930.163	12467
930.267	12532
930.372	12517
930.477	12410
930.581	12681
930.685	12448
930.79	12266
930.894	12410
930.998	12258
931.103	12403
931.207	12102
931.311	11958
931.415	11893
931.519	11630
931.623	11680
