Data from test_V78500241_309.txt Node
Date: Fri Mar 25 15:43:56 CST 2022
User: usil
Spectrometer: V785-0024
Trigger mode: 0
Integration Time (sec): 4.000000E-1
Scans to average: 1
Nonlinearity correction enabled: false
Boxcar width: 0
Storing dark spectrum: false
XAxis mode: Wavelengths
Number of Pixels in Spectrum: 1024
>>>>>Begin Spectral Data<<<<<
801.071	29897
801.214	29718
801.356	29528
801.499	29375
801.641	29261
801.783	29463
801.926	29379
802.068	29311
802.211	29292
802.353	29258
802.496	29178
802.638	28980
802.78	28915
802.923	29010
803.065	28934
803.208	28896
803.35	29075
803.492	29220
803.635	29250
803.777	29105
803.919	29200
804.061	29573
804.204	29052
804.346	29143
804.488	29178
804.63	29094
804.773	29098
804.915	29322
805.057	29261
805.199	29185
805.341	29109
805.483	29265
805.626	29143
805.768	29296
805.91	29353
806.052	29444
806.194	29197
806.336	29539
806.478	29391
806.62	29433
806.762	29493
806.904	29775
807.046	29927
807.188	29718
807.33	29851
807.472	29878
807.614	29611
807.756	29589
807.898	29444
808.04	29646
808.182	29543
808.324	29585
808.465	29634
808.607	29615
808.749	29950
808.891	29961
809.033	30121
809.174	30018
809.316	29923
809.458	29946
809.6	29775
809.741	30045
809.883	30057
810.025	30171
810.166	30346
810.308	30304
810.45	30342
810.591	30228
810.733	30079
810.875	29809
811.016	29889
811.158	29927
811.299	30194
811.441	30190
811.582	30258
811.724	30030
811.865	29893
812.007	29950
812.148	29874
812.29	30030
812.431	30034
812.573	30338
812.714	30407
812.855	30445
812.997	30399
813.138	30825
813.279	30593
813.421	30448
813.562	30467
813.703	30296
813.845	30098
813.986	29969
814.127	29722
814.268	29585
814.41	29661
814.551	29627
814.692	29570
814.833	29627
814.974	29653
815.115	29668
815.256	29463
815.397	29391
815.539	29543
815.68	29490
815.821	29303
815.962	29345
816.103	29372
816.244	29402
816.385	29254
816.526	29105
816.666	28930
816.807	28854
816.948	28961
817.089	28942
817.23	29079
817.371	28881
817.512	28888
817.653	28733
817.793	28679
817.934	28869
818.075	28843
818.216	28919
818.356	28763
818.497	28687
818.638	28634
818.778	28641
818.919	28679
819.06	28645
819.2	28656
819.341	28965
819.481	28801
819.622	28961
819.762	29003
819.903	29067
820.043	28942
820.184	28805
820.324	28744
820.465	28824
820.605	28869
820.746	28862
820.886	28748
821.026	29056
821.167	28816
821.307	28946
821.447	28786
821.588	28668
821.728	28386
821.868	28344
822.008	28257
822.149	28306
822.289	28265
822.429	28025
822.569	28032
822.709	27964
822.849	27663
822.99	27625
823.13	27793
823.27	27698
823.41	27629
823.55	27553
823.69	27542
823.83	27542
823.97	27504
824.11	27222
824.25	27351
824.389	27435
824.529	27325
824.669	27378
824.809	27458
824.949	27367
825.089	27401
825.228	27469
825.368	27245
825.508	27169
825.648	27188
825.787	27112
825.927	27241
826.067	27195
826.206	27272
826.346	27192
826.485	27188
826.625	27249
826.765	27237
826.904	27351
827.044	27058
827.183	26902
827.323	26746
827.462	26906
827.601	26956
827.741	26815
827.88	26765
828.02	26857
828.159	26990
828.298	26861
828.437	26781
828.577	26800
828.716	26967
828.855	26686
828.994	26526
829.134	26644
829.273	26735
829.412	26453
829.551	26431
829.69	26480
829.829	26632
829.968	26556
830.107	26533
830.246	26473
830.385	26476
830.524	26533
830.663	26298
830.802	26218
830.941	26149
831.08	26168
831.219	26195
831.357	26187
831.496	26275
831.635	26077
831.774	26027
831.913	26073
832.051	25917
832.19	25890
832.329	25852
832.467	25852
832.606	25765
832.744	25852
832.883	25784
833.022	25780
833.16	25761
833.299	25761
833.437	25670
833.576	25814
833.714	25757
833.852	25746
833.991	25902
834.129	25849
834.267	25887
834.406	25780
834.544	25955
834.682	25818
834.821	25696
834.959	25890
835.097	25651
835.235	25799
835.373	25784
835.511	25753
835.65	25601
835.788	25578
835.926	25384
836.064	25396
836.202	25506
836.34	25537
836.478	25670
836.615	25601
836.753	25693
836.891	25693
837.029	25590
837.167	25556
837.305	25578
837.443	25548
837.58	25464
837.718	25460
837.856	25510
837.993	25335
838.131	25415
838.269	25225
838.406	25259
838.544	25164
838.681	24928
838.819	24924
838.956	24814
839.094	24791
839.231	24894
839.369	25015
839.506	25175
839.643	25103
839.781	24810
839.918	24722
840.055	24901
840.193	24681
840.33	24715
840.467	24661
840.604	24779
840.742	25008
840.879	24578
841.016	24646
841.153	24623
841.29	24776
841.427	24696
841.564	24646
841.701	24593
841.838	24585
841.975	24509
842.112	24574
842.249	24490
842.385	24505
842.522	24608
842.659	24505
842.796	24437
842.933	24437
843.069	24342
843.206	24289
843.343	24437
843.479	24350
843.616	24292
843.752	24251
843.889	24277
844.025	24277
844.162	24102
844.298	24277
844.435	24087
844.571	24026
844.708	24315
844.844	24285
844.98	24216
845.117	24304
845.253	23965
845.389	24106
845.525	24079
845.661	24011
845.798	23885
845.934	23961
846.07	23832
846.206	23946
846.342	24018
846.478	23863
846.614	23433
846.75	23440
846.886	23577
847.022	23665
847.158	23695
847.294	23680
847.429	23672
847.565	23482
847.701	23855
847.837	23368
847.972	23254
848.108	23471
848.244	23421
848.379	23288
848.515	23109
848.65	23246
848.786	23223
848.921	23159
849.057	23258
849.192	23166
849.328	23124
849.463	23094
849.598	23117
849.734	23105
849.869	22953
850.004	22866
850.14	22949
850.275	22908
850.41	22790
850.545	22984
850.68	22790
850.815	22850
850.95	22911
851.085	22984
851.22	22892
851.355	22892
851.49	22961
851.625	22873
851.76	22816
851.895	22771
852.03	22812
852.165	22919
852.299	22900
852.434	22900
852.569	22904
852.703	22869
852.838	22949
852.973	23025
853.107	22999
853.242	22755
853.376	22733
853.511	22634
853.645	22748
853.78	22782
853.914	22664
854.048	22550
854.183	22797
854.317	22641
854.451	22774
854.585	22759
854.72	22767
854.854	22698
854.988	22748
855.122	22649
855.256	22470
855.39	22504
855.524	22687
855.658	22660
855.792	22717
855.926	22584
856.06	22626
856.194	22721
856.327	22634
856.461	22535
856.595	22649
856.729	22580
856.862	22702
856.996	22759
857.13	22721
857.263	22801
857.397	22828
857.53	22542
857.664	22698
857.797	22641
857.931	22736
858.064	22664
858.197	22835
858.331	22573
858.464	22630
858.597	22497
858.731	22546
858.864	22698
858.997	22550
859.13	22565
859.263	22535
859.396	22748
859.529	22687
859.662	22554
859.795	22611
859.928	22569
860.061	22592
860.194	22957
860.327	22733
860.46	22584
860.592	22717
860.725	22744
860.858	22721
860.99	22656
861.123	22481
861.256	22550
861.388	22630
861.521	23311
861.653	22538
861.786	22489
861.918	22443
862.05	22462
862.183	22645
862.315	22656
862.447	22580
862.58	22459
862.712	22489
862.844	22310
862.976	22398
863.108	22489
863.24	22824
863.372	22181
863.504	22379
863.636	22348
863.768	22284
863.9	22246
864.032	22169
864.164	22185
864.296	22280
864.428	22356
864.559	22337
864.691	22367
864.823	22333
864.954	22276
865.086	22215
865.217	22215
865.349	22154
865.48	22158
865.612	22230
865.743	22356
865.875	22169
866.006	22097
866.137	22207
866.269	22257
866.4	22116
866.531	22128
866.662	22177
866.793	22032
866.924	22128
867.055	22169
867.186	22219
867.317	22097
867.448	21941
867.579	22025
867.71	21953
867.841	21968
867.972	22036
868.103	22124
868.233	22044
868.364	22105
868.495	22200
868.625	22344
868.756	22485
868.886	22238
869.017	22276
869.147	22478
869.278	22470
869.408	22310
869.539	22352
869.669	22466
869.799	22417
869.929	22367
870.06	22443
870.19	22675
870.32	22675
870.45	22599
870.58	22702
870.71	22869
870.84	22862
870.97	22839
871.1	22706
871.23	22809
871.36	22904
871.489	22820
871.619	22968
871.749	22831
871.879	22946
872.008	23117
872.138	22953
872.267	22919
872.397	22805
872.526	22713
872.656	22706
872.785	22801
872.915	22957
873.044	23090
873.173	22976
873.303	22942
873.432	23048
873.561	23033
873.69	22904
873.819	22930
873.948	22862
874.077	22991
874.206	22881
874.335	22927
874.464	23109
874.593	23128
874.722	23155
874.851	23102
874.979	23174
875.108	23208
875.237	23041
875.365	22957
875.494	23143
875.623	23246
875.751	23223
875.88	23109
876.008	23261
876.136	23360
876.265	23562
876.393	23634
876.521	23509
876.65	23528
876.778	23524
876.906	23459
877.034	23535
877.162	23604
877.29	23509
877.418	23535
877.546	23630
877.674	23493
877.802	23452
877.93	23478
878.058	23528
878.185	23376
878.313	23554
878.441	23387
878.568	23311
878.696	23379
878.824	23505
878.951	23448
879.079	23680
879.206	23790
879.333	23634
879.461	23573
879.588	23638
879.715	23653
879.842	23794
879.97	23535
880.097	23250
880.224	23299
880.351	23455
880.478	23330
880.605	23197
880.732	23254
880.859	23573
880.986	23140
881.112	23356
881.239	23235
881.366	23102
881.493	23033
881.619	22858
881.746	22908
881.872	22828
881.999	22927
882.125	22839
882.252	23018
882.378	22793
882.505	22889
882.631	22653
882.757	22744
882.883	22634
883.01	22493
883.136	22607
883.262	22344
883.388	22402
883.514	22485
883.64	22645
883.766	22447
883.892	22371
884.018	22268
884.143	22493
884.269	22580
884.395	22344
884.52	22093
884.646	22105
884.772	22101
884.897	22177
885.023	22192
885.148	22211
885.274	22352
885.399	22249
885.524	22158
885.65	22078
885.775	22238
885.9	22101
886.025	22280
886.15	22215
886.275	22162
886.4	22013
886.525	22234
886.65	22196
886.775	22158
886.9	22314
887.025	22478
887.149	22131
887.274	22010
887.399	22025
887.523	21998
887.648	21888
887.773	21895
887.897	22158
888.021	21972
888.146	21762
888.27	21998
888.395	21918
888.519	21880
888.643	21922
888.767	21861
888.891	21800
889.015	21728
889.139	21789
889.263	21637
889.387	21717
889.511	21880
889.635	21831
889.759	21648
889.883	21747
890.006	21641
890.13	21778
890.254	21667
890.377	21679
890.501	21485
890.624	21485
890.748	21488
890.871	21207
890.995	21157
891.118	21233
891.241	21237
891.364	21351
891.488	21313
891.611	21275
891.734	21298
891.857	21329
891.98	21218
892.103	21325
892.226	21340
892.349	21237
892.471	20998
892.594	21146
892.717	21119
892.839	21039
892.962	21192
893.085	21218
893.207	21051
893.33	20963
893.452	21119
893.575	21222
893.697	20998
893.819	21370
893.941	21287
894.064	21245
894.186	21112
894.308	20990
894.43	21203
894.552	21359
894.674	21199
894.796	21138
894.918	21154
895.04	21043
895.161	21214
895.283	21138
895.405	21032
895.526	21089
895.648	21070
895.769	21077
895.891	21077
896.012	21268
896.134	21268
896.255	21199
896.376	21013
896.498	21074
896.619	21199
896.74	21233
896.861	21180
896.982	21583
897.103	21599
897.224	21408
897.345	21549
897.466	21450
897.587	21317
897.708	21424
897.828	21405
897.949	21363
898.07	21268
898.19	21237
898.311	21401
898.431	21317
898.552	21264
898.672	21249
898.792	21420
898.913	21260
899.033	21184
899.153	21058
899.273	21043
899.393	21184
899.513	21055
899.633	21001
899.753	21051
899.873	20849
899.993	21104
900.113	20982
900.232	21001
900.352	20960
900.472	20838
900.591	20788
900.711	20883
900.83	20731
900.95	20975
901.069	21074
901.189	20701
901.308	20488
901.427	20290
901.546	20393
901.665	20320
901.784	20389
901.904	20157
902.023	20138
902.141	19860
902.26	19890
902.379	19967
902.498	19860
902.617	19788
902.735	19921
902.854	19902
902.973	19731
903.091	19518
903.21	19499
903.328	19464
903.446	19384
903.565	19388
903.683	19289
903.801	19232
903.919	19198
904.038	19187
904.156	19137
904.274	19114
904.392	18973
904.51	18947
904.627	19004
904.745	19057
904.863	19053
904.981	18848
905.098	18741
905.216	18696
905.334	18768
905.451	18825
905.569	18722
905.686	18722
905.803	18749
905.921	18494
906.038	18559
906.155	18559
906.272	18433
906.389	18467
906.506	18285
906.623	18296
906.74	18144
906.857	18186
906.974	18136
907.091	18273
907.208	18353
907.324	18209
907.441	18098
907.557	17923
907.674	17946
907.79	17843
907.907	17832
908.023	17931
908.139	17927
908.256	17882
908.372	17901
908.488	17756
908.604	17691
908.72	17611
908.836	17577
908.952	17589
909.068	17756
909.184	17684
909.3	17600
909.415	17551
909.531	17600
909.647	17425
909.762	17307
909.878	17212
909.993	17410
910.108	17258
910.224	17353
910.339	17200
910.454	17056
910.57	17143
910.685	17083
910.8	17330
910.915	17220
911.03	17136
911.145	16854
911.259	16793
911.374	16961
911.489	16843
911.604	16744
911.718	16679
911.833	16656
911.947	16523
912.062	16470
912.176	16637
912.291	16592
912.405	16626
912.519	16866
912.633	16797
912.748	16607
912.862	16588
912.976	16356
913.09	16306
913.204	16356
913.318	16390
913.431	16493
913.545	16367
913.659	16474
913.772	16234
913.886	16318
914	16333
914.113	16207
914.226	16223
914.34	16204
914.453	16116
914.566	16169
914.68	16051
914.793	16067
914.906	15854
915.019	15747
915.132	15751
915.245	15793
915.358	15846
915.47	15800
915.583	15949
915.696	15827
915.809	15827
915.921	15895
916.034	15770
916.146	15629
916.259	15736
916.371	15766
916.483	15743
916.595	15606
916.708	15580
916.82	15614
916.932	15549
917.044	15485
917.156	15473
917.268	15454
917.38	15386
917.491	15321
917.603	15526
917.715	15435
917.826	15481
917.938	15393
918.049	15108
918.161	15355
918.272	15424
918.384	15435
918.495	15321
918.606	15188
918.717	14986
918.828	15245
918.939	15264
919.05	15017
919.161	15169
919.272	14864
919.383	14906
919.494	15173
919.604	15291
919.715	15138
919.826	14986
919.936	15081
920.047	15214
920.157	15085
920.267	15150
920.378	15142
920.488	15020
920.598	15241
920.708	15412
920.818	15112
920.928	15211
921.038	15329
921.148	15279
921.258	14994
921.368	14952
921.477	14788
921.587	14845
921.697	14670
921.806	14769
921.916	14678
922.025	14495
922.134	14480
922.244	14423
922.353	14347
922.462	14263
922.571	14282
922.68	14149
922.789	14001
922.898	14027
923.007	13970
923.116	14073
923.224	14103
923.333	13947
923.442	13837
923.55	13879
923.659	13944
923.767	13890
923.876	13788
923.984	13909
924.092	13807
924.201	13864
924.309	13814
924.417	13871
924.525	13742
924.633	13715
924.741	14617
924.849	13480
924.956	13670
925.064	13533
925.172	13377
925.279	13407
925.387	13487
925.494	13415
925.602	13639
925.709	13544
925.816	13377
925.924	13430
926.031	13510
926.138	13415
926.245	13388
926.352	13343
926.459	13426
926.566	13362
926.673	13316
926.779	13129
926.886	13107
926.993	12951
927.099	13046
927.206	12837
927.312	12973
927.419	13038
927.525	12996
927.631	13019
927.737	12905
927.843	12806
927.95	12696
928.056	12776
928.162	12783
928.267	12776
928.373	13529
928.479	12814
928.585	12570
928.69	12798
928.796	12802
928.901	12745
929.007	12540
929.112	12696
929.218	12608
929.323	12517
929.428	12426
929.533	12627
929.638	12513
929.743	12410
929.848	12528
929.953	12433
930.058	12327
930.163	12239
930.267	12247
930.372	12441
930.477	12159
930.581	12361
930.685	12239
930.79	12060
930.894	12079
930.998	12022
931.103	12190
931.207	11824
931.311	11691
931.415	11615
931.519	11444
931.623	11444
