Data from test_V78500241_3107.txt Node
Date: Fri Mar 25 16:03:19 CST 2022
User: usil
Spectrometer: V785-0024
Trigger mode: 0
Integration Time (sec): 4.000000E-1
Scans to average: 1
Nonlinearity correction enabled: false
Boxcar width: 0
Storing dark spectrum: false
XAxis mode: Wavelengths
Number of Pixels in Spectrum: 1024
>>>>>Begin Spectral Data<<<<<
801.071	28265
801.214	28287
801.356	28169
801.499	27842
801.641	27895
801.783	27800
801.926	27972
802.068	27972
802.211	27892
802.353	27698
802.496	27713
802.638	27561
802.78	27610
802.923	27507
803.065	27557
803.208	27485
803.35	27675
803.492	27701
803.635	27732
803.777	27648
803.919	27743
804.061	28070
804.204	27907
804.346	27698
804.488	27739
804.63	27660
804.773	27694
804.915	27892
805.057	27895
805.199	27667
805.341	27789
805.483	27899
805.626	27895
805.768	27831
805.91	27895
806.052	27808
806.194	27846
806.336	28112
806.478	27884
806.62	27895
806.762	28150
806.904	28344
807.046	28379
807.188	28360
807.33	28360
807.472	28421
807.614	28207
807.756	28295
807.898	28234
808.04	28173
808.182	28139
808.324	28295
808.465	28322
808.607	28535
808.749	28592
808.891	28634
809.033	28729
809.174	28672
809.316	28478
809.458	28451
809.6	28519
809.741	28679
809.883	28778
810.025	28774
810.166	28877
810.308	29048
810.45	28820
810.591	28767
810.733	28599
810.875	28516
811.016	28596
811.158	28497
811.299	28611
811.441	28790
811.582	28634
811.724	28497
811.865	28687
812.007	28649
812.148	28561
812.29	28618
812.431	28786
812.573	28991
812.714	28835
812.855	29048
812.997	29242
813.138	29337
813.279	29345
813.421	29231
813.562	29090
813.703	28828
813.845	28809
813.986	28557
814.127	28432
814.268	28352
814.41	28421
814.551	28196
814.692	28207
814.833	28299
814.974	28192
815.115	28348
815.256	28105
815.397	28112
815.539	28074
815.68	28109
815.821	28032
815.962	28086
816.103	28078
816.244	27972
816.385	27899
816.526	27914
816.666	27701
816.807	27481
816.948	27751
817.089	27785
817.23	27762
817.371	27492
817.512	27622
817.653	27523
817.793	27606
817.934	27564
818.075	27633
818.216	27477
818.356	27492
818.497	27530
818.638	27351
818.778	27500
818.919	27397
819.06	27454
819.2	27473
819.341	27713
819.481	27530
819.622	27724
819.762	27918
819.903	27880
820.043	27663
820.184	27682
820.324	27797
820.465	27846
820.605	27724
820.746	27812
820.886	27462
821.026	27656
821.167	27656
821.307	27759
821.447	27770
821.588	27538
821.728	27359
821.868	27260
822.008	27093
822.149	27066
822.289	27085
822.429	26777
822.569	26781
822.709	26678
822.849	26522
822.99	26564
823.13	26533
823.27	26556
823.41	26370
823.55	26339
823.69	26408
823.83	26495
823.97	26450
824.11	26142
824.25	26263
824.389	26161
824.529	26237
824.669	26187
824.809	26278
824.949	26381
825.089	26278
825.228	26305
825.368	25993
825.508	26031
825.648	26149
825.787	26054
825.927	26138
826.067	26077
826.206	26142
826.346	26157
826.485	26164
826.625	26187
826.765	26130
826.904	26062
827.044	25822
827.183	25875
827.323	25841
827.462	25852
827.601	25750
827.741	25689
827.88	25719
828.02	25700
828.159	25841
828.298	25750
828.437	25780
828.577	25772
828.716	25925
828.855	25772
828.994	25518
829.134	25487
829.273	25529
829.412	25510
829.551	25590
829.69	25499
829.829	25476
829.968	25559
830.107	25590
830.246	25525
830.385	25419
830.524	25453
830.663	25324
830.802	25331
830.941	25107
831.08	25164
831.219	25198
831.357	25152
831.496	25415
831.635	25114
831.774	25061
831.913	25038
832.051	24897
832.19	24882
832.329	24913
832.467	24878
832.606	24715
832.744	24768
832.883	24707
833.022	24589
833.16	24730
833.299	24806
833.437	24856
833.576	24760
833.714	24772
833.852	24844
833.991	24863
834.129	24958
834.267	24798
834.406	24897
834.544	24646
834.682	24863
834.821	24810
834.959	24909
835.097	24810
835.235	24776
835.373	24817
835.511	24776
835.65	24559
835.788	24578
835.926	24555
836.064	24536
836.202	24635
836.34	24703
836.478	24783
836.615	24646
836.753	24620
836.891	24715
837.029	24589
837.167	24536
837.305	24551
837.443	24521
837.58	24479
837.718	24574
837.856	24498
837.993	24418
838.131	24566
838.269	24289
838.406	24353
838.544	24270
838.681	24209
838.819	24163
838.956	23996
839.094	23878
839.231	23912
839.369	24038
839.506	24289
839.643	24235
839.781	23946
839.918	23935
840.055	23954
840.193	23954
840.33	23878
840.467	23927
840.604	23912
840.742	24133
840.879	23726
841.016	23756
841.153	23684
841.29	23996
841.427	23901
841.564	23813
841.701	23847
841.838	23863
841.975	23722
842.112	23802
842.249	23630
842.385	23493
842.522	23893
842.659	23638
842.796	23672
842.933	23680
843.069	23512
843.206	23512
843.343	23653
843.479	23661
843.616	23570
843.752	23486
843.889	23455
844.025	23600
844.162	23433
844.298	23395
844.435	23356
844.571	23254
844.708	23379
844.844	23604
844.98	23493
845.117	23516
845.253	23395
845.389	23151
845.525	23383
845.661	23223
845.798	23220
845.934	23170
846.07	23094
846.206	23155
846.342	23151
846.478	23079
846.614	22957
846.75	22691
846.886	22843
847.022	22873
847.158	22946
847.294	22972
847.429	22892
847.565	22850
847.701	23037
847.837	22729
847.972	22470
848.108	22675
848.244	22584
848.379	22535
848.515	22443
848.65	22379
848.786	22470
848.921	22432
849.057	22557
849.192	22443
849.328	22352
849.463	22257
849.598	22348
849.734	22276
849.869	22268
850.004	22360
850.14	22265
850.275	22226
850.41	22169
850.545	22147
850.68	22344
850.815	22249
850.95	22238
851.085	22413
851.22	22337
851.355	22143
851.49	22154
851.625	22303
851.76	22204
851.895	22109
852.03	22226
852.165	22249
852.299	22215
852.434	22238
852.569	22261
852.703	22310
852.838	22360
852.973	22371
853.107	22306
853.242	22120
853.376	22025
853.511	21975
853.645	21972
853.78	22185
853.914	22002
854.048	21949
854.183	22181
854.317	22006
854.451	22173
854.585	21838
854.72	22074
854.854	22074
854.988	22017
855.122	22120
855.256	21960
855.39	22010
855.524	22131
855.658	22040
855.792	22143
855.926	22048
856.06	22006
856.194	22154
856.327	22017
856.461	21968
856.595	21960
856.729	22002
856.862	22116
856.996	22010
857.13	22128
857.263	22147
857.397	22055
857.53	22025
857.664	22097
857.797	22090
857.931	22131
858.064	22002
858.197	22200
858.331	22070
858.464	22059
858.597	21949
858.731	21819
858.864	21869
858.997	21972
859.13	21983
859.263	22067
859.396	22036
859.529	22131
859.662	21953
859.795	22006
859.928	21972
860.061	22135
860.194	22249
860.327	22131
860.46	22070
860.592	22124
860.725	22070
860.858	22135
860.99	22059
861.123	21991
861.256	21960
861.388	22025
861.521	22702
861.653	21873
861.786	21869
861.918	21770
862.05	21934
862.183	21854
862.315	21907
862.447	22093
862.58	21937
862.712	21656
862.844	21618
862.976	21804
863.108	21838
863.24	22154
863.372	21717
863.504	21762
863.636	21770
863.768	21739
863.9	21690
864.032	21705
864.164	21713
864.296	21732
864.428	21808
864.559	21823
864.691	21781
864.823	21831
864.954	21739
865.086	21720
865.217	21534
865.349	21523
865.48	21523
865.612	21496
865.743	21736
865.875	21500
866.006	21625
866.137	21660
866.269	21618
866.4	21648
866.531	21625
866.662	21435
866.793	21534
866.924	21576
867.055	21496
867.186	21637
867.317	21614
867.448	21568
867.579	21485
867.71	21507
867.841	21336
867.972	21599
868.103	21401
868.233	21572
868.364	21591
868.495	21656
868.625	21838
868.756	21850
868.886	21713
869.017	21846
869.147	21892
869.278	21956
869.408	21797
869.539	21724
869.669	21876
869.799	21846
869.929	21907
870.06	21907
870.19	22074
870.32	22074
870.45	22185
870.58	22242
870.71	22333
870.84	22223
870.97	22215
871.1	22257
871.23	22394
871.36	22363
871.489	22394
871.619	22333
871.749	22443
871.879	22421
872.008	22542
872.138	22462
872.267	22421
872.397	22303
872.526	22291
872.656	22299
872.785	22299
872.915	22409
873.044	22573
873.173	22459
873.303	22634
873.432	22535
873.561	22523
873.69	22398
873.819	22386
873.948	22478
874.077	22432
874.206	22360
874.335	22470
874.464	22611
874.593	22622
874.722	22554
874.851	22740
874.979	22679
875.108	22763
875.237	22607
875.365	22538
875.494	22736
875.623	22763
875.751	22729
875.88	22641
876.008	22767
876.136	22858
876.265	23010
876.393	23159
876.521	23094
876.65	23025
876.778	22965
876.906	22968
877.034	23018
877.162	23041
877.29	22999
877.418	23056
877.546	22942
877.674	22942
877.802	23094
877.93	22972
878.058	22892
878.185	22831
878.313	22896
878.441	22850
878.568	22919
878.696	22968
878.824	22835
878.951	23071
879.079	23185
879.206	23185
879.333	23193
879.461	23075
879.588	23098
879.715	23181
879.842	23368
879.97	23086
880.097	22824
880.224	22862
880.351	22847
880.478	22828
880.605	22896
880.732	22778
880.859	23071
880.986	22744
881.112	22934
881.239	22691
881.366	22546
881.493	22462
881.619	22466
881.746	22451
881.872	22421
881.999	22500
882.125	22413
882.252	22348
882.378	22299
882.505	22379
882.631	22219
882.757	21960
882.883	22158
883.01	22017
883.136	22067
883.262	21838
883.388	21865
883.514	22082
883.64	22063
883.766	21876
883.892	21907
884.018	21812
884.143	21998
884.269	22040
884.395	21728
884.52	21724
884.646	21789
884.772	21720
884.897	21568
885.023	21652
885.148	21819
885.274	21934
885.399	21671
885.524	21720
885.65	21652
885.775	21789
885.9	21686
886.025	21759
886.15	21762
886.275	21679
886.4	21545
886.525	21739
886.65	21561
886.775	21629
886.9	21743
887.025	21895
887.149	21728
887.274	21507
887.399	21504
887.523	21515
887.648	21420
887.773	21207
887.897	21511
888.021	21568
888.146	21511
888.27	21530
888.395	21477
888.519	21439
888.643	21443
888.767	21382
888.891	21351
889.015	21283
889.139	21329
889.263	21146
889.387	21329
889.511	21477
889.635	21367
889.759	21199
889.883	21336
890.006	21252
890.13	21370
890.254	21275
890.377	21176
890.501	21043
890.624	21032
890.748	20944
890.871	20948
890.995	20880
891.118	20762
891.241	20933
891.364	20868
891.488	20895
891.611	20769
891.734	20739
891.857	20937
891.98	20918
892.103	20849
892.226	20823
892.349	20678
892.471	20537
892.594	20678
892.717	20804
892.839	20678
892.962	20663
893.085	20720
893.207	20800
893.33	20659
893.452	20655
893.575	20842
893.697	20594
893.819	20845
893.941	20895
894.064	20811
894.186	20598
894.308	20636
894.43	20785
894.552	20826
894.674	20731
894.796	20568
894.918	20727
895.04	20731
895.161	20838
895.283	20758
895.405	20663
895.526	20712
895.648	20667
895.769	20689
895.891	20648
896.012	20811
896.134	20689
896.255	20644
896.376	20617
896.498	20785
896.619	20807
896.74	20720
896.861	20754
896.982	20906
897.103	21192
897.224	20887
897.345	21013
897.466	20887
897.587	20982
897.708	21032
897.828	20883
897.949	20815
898.07	20758
898.19	20765
898.311	20929
898.431	20887
898.552	20902
898.672	20967
898.792	20990
898.913	20910
899.033	20678
899.153	20746
899.273	20560
899.393	20705
899.513	20701
899.633	20720
899.753	20765
899.873	20571
899.993	20632
900.113	20598
900.232	20579
900.352	20480
900.472	20537
900.591	20374
900.711	20434
900.83	20320
900.95	20503
901.069	20503
901.189	20370
901.308	20111
901.427	19936
901.546	20058
901.665	19974
901.784	19890
901.904	19883
902.023	19822
902.141	19681
902.26	19510
902.379	19632
902.498	19628
902.617	19411
902.735	19559
902.854	19506
902.973	19449
903.091	19198
903.21	19175
903.328	19095
903.446	19091
903.565	18958
903.683	19015
903.801	18798
903.919	19004
904.038	18966
904.156	18764
904.274	18700
904.392	18711
904.51	18719
904.627	18642
904.745	18753
904.863	18787
904.981	18555
905.098	18338
905.216	18300
905.334	18422
905.451	18399
905.569	18308
905.686	18403
905.803	18330
905.921	18171
906.038	18296
906.155	18064
906.272	17988
906.389	17999
906.506	17954
906.623	17912
906.74	17961
906.857	17908
906.974	17821
907.091	17920
907.208	18072
907.324	17882
907.441	17824
907.557	17718
907.674	17764
907.79	17501
907.907	17585
908.023	17596
908.139	17604
908.256	17516
908.372	17551
908.488	17410
908.604	17410
908.72	17337
908.836	17417
908.952	17261
909.068	17299
909.184	17379
909.3	17292
909.415	17402
909.531	17326
909.647	17098
909.762	17041
909.878	16972
909.993	16911
910.108	17159
910.224	16984
910.339	17018
910.454	16854
910.57	16881
910.685	16752
910.8	17045
910.915	16942
911.03	16843
911.145	16717
911.259	16577
911.374	16603
911.489	16542
911.604	16478
911.718	16337
911.833	16440
911.947	16337
912.062	16230
912.176	16341
912.291	16508
912.405	16360
912.519	16622
912.633	16478
912.748	16382
912.862	16276
912.976	16192
913.09	16150
913.204	16109
913.318	16158
913.431	16322
913.545	16242
913.659	16238
913.772	16067
913.886	16036
914	15960
914.113	16036
914.226	16120
914.34	16017
914.453	15816
914.566	16021
914.68	15850
914.793	15804
914.906	15690
915.019	15530
915.132	15584
915.245	15496
915.358	15656
915.47	15557
915.583	15500
915.696	15523
915.809	15682
915.921	15675
916.034	15481
916.146	15386
916.259	15454
916.371	15507
916.483	15428
916.595	15332
916.708	15454
916.82	15329
916.932	15412
917.044	15348
917.156	15355
917.268	15195
917.38	15287
917.491	15260
917.603	15214
917.715	15241
917.826	15161
917.938	15230
918.049	15089
918.161	15180
918.272	15279
918.384	15249
918.495	15062
918.606	14941
918.717	15017
918.828	15013
918.939	14994
919.05	14838
919.161	14914
919.272	14750
919.383	14830
919.494	14975
919.604	15081
919.715	15005
919.826	14845
919.936	14830
920.047	15039
920.157	14891
920.267	15116
920.378	14853
920.488	14990
920.598	15074
920.708	15207
920.818	15070
920.928	14979
921.038	15230
921.148	15123
921.258	14933
921.368	14765
921.477	14613
921.587	14682
921.697	14484
921.806	14689
921.916	14537
922.025	14305
922.134	14294
922.244	14256
922.353	14301
922.462	14126
922.571	14100
922.68	13913
922.789	13841
922.898	14001
923.007	13944
923.116	13932
923.224	13849
923.333	13906
923.442	13723
923.55	13757
923.659	13769
923.767	13772
923.876	13704
923.984	13791
924.092	13624
924.201	13628
924.309	13704
924.417	13563
924.525	13571
924.633	13552
924.741	14381
924.849	13445
924.956	13639
925.064	13343
925.172	13194
925.279	13274
925.387	13339
925.494	13335
925.602	13426
925.709	13430
925.816	13221
925.924	13244
926.031	13396
926.138	13304
926.245	13346
926.352	13164
926.459	13297
926.566	13327
926.673	13175
926.779	13095
926.886	13126
926.993	12939
927.099	12844
927.206	12871
927.312	12791
927.419	12844
927.525	12848
927.631	12848
927.737	12741
927.843	12787
927.95	12608
928.056	12700
928.162	12681
928.267	12650
928.373	13270
928.479	12730
928.585	12544
928.69	12639
928.796	12677
928.901	12604
929.007	12399
929.112	12479
929.218	12536
929.323	12361
929.428	12334
929.533	12502
929.638	12304
929.743	12369
929.848	12422
929.953	12319
930.058	12213
930.163	12060
930.267	12095
930.372	12251
930.477	11999
930.581	12289
930.685	12121
930.79	12007
930.894	11935
930.998	12022
931.103	12026
931.207	11661
931.311	11627
931.415	11493
931.519	11383
931.623	11265
