Data from test_V78500241_1701.txt Node
Date: Fri Mar 25 15:53:35 CST 2022
User: usil
Spectrometer: V785-0024
Trigger mode: 0
Integration Time (sec): 4.000000E-1
Scans to average: 1
Nonlinearity correction enabled: false
Boxcar width: 0
Storing dark spectrum: false
XAxis mode: Wavelengths
Number of Pixels in Spectrum: 1024
>>>>>Begin Spectral Data<<<<<
801.071	28055
801.214	28032
801.356	27937
801.499	27797
801.641	27599
801.783	27652
801.926	27618
802.068	27591
802.211	27572
802.353	27534
802.496	27538
802.638	27226
802.78	27401
802.923	27199
803.065	27249
803.208	27146
803.35	27176
803.492	27412
803.635	27564
803.777	27291
803.919	27424
804.061	27842
804.204	27496
804.346	27439
804.488	27427
804.63	27614
804.773	27561
804.915	27545
805.057	27660
805.199	27458
805.341	27637
805.483	27481
805.626	27694
805.768	27568
805.91	27736
806.052	27637
806.194	27732
806.336	27842
806.478	27625
806.62	27553
806.762	27835
806.904	27911
807.046	28181
807.188	28215
807.33	28185
807.472	28204
807.614	27907
807.756	27956
807.898	27968
808.04	27869
808.182	28025
808.324	28029
808.465	27964
808.607	28356
808.749	28470
808.891	28493
809.033	28413
809.174	28443
809.316	28204
809.458	28341
809.6	28306
809.741	28367
809.883	28531
810.025	28645
810.166	28637
810.308	28443
810.45	28569
810.591	28660
810.733	28401
810.875	28390
811.016	28230
811.158	28204
811.299	28447
811.441	28497
811.582	28542
811.724	28447
811.865	28303
812.007	28291
812.148	28424
812.29	28409
812.431	28436
812.573	28527
812.714	28656
812.855	28873
812.997	28961
813.138	29022
813.279	28911
813.421	28908
813.562	28831
813.703	28634
813.845	28500
813.986	28333
814.127	28204
814.268	28120
814.41	28029
814.551	27998
814.692	28029
814.833	28067
814.974	28013
815.115	27972
815.256	27888
815.397	27953
815.539	28044
815.68	27736
815.821	27698
815.962	27895
816.103	27759
816.244	27648
816.385	27747
816.526	27739
816.666	27427
816.807	27237
816.948	27378
817.089	27443
817.23	27363
817.371	27279
817.512	27252
817.653	27386
817.793	27237
817.934	27298
818.075	27416
818.216	27298
818.356	27249
818.497	27066
818.638	27119
818.778	27051
818.919	27081
819.06	27176
819.2	27180
819.341	27332
819.481	27443
819.622	27523
819.762	27671
819.903	27606
820.043	27473
820.184	27431
820.324	27431
820.465	27576
820.605	27348
820.746	27519
820.886	27359
821.026	27336
821.167	27264
821.307	27530
821.447	27473
821.588	27287
821.728	27211
821.868	27005
822.008	26777
822.149	26773
822.289	26716
822.429	26511
822.569	26609
822.709	26499
822.849	26259
822.99	26355
823.13	26233
823.27	26339
823.41	26138
823.55	26020
823.69	26081
823.83	26145
823.97	26050
824.11	26031
824.25	25875
824.389	25993
824.529	25978
824.669	25811
824.809	26073
824.949	25906
825.089	26073
825.228	25989
825.368	25811
825.508	25818
825.648	25921
825.787	25890
825.927	25788
826.067	25811
826.206	25719
826.346	25856
826.485	25906
826.625	25887
826.765	25966
826.904	25852
827.044	25635
827.183	25567
827.323	25468
827.462	25712
827.601	25521
827.741	25491
827.88	25590
828.02	25453
828.159	25518
828.298	25472
828.437	25449
828.577	25495
828.716	25662
828.855	25529
828.994	25198
829.134	25247
829.273	25244
829.412	25343
829.551	25206
829.69	25004
829.829	25148
829.968	25350
830.107	25274
830.246	25160
830.385	25179
830.524	24932
830.663	25012
830.802	24894
830.941	24806
831.08	24753
831.219	24852
831.357	24753
831.496	25061
831.635	24837
831.774	24654
831.913	24681
832.051	24635
832.19	24608
832.329	24661
832.467	24589
832.606	24334
832.744	24395
832.883	24486
833.022	24414
833.16	24475
833.299	24696
833.437	24521
833.576	24464
833.714	24566
833.852	24639
833.991	24608
834.129	24604
834.267	24578
834.406	24551
834.544	24700
834.682	24585
834.821	24445
834.959	24734
835.097	24467
835.235	24688
835.373	24551
835.511	24429
835.65	24372
835.788	24365
835.926	24357
836.064	24353
836.202	24304
836.34	24361
836.478	24365
836.615	24273
836.753	24350
836.891	24445
837.029	24414
837.167	24243
837.305	24342
837.443	24186
837.58	24205
837.718	24285
837.856	24323
837.993	24076
838.131	24171
838.269	24125
838.406	24076
838.544	24038
838.681	23843
838.819	23897
838.956	23771
839.094	23707
839.231	23687
839.369	23779
839.506	24178
839.643	23980
839.781	23543
839.918	23699
840.055	23642
840.193	23554
840.33	23581
840.467	23589
840.604	23687
840.742	23984
840.879	23486
841.016	23539
841.153	23539
841.29	23737
841.427	23589
841.564	23642
841.701	23566
841.838	23627
841.975	23543
842.112	23512
842.249	23398
842.385	23539
842.522	23703
842.659	23459
842.796	23356
842.933	23429
843.069	23391
843.206	23318
843.343	23398
843.479	23334
843.616	23185
843.752	23109
843.889	23079
844.025	23280
844.162	23117
844.298	23132
844.435	23140
844.571	23136
844.708	23170
844.844	23121
844.98	23223
845.117	23102
845.253	23048
845.389	22923
845.525	23041
845.661	22976
845.798	22831
845.934	22866
846.07	22782
846.206	22881
846.342	22976
846.478	22866
846.614	22774
846.75	22459
846.886	22626
847.022	22687
847.158	22535
847.294	22565
847.429	22618
847.565	22698
847.701	22763
847.837	22291
847.972	22356
848.108	22382
848.244	22329
848.379	22310
848.515	22169
848.65	22158
848.786	22322
848.921	22177
849.057	22207
849.192	22230
849.328	22188
849.463	22204
849.598	22128
849.734	22143
849.869	22044
850.004	21945
850.14	21934
850.275	21892
850.41	22021
850.545	21918
850.68	21918
850.815	21873
850.95	21823
851.085	22059
851.22	22090
851.355	22013
851.49	21987
851.625	21960
851.76	22025
851.895	21789
852.03	21937
852.165	21960
852.299	22006
852.434	22120
852.569	21934
852.703	21945
852.838	21884
852.973	22059
853.107	22059
853.242	21842
853.376	21793
853.511	21701
853.645	21838
853.78	21842
853.914	21774
854.048	21766
854.183	21747
854.317	21846
854.451	21930
854.585	21778
854.72	21686
854.854	21876
854.988	21739
855.122	21789
855.256	21698
855.39	21724
855.524	21888
855.658	21812
855.792	21789
855.926	21770
856.06	21812
856.194	21781
856.327	21827
856.461	21720
856.595	21709
856.729	21785
856.862	21812
856.996	21861
857.13	21918
857.263	21838
857.397	21739
857.53	21713
857.664	21778
857.797	21800
857.931	21804
858.064	21701
858.197	21941
858.331	21785
858.464	21724
858.597	21728
858.731	21698
858.864	21762
858.997	21736
859.13	21747
859.263	21869
859.396	21720
859.529	21663
859.662	21675
859.795	21743
859.928	21755
860.061	21937
860.194	21838
860.327	21778
860.46	21778
860.592	21846
860.725	21850
860.858	21804
860.99	21823
861.123	21599
861.256	21823
861.388	21827
861.521	22519
861.653	21736
861.786	21583
861.918	21576
862.05	21774
862.183	21675
862.315	21789
862.447	21599
862.58	21785
862.712	21637
862.844	21572
862.976	21542
863.108	21500
863.24	21956
863.372	21447
863.504	21454
863.636	21530
863.768	21466
863.9	21507
864.032	21447
864.164	21431
864.296	21481
864.428	21595
864.559	21469
864.691	21572
864.823	21450
864.954	21488
865.086	21500
865.217	21382
865.349	21408
865.48	21310
865.612	21298
865.743	21485
865.875	21412
866.006	21279
866.137	21428
866.269	21325
866.4	21332
866.531	21325
866.662	21230
866.793	21173
866.924	21298
867.055	21294
867.186	21317
867.317	21340
867.448	21332
867.579	21252
867.71	21272
867.841	21138
867.972	21192
868.103	21279
868.233	21389
868.364	21329
868.495	21340
868.625	21488
868.756	21648
868.886	21450
869.017	21519
869.147	21557
869.278	21717
869.408	21504
869.539	21587
869.669	21568
869.799	21599
869.929	21671
870.06	21705
870.19	21945
870.32	21915
870.45	21873
870.58	21800
870.71	22013
870.84	22021
870.97	21968
871.1	21892
871.23	22036
871.36	22131
871.489	22017
871.619	22097
871.749	22177
871.879	22143
872.008	22109
872.138	22082
872.267	22192
872.397	21968
872.526	21949
872.656	21918
872.785	21956
872.915	22207
873.044	22265
873.173	22196
873.303	22196
873.432	22253
873.561	22238
873.69	22230
873.819	22196
873.948	22124
874.077	22188
874.206	22051
874.335	21979
874.464	22310
874.593	22512
874.722	22223
874.851	22405
874.979	22390
875.108	22390
875.237	22375
875.365	22230
875.494	22333
875.623	22440
875.751	22333
875.88	22466
876.008	22459
876.136	22557
876.265	22793
876.393	22850
876.521	22828
876.65	22774
876.778	22698
876.906	22725
877.034	22801
877.162	22626
877.29	22786
877.418	22717
877.546	22831
877.674	22713
877.802	22660
877.93	22630
878.058	22694
878.185	22603
878.313	22618
878.441	22668
878.568	22497
878.696	22656
878.824	22748
878.951	22831
879.079	22953
879.206	23041
879.333	22793
879.461	22702
879.588	22706
879.715	22797
879.842	22957
879.97	22809
880.097	22466
880.224	22557
880.351	22538
880.478	22527
880.605	22447
880.732	22557
880.859	22679
880.986	22622
881.112	22615
881.239	22443
881.366	22325
881.493	22295
881.619	22048
881.746	22181
881.872	22139
881.999	22101
882.125	22135
882.252	22112
882.378	22048
882.505	22211
882.631	21979
882.757	21762
882.883	21854
883.01	21785
883.136	21846
883.262	21660
883.388	21633
883.514	21842
883.64	21797
883.766	21736
883.892	21595
884.018	21625
884.143	21755
884.269	21998
884.395	21416
884.52	21359
884.646	21500
884.772	21370
884.897	21378
885.023	21462
885.148	21595
885.274	21652
885.399	21568
885.524	21439
885.65	21389
885.775	21348
885.9	21336
886.025	21564
886.15	21523
886.275	21332
886.4	21428
886.525	21340
886.65	21325
886.775	21329
886.9	21595
887.025	21644
887.149	21428
887.274	21252
887.399	21294
887.523	21161
887.648	21108
887.773	21138
887.897	21180
888.021	21199
888.146	21100
888.27	21329
888.395	21302
888.519	21207
888.643	21340
888.767	21332
888.891	21104
889.015	20963
889.139	21055
889.263	20933
889.387	21047
889.511	21169
889.635	21096
889.759	20857
889.883	20891
890.006	21036
890.13	21093
890.254	20998
890.377	20868
890.501	20697
890.624	20648
890.748	20807
890.871	20651
890.995	20450
891.118	20476
891.241	20621
891.364	20514
891.488	20731
891.611	20545
891.734	20560
891.857	20590
891.98	20465
892.103	20625
892.226	20514
892.349	20568
892.471	20461
892.594	20362
892.717	20556
892.839	20347
892.962	20438
893.085	20469
893.207	20537
893.33	20336
893.452	20431
893.575	20583
893.697	20484
893.819	20568
893.941	20693
894.064	20507
894.186	20370
894.308	20298
894.43	20533
894.552	20522
894.674	20541
894.796	20343
894.918	20351
895.04	20522
895.161	20522
895.283	20552
895.405	20404
895.526	20412
895.648	20438
895.769	20480
895.891	20469
896.012	20609
896.134	20415
896.255	20511
896.376	20351
896.498	20454
896.619	20480
896.74	20503
896.861	20446
896.982	20807
897.103	20982
897.224	20762
897.345	20758
897.466	20583
897.587	20625
897.708	20788
897.828	20682
897.949	20419
898.07	20469
898.19	20693
898.311	20781
898.431	20484
898.552	20716
898.672	20746
898.792	20739
898.913	20724
899.033	20484
899.153	20499
899.273	20320
899.393	20427
899.513	20484
899.633	20450
899.753	20480
899.873	20393
899.993	20423
900.113	20412
900.232	20450
900.352	20271
900.472	20313
900.591	20096
900.711	20320
900.83	20195
900.95	20259
901.069	20294
901.189	19955
901.308	19799
901.427	19670
901.546	19715
901.665	19681
901.784	19837
901.904	19529
902.023	19472
902.141	19335
902.26	19388
902.379	19377
902.498	19259
902.617	19118
902.735	19259
902.854	19114
902.973	19141
903.091	19000
903.21	18970
903.328	18871
903.446	18890
903.565	18779
903.683	18753
903.801	18589
903.919	18711
904.038	18661
904.156	18506
904.274	18551
904.392	18547
904.51	18486
904.627	18483
904.745	18494
904.863	18593
904.981	18266
905.098	18148
905.216	18239
905.334	18190
905.451	18205
905.569	18190
905.686	18311
905.803	18239
905.921	18026
906.038	18159
906.155	17996
906.272	17870
906.389	17927
906.506	17756
906.623	17790
906.74	17805
906.857	17665
906.974	17547
907.091	17809
907.208	17786
907.324	17714
907.441	17562
907.557	17417
907.674	17490
907.79	17322
907.907	17387
908.023	17383
908.139	17398
908.256	17364
908.372	17258
908.488	17197
908.604	17216
908.72	17155
908.836	17227
908.952	17064
909.068	17181
909.184	17216
909.3	17159
909.415	17166
909.531	17079
909.647	16824
909.762	16763
909.878	16782
909.993	16820
910.108	16694
910.224	16809
910.339	16835
910.454	16672
910.57	16660
910.685	16603
910.8	16862
910.915	16774
911.03	16592
911.145	16459
911.259	16462
911.374	16432
911.489	16360
911.604	16405
911.718	16082
911.833	16169
911.947	16078
912.062	16040
912.176	16188
912.291	16204
912.405	16177
912.519	16352
912.633	16325
912.748	16101
912.862	16124
912.976	15953
913.09	15880
913.204	15876
913.318	15998
913.431	16082
913.545	16006
913.659	16063
913.772	15949
913.886	15842
914	15785
914.113	15880
914.226	15884
914.34	15797
914.453	15682
914.566	15838
914.68	15576
914.793	15595
914.906	15447
915.019	15389
915.132	15302
915.245	15382
915.358	15302
915.47	15382
915.583	15329
915.696	15344
915.809	15485
915.921	15530
916.034	15313
916.146	15351
916.259	15264
916.371	15408
916.483	15332
916.595	15135
916.708	15135
916.82	15237
916.932	15165
917.044	15074
917.156	15123
917.268	14994
917.38	15020
917.491	14994
917.603	15001
917.715	15032
917.826	15104
917.938	15028
918.049	14815
918.161	15005
918.272	15104
918.384	15051
918.495	14906
918.606	14708
918.717	14758
918.828	14823
918.939	14845
919.05	14678
919.161	14750
919.272	14522
919.383	14617
919.494	14758
919.604	14963
919.715	14765
919.826	14610
919.936	14712
920.047	14811
920.157	14746
920.267	14864
920.378	14777
920.488	14716
920.598	14975
920.708	15070
920.818	14804
920.928	14883
921.038	14998
921.148	14952
921.258	14701
921.368	14640
921.477	14450
921.587	14362
921.697	14431
921.806	14507
921.916	14313
922.025	14237
922.134	14103
922.244	14062
922.353	14119
922.462	14039
922.571	13928
922.68	13795
922.789	13677
922.898	13677
923.007	13693
923.116	13723
923.224	13738
923.333	13689
923.442	13605
923.55	13552
923.659	13571
923.767	13559
923.876	13438
923.984	13571
924.092	13529
924.201	13449
924.309	13430
924.417	13483
924.525	13365
924.633	13373
924.741	14199
924.849	13202
924.956	13343
925.064	13266
925.172	13099
925.279	13137
925.387	13190
925.494	13133
925.602	13346
925.709	13175
925.816	13149
925.924	13137
926.031	13137
926.138	13012
926.245	13171
926.352	12954
926.459	13110
926.566	13118
926.673	13091
926.779	12859
926.886	12871
926.993	12806
927.099	12688
927.206	12772
927.312	12654
927.419	12741
927.525	12715
927.631	12745
927.737	12570
927.843	12532
927.95	12350
928.056	12464
928.162	12566
928.267	12555
928.373	13168
928.479	12677
928.585	12330
928.69	12540
928.796	12566
928.901	12289
929.007	12224
929.112	12395
929.218	12342
929.323	12266
929.428	12258
929.533	12369
929.638	12201
929.743	12239
929.848	12247
929.953	12220
930.058	12117
930.163	12049
930.267	11977
930.372	12117
930.477	11923
930.581	12129
930.685	11992
930.79	11779
930.894	11843
930.998	11748
931.103	11977
931.207	11604
931.311	11471
931.415	11353
931.519	11124
931.623	11132
