Data from test_V78500241_2638.txt Node
Date: Fri Mar 25 16:00:04 CST 2022
User: usil
Spectrometer: V785-0024
Trigger mode: 0
Integration Time (sec): 4.000000E-1
Scans to average: 1
Nonlinearity correction enabled: false
Boxcar width: 0
Storing dark spectrum: false
XAxis mode: Wavelengths
Number of Pixels in Spectrum: 1024
>>>>>Begin Spectral Data<<<<<
801.071	29003
801.214	28949
801.356	28729
801.499	28725
801.641	28721
801.783	28599
801.926	28698
802.068	28519
802.211	28519
802.353	28394
802.496	28356
802.638	28139
802.78	28234
802.923	28128
803.065	28082
803.208	28249
803.35	28367
803.492	28322
803.635	28512
803.777	28360
803.919	28542
804.061	28850
804.204	28428
804.346	28436
804.488	28470
804.63	28481
804.773	28531
804.915	28565
805.057	28744
805.199	28634
805.341	28459
805.483	28828
805.626	28752
805.768	28592
805.91	28740
806.052	28771
806.194	28744
806.336	28904
806.478	28767
806.62	28755
806.762	28850
806.904	28949
807.046	29208
807.188	29162
807.33	29090
807.472	29136
807.614	29223
807.756	29239
807.898	29086
808.04	28942
808.182	28991
808.324	29064
808.465	29079
808.607	29231
808.749	29345
808.891	29611
809.033	29604
809.174	29497
809.316	29516
809.458	29474
809.6	29360
809.741	29551
809.883	29425
810.025	29840
810.166	29615
810.308	29649
810.45	29672
810.591	29665
810.733	29372
810.875	29528
811.016	29375
811.158	29261
811.299	29554
811.441	29642
811.582	29547
811.724	29467
811.865	29512
812.007	29471
812.148	29383
812.29	29467
812.431	29512
812.573	29840
812.714	29862
812.855	30022
812.997	29965
813.138	30209
813.279	30053
813.421	29961
813.562	29908
813.703	29748
813.845	29619
813.986	29311
814.127	29204
814.268	29258
814.41	29105
814.551	29128
814.692	29235
814.833	29185
814.974	29204
815.115	29220
815.256	29075
815.397	28984
815.539	29056
815.68	28961
815.821	28858
815.962	28995
816.103	29022
816.244	28968
816.385	28908
816.526	28805
816.666	28596
816.807	28314
816.948	28630
817.089	28550
817.23	28565
817.371	28424
817.512	28561
817.653	28375
817.793	28398
817.934	28447
818.075	28474
818.216	28504
818.356	28432
818.497	28440
818.638	28223
818.778	28322
818.919	28261
819.06	28268
819.2	28363
819.341	28398
819.481	28394
819.622	28599
819.762	28748
819.903	28752
820.043	28710
820.184	28497
820.324	28634
820.465	28668
820.605	28664
820.746	28569
820.886	28504
821.026	28542
821.167	28573
821.307	28634
821.447	28611
821.588	28413
821.728	28261
821.868	28120
822.008	28002
822.149	27956
822.289	27892
822.429	27759
822.569	27603
822.709	27576
822.849	27530
822.99	27485
823.13	27412
823.27	27462
823.41	27355
823.55	27154
823.69	27241
823.83	27268
823.97	27146
824.11	27024
824.25	27055
824.389	27154
824.529	27169
824.669	27203
824.809	27275
824.949	27195
825.089	27203
825.228	27100
825.368	27169
825.508	27089
825.648	26979
825.787	27104
825.927	27058
826.067	26986
826.206	27032
826.346	27146
826.485	27157
826.625	26944
826.765	27062
826.904	27051
827.044	26849
827.183	26823
827.323	26750
827.462	26914
827.601	26754
827.741	26807
827.88	26659
828.02	26583
828.159	26765
828.298	26735
828.437	26743
828.577	26632
828.716	26746
828.855	26549
828.994	26446
829.134	26537
829.273	26533
829.412	26396
829.551	26343
829.69	26541
829.829	26393
829.968	26450
830.107	26541
830.246	26343
830.385	26381
830.524	26317
830.663	26111
830.802	26145
830.941	26001
831.08	25932
831.219	26035
831.357	26183
831.496	26164
831.635	26027
831.774	26046
831.913	25970
832.051	25811
832.19	25875
832.329	25807
832.467	25708
832.606	25689
832.744	25757
832.883	25582
833.022	25666
833.16	25715
833.299	25647
833.437	25582
833.576	25757
833.714	25818
833.852	25791
833.991	25807
834.129	25826
834.267	25917
834.406	25746
834.544	25830
834.682	25780
834.821	25757
834.959	25925
835.097	25639
835.235	25807
835.373	25696
835.511	25765
835.65	25586
835.788	25624
835.926	25499
836.064	25369
836.202	25403
836.34	25613
836.478	25784
836.615	25438
836.753	25578
836.891	25601
837.029	25609
837.167	25495
837.305	25278
837.443	25396
837.58	25422
837.718	25438
837.856	25460
837.993	25335
838.131	25377
838.269	25240
838.406	25346
838.544	25244
838.681	25084
838.819	25099
838.956	24871
839.094	24962
839.231	24814
839.369	24962
839.506	25343
839.643	25114
839.781	24867
839.918	24795
840.055	24825
840.193	24882
840.33	24829
840.467	24817
840.604	24875
840.742	24985
840.879	24597
841.016	24692
841.153	24665
841.29	24840
841.427	24688
841.564	24722
841.701	24795
841.838	24544
841.975	24631
842.112	24544
842.249	24551
842.385	24566
842.522	24833
842.659	24467
842.796	24570
842.933	24475
843.069	24365
843.206	24464
843.343	24479
843.479	24475
843.616	24422
843.752	24254
843.889	24361
844.025	24384
844.162	24235
844.298	24433
844.435	24365
844.571	24232
844.708	24281
844.844	24418
844.98	24323
845.117	24350
845.253	24319
845.389	24174
845.525	24174
845.661	24186
845.798	23969
845.934	24060
846.07	23916
846.206	23942
846.342	24186
846.478	23988
846.614	23798
846.75	23733
846.886	23843
847.022	23707
847.158	23741
847.294	23760
847.429	23604
847.565	23718
847.701	23954
847.837	23425
847.972	23471
848.108	23516
848.244	23551
848.379	23280
848.515	23444
848.65	23360
848.786	23376
848.921	23269
849.057	23414
849.192	23360
849.328	23455
849.463	23467
849.598	23398
849.734	23174
849.869	23086
850.004	23006
850.14	23143
850.275	23166
850.41	23117
850.545	23018
850.68	23155
850.815	23174
850.95	23140
851.085	23296
851.22	23311
851.355	23166
851.49	23018
851.625	23048
851.76	23121
851.895	22911
852.03	22873
852.165	23048
852.299	23178
852.434	23140
852.569	23102
852.703	22984
852.838	23067
852.973	23098
853.107	23079
853.242	22991
853.376	22957
853.511	22889
853.645	22835
853.78	23033
853.914	22869
854.048	22854
854.183	22919
854.317	22919
854.451	23022
854.585	22744
854.72	22755
854.854	22843
854.988	22915
855.122	22862
855.256	22873
855.39	22835
855.524	22999
855.658	22904
855.792	22809
855.926	22957
856.06	22965
856.194	22980
856.327	22736
856.461	22793
856.595	22911
856.729	22850
856.862	22976
856.996	22919
857.13	22942
857.263	22976
857.397	22953
857.53	22774
857.664	23010
857.797	23006
857.931	22946
858.064	22885
858.197	22930
858.331	22885
858.464	22786
858.597	22740
858.731	22790
858.864	22691
858.997	22771
859.13	22900
859.263	22946
859.396	22896
859.529	22949
859.662	22793
859.795	22839
859.928	22938
860.061	23067
860.194	23124
860.327	22953
860.46	22877
860.592	22919
860.725	23094
860.858	23041
860.99	22957
861.123	22702
861.256	22771
861.388	22847
861.521	23687
861.653	22774
861.786	22702
861.918	22672
862.05	22809
862.183	22805
862.315	22797
862.447	22938
862.58	22790
862.712	22668
862.844	22664
862.976	22706
863.108	22698
863.24	22953
863.372	22500
863.504	22656
863.636	22691
863.768	22622
863.9	22573
864.032	22550
864.164	22618
864.296	22637
864.428	22771
864.559	22767
864.691	22622
864.823	22653
864.954	22679
865.086	22447
865.217	22569
865.349	22363
865.48	22443
865.612	22500
865.743	22618
865.875	22588
866.006	22470
866.137	22390
866.269	22451
866.4	22447
866.531	22436
866.662	22280
866.793	22516
866.924	22360
867.055	22546
867.186	22428
867.317	22375
867.448	22310
867.579	22440
867.71	22291
867.841	22352
867.972	22367
868.103	22497
868.233	22466
868.364	22508
868.495	22417
868.625	22618
868.756	22653
868.886	22577
869.017	22607
869.147	22653
869.278	22748
869.408	22675
869.539	22611
869.669	22630
869.799	22702
869.929	22641
870.06	22820
870.19	22957
870.32	22938
870.45	22904
870.58	22965
870.71	23056
870.84	23140
870.97	23079
871.1	23140
871.23	23296
871.36	23296
871.489	23117
871.619	23124
871.749	23159
871.879	23265
872.008	23425
872.138	23166
872.267	23227
872.397	23166
872.526	23121
872.656	23136
872.785	23067
872.915	23315
873.044	23364
873.173	23155
873.303	23193
873.432	23292
873.561	23353
873.69	23299
873.819	23208
873.948	23440
874.077	23121
874.206	23159
874.335	23220
874.464	23429
874.593	23524
874.722	23349
874.851	23429
874.979	23421
875.108	23410
875.237	23406
875.365	23436
875.494	23242
875.623	23452
875.751	23383
875.88	23554
876.008	23832
876.136	23619
876.265	23790
876.393	24015
876.521	23805
876.65	23999
876.778	23790
876.906	23710
877.034	23653
877.162	23843
877.29	23767
877.418	23767
877.546	23939
877.674	23817
877.802	23745
877.93	23802
878.058	23927
878.185	23760
878.313	23771
878.441	23714
878.568	23710
878.696	23649
878.824	23790
878.951	23931
879.079	23920
879.206	24076
879.333	23893
879.461	23828
879.588	23969
879.715	23923
879.842	24079
879.97	23813
880.097	23695
880.224	23630
880.351	23668
880.478	23611
880.605	23474
880.732	23634
880.859	23984
880.986	23547
881.112	23687
881.239	23547
881.366	23417
881.493	23364
881.619	23124
881.746	23231
881.872	23223
881.999	23056
882.125	23147
882.252	23185
882.378	23094
882.505	23292
882.631	23056
882.757	22831
882.883	22908
883.01	22889
883.136	22843
883.262	22691
883.388	22702
883.514	22801
883.64	22877
883.766	22816
883.892	22596
884.018	22755
884.143	22805
884.269	22850
884.395	22565
884.52	22390
884.646	22455
884.772	22379
884.897	22455
885.023	22485
885.148	22481
885.274	22500
885.399	22497
885.524	22459
885.65	22599
885.775	22489
885.9	22398
886.025	22645
886.15	22584
886.275	22436
886.4	22455
886.525	22451
886.65	22390
886.775	22432
886.9	22542
887.025	22675
887.149	22417
887.274	22215
887.399	22280
887.523	22158
887.648	22135
887.773	22147
887.897	22230
888.021	22291
888.146	22219
888.27	22265
888.395	22280
888.519	22238
888.643	22265
888.767	22253
888.891	22090
889.015	21979
889.139	22006
889.263	21945
889.387	22120
889.511	22135
889.635	22086
889.759	22021
889.883	22044
890.006	21918
890.13	22078
890.254	21846
890.377	21880
890.501	21694
890.624	21774
890.748	21762
890.871	21724
890.995	21637
891.118	21443
891.241	21583
891.364	21572
891.488	21618
891.611	21648
891.734	21603
891.857	21667
891.98	21549
892.103	21637
892.226	21523
892.349	21458
892.471	21294
892.594	21416
892.717	21526
892.839	21397
892.962	21389
893.085	21469
893.207	21325
893.33	21348
893.452	21283
893.575	21530
893.697	21450
893.819	21660
893.941	21713
894.064	21504
894.186	21477
894.308	21348
894.43	21428
894.552	21507
894.674	21424
894.796	21226
894.918	21393
895.04	21439
895.161	21420
895.283	21408
895.405	21249
895.526	21401
895.648	21363
895.769	21466
895.891	21363
896.012	21587
896.134	21469
896.255	21492
896.376	21443
896.498	21462
896.619	21367
896.74	21378
896.861	21405
896.982	21717
897.103	21846
897.224	21720
897.345	21572
897.466	21603
897.587	21496
897.708	21694
897.828	21572
897.949	21488
898.07	21469
898.19	21549
898.311	21701
898.431	21504
898.552	21542
898.672	21545
898.792	21648
898.913	21542
899.033	21458
899.153	21348
899.273	21340
899.393	21340
899.513	21310
899.633	21332
899.753	21359
899.873	21180
899.993	21416
900.113	21207
900.232	21161
900.352	21165
900.472	21161
900.591	21024
900.711	21165
900.83	21001
900.95	21093
901.069	21195
901.189	20910
901.308	20788
901.427	20537
901.546	20667
901.665	20708
901.784	20583
901.904	20575
902.023	20408
902.141	20225
902.26	20161
902.379	20248
902.498	20199
902.617	20092
902.735	20233
902.854	20081
902.973	20069
903.091	19868
903.21	19811
903.328	19761
903.446	19746
903.565	19658
903.683	19540
903.801	19506
903.919	19529
904.038	19521
904.156	19457
904.274	19521
904.392	19346
904.51	19377
904.627	19362
904.745	19289
904.863	19392
904.981	19217
905.098	19072
905.216	19126
905.334	19000
905.451	19137
905.569	19004
905.686	18996
905.803	18913
905.921	18787
906.038	18871
906.155	18867
906.272	18764
906.389	18760
906.506	18426
906.623	18483
906.74	18517
906.857	18361
906.974	18456
907.091	18631
907.208	18696
907.324	18563
907.441	18372
907.557	18239
907.674	18342
907.79	18220
907.907	18292
908.023	18342
908.139	18258
908.256	18140
908.372	18167
908.488	18152
908.604	18053
908.72	17992
908.836	17927
908.952	18049
909.068	17931
909.184	18060
909.3	18019
909.415	17996
909.531	17954
909.647	17764
909.762	17665
909.878	17596
909.993	17714
910.108	17630
910.224	17520
910.339	17577
910.454	17433
910.57	17520
910.685	17376
910.8	17665
910.915	17474
911.03	17436
911.145	17376
911.259	17239
911.374	17250
911.489	17181
911.604	17132
911.718	17064
911.833	16953
911.947	16972
912.062	16892
912.176	16976
912.291	17006
912.405	16972
912.519	17159
912.633	17235
912.748	16987
912.862	16889
912.976	16869
913.09	16744
913.204	16816
913.318	16828
913.431	16923
913.545	16908
913.659	16949
913.772	16778
913.886	16641
914	16626
914.113	16767
914.226	16725
914.34	16672
914.453	16459
914.566	16622
914.68	16451
914.793	16371
914.906	16234
915.019	16177
915.132	16082
915.245	16139
915.358	16257
915.47	16261
915.583	16116
915.696	16128
915.809	16272
915.921	16303
916.034	16078
916.146	16006
916.259	16010
916.371	16223
916.483	16147
916.595	16002
916.708	15960
916.82	15956
916.932	15926
917.044	15850
917.156	15907
917.268	15778
917.38	15835
917.491	15800
917.603	15831
917.715	15797
917.826	16044
917.938	15671
918.049	15618
918.161	15675
918.272	15850
918.384	15800
918.495	15686
918.606	15466
918.717	15504
918.828	15622
918.939	15584
919.05	15469
919.161	15428
919.272	15283
919.383	15287
919.494	15576
919.604	15698
919.715	15492
919.826	15279
919.936	15416
920.047	15595
920.157	15397
920.267	15641
920.378	15477
920.488	15420
920.598	15660
920.708	15759
920.818	15675
920.928	15576
921.038	15747
921.148	15675
921.258	15504
921.368	15287
921.477	15161
921.587	15123
921.697	15131
921.806	15123
921.916	14982
922.025	14941
922.134	14788
922.244	14716
922.353	14910
922.462	14697
922.571	14648
922.68	14492
922.789	14396
922.898	14564
923.007	14396
923.116	14503
923.224	14495
923.333	14415
923.442	14282
923.55	14324
923.659	14240
923.767	14229
923.876	14202
923.984	14301
924.092	14183
924.201	14199
924.309	14126
924.417	14119
924.525	14050
924.633	14050
924.741	14944
924.849	13864
924.956	14035
925.064	13928
925.172	13833
925.279	13784
925.387	13788
925.494	13887
925.602	13860
925.709	13833
925.816	13712
925.924	13776
926.031	13738
926.138	13700
926.245	13731
926.352	13605
926.459	13765
926.566	13772
926.673	13605
926.779	13563
926.886	13464
926.993	13365
927.099	13384
927.206	13362
927.312	13217
927.419	13365
927.525	13304
927.631	13415
927.737	13236
927.843	13221
927.95	13099
928.056	13114
928.162	13221
928.267	13202
928.373	13757
928.479	13107
928.585	12970
928.69	13095
928.796	13255
928.901	12954
929.007	12859
929.112	13038
929.218	12981
929.323	12928
929.428	12852
929.533	12970
929.638	12817
929.743	12848
929.848	12867
929.953	12772
930.058	12673
930.163	12445
930.267	12566
930.372	12646
930.477	12547
930.581	12814
930.685	12536
930.79	12441
930.894	12391
930.998	12319
931.103	12490
931.207	12114
931.311	12030
931.415	11973
931.519	11828
931.623	11748
