Data from test_V78500241_718.txt Node
Date: Fri Mar 25 15:46:46 CST 2022
User: usil
Spectrometer: V785-0024
Trigger mode: 0
Integration Time (sec): 4.000000E-1
Scans to average: 1
Nonlinearity correction enabled: false
Boxcar width: 0
Storing dark spectrum: false
XAxis mode: Wavelengths
Number of Pixels in Spectrum: 1024
>>>>>Begin Spectral Data<<<<<
801.071	28002
801.214	27975
801.356	27641
801.499	27644
801.641	27580
801.783	27755
801.926	27648
802.068	27564
802.211	27564
802.353	27454
802.496	27199
802.638	27195
802.78	27249
802.923	27146
803.065	27214
803.208	27260
803.35	27393
803.492	27252
803.635	27321
803.777	27264
803.919	27519
804.061	27679
804.204	27500
804.346	27294
804.488	27386
804.63	27458
804.773	27370
804.915	27473
805.057	27705
805.199	27450
805.341	27386
805.483	27507
805.626	27500
805.768	27348
805.91	27591
806.052	27526
806.194	27427
806.336	27743
806.478	27599
806.62	27606
806.762	27679
806.904	27998
807.046	28147
807.188	27972
807.33	28044
807.472	28188
807.614	27819
807.756	27922
807.898	27850
808.04	27793
808.182	27823
808.324	27903
808.465	27918
808.607	28067
808.749	28257
808.891	28291
809.033	28451
809.174	28310
809.316	28158
809.458	28322
809.6	28204
809.741	28325
809.883	28405
810.025	28713
810.166	28508
810.308	28535
810.45	28512
810.591	28360
810.733	28272
810.875	28215
811.016	28082
811.158	28150
811.299	28280
811.441	28618
811.582	28462
811.724	28318
811.865	28207
812.007	28150
812.148	28284
812.29	28211
812.431	28295
812.573	28516
812.714	28721
812.855	28786
812.997	28812
813.138	29018
813.279	28797
813.421	28767
813.562	28656
813.703	28653
813.845	28573
813.986	28196
814.127	28086
814.268	27972
814.41	27884
814.551	27762
814.692	27953
814.833	27941
814.974	27979
815.115	28029
815.256	27804
815.397	27603
815.539	27873
815.68	27694
815.821	27675
815.962	27724
816.103	27732
816.244	27736
816.385	27427
816.526	27603
816.666	27351
816.807	27294
816.948	27302
817.089	27378
817.23	27291
817.371	27329
817.512	27302
817.653	27218
817.793	27188
817.934	27192
818.075	27359
818.216	27275
818.356	27047
818.497	27032
818.638	26826
818.778	27001
818.919	26918
819.06	26971
819.2	27013
819.341	27135
819.481	27195
819.622	27260
819.762	27454
819.903	27477
820.043	27443
820.184	27435
820.324	27348
820.465	27382
820.605	27302
820.746	27275
820.886	27214
821.026	27329
821.167	27264
821.307	27329
821.447	27279
821.588	27173
821.728	26952
821.868	26960
822.008	26826
822.149	26678
822.289	26777
822.429	26355
822.569	26415
822.709	26366
822.849	26195
822.99	26180
823.13	26084
823.27	26195
823.41	26016
823.55	26005
823.69	25883
823.83	26005
823.97	25986
824.11	25814
824.25	25765
824.389	25944
824.529	25947
824.669	25894
824.809	26043
824.949	25986
825.089	25982
825.228	25932
825.368	25731
825.508	25597
825.648	25769
825.787	25814
825.927	25818
826.067	25734
826.206	25651
826.346	25788
826.485	25818
826.625	25780
826.765	25738
826.904	25788
827.044	25506
827.183	25476
827.323	25331
827.462	25476
827.601	25449
827.741	25343
827.88	25525
828.02	25225
828.159	25251
828.298	25369
828.437	25521
828.577	25282
828.716	25544
828.855	25381
828.994	25129
829.134	25190
829.273	25156
829.412	25160
829.551	25118
829.69	25122
829.829	25194
829.968	25122
830.107	25175
830.246	25015
830.385	25198
830.524	25118
830.663	25065
830.802	24814
830.941	24760
831.08	24719
831.219	24779
831.357	24848
831.496	24920
831.635	24711
831.774	24692
831.913	24612
832.051	24551
832.19	24467
832.329	24498
832.467	24467
832.606	24391
832.744	24456
832.883	24361
833.022	24410
833.16	24388
833.299	24456
833.437	24437
833.576	24471
833.714	24517
833.852	24456
833.991	24384
834.129	24620
834.267	24532
834.406	24456
834.544	24582
834.682	24483
834.821	24426
834.959	24559
835.097	24376
835.235	24517
835.373	24418
835.511	24483
835.65	24429
835.788	24350
835.926	24148
836.064	24110
836.202	24182
836.34	24292
836.478	24467
836.615	24133
836.753	24216
836.891	24384
837.029	24372
837.167	24155
837.305	24213
837.443	24117
837.58	24205
837.718	24194
837.856	24220
837.993	23988
838.131	24083
838.269	23908
838.406	23965
838.544	23931
838.681	23828
838.819	23748
838.956	23638
839.094	23596
839.231	23737
839.369	23718
839.506	24018
839.643	23840
839.781	23581
839.918	23505
840.055	23741
840.193	23524
840.33	23554
840.467	23478
840.604	23642
840.742	23695
840.879	23474
841.016	23440
841.153	23421
841.29	23611
841.427	23512
841.564	23528
841.701	23535
841.838	23383
841.975	23452
842.112	23482
842.249	23360
842.385	23288
842.522	23497
842.659	23223
842.796	23292
842.933	23364
843.069	23239
843.206	23128
843.343	23265
843.479	23189
843.616	23353
843.752	22965
843.889	23105
844.025	23102
844.162	22999
844.298	23113
844.435	22965
844.571	22930
844.708	23094
844.844	23239
844.98	23220
845.117	23189
845.253	23037
845.389	22942
845.525	22927
845.661	22915
845.798	22835
845.934	22938
846.07	22683
846.206	22831
846.342	22812
846.478	22786
846.614	22649
846.75	22382
846.886	22447
847.022	22660
847.158	22485
847.294	22462
847.429	22531
847.565	22584
847.701	22683
847.837	22303
847.972	22166
848.108	22253
848.244	22318
848.379	22135
848.515	22204
848.65	22109
848.786	22116
848.921	22135
849.057	22093
849.192	22211
849.328	22166
849.463	22120
849.598	22063
849.734	21968
849.869	21941
850.004	21781
850.14	21964
850.275	21918
850.41	21804
850.545	21838
850.68	21880
850.815	21903
850.95	21781
851.085	21994
851.22	21880
851.355	21831
851.49	21797
851.625	21861
851.76	21812
851.895	21732
852.03	21869
852.165	21876
852.299	21941
852.434	22006
852.569	21778
852.703	21793
852.838	21937
852.973	22055
853.107	21975
853.242	21778
853.376	21690
853.511	21633
853.645	21724
853.78	21778
853.914	21793
854.048	21633
854.183	21679
854.317	21732
854.451	21827
854.585	21705
854.72	21671
854.854	21755
854.988	21587
855.122	21633
855.256	21660
855.39	21507
855.524	21728
855.658	21778
855.792	21633
855.926	21857
856.06	21789
856.194	21701
856.327	21637
856.461	21591
856.595	21595
856.729	21652
856.862	21808
856.996	21720
857.13	21724
857.263	21857
857.397	21816
857.53	21595
857.664	21717
857.797	21656
857.931	21739
858.064	21656
858.197	21781
858.331	21648
858.464	21728
858.597	21561
858.731	21545
858.864	21667
858.997	21648
859.13	21732
859.263	21690
859.396	21819
859.529	21705
859.662	21629
859.795	21762
859.928	21842
860.061	21812
860.194	21823
860.327	21759
860.46	21610
860.592	21816
860.725	21778
860.858	21831
860.99	21698
861.123	21614
861.256	21492
861.388	21682
861.521	22261
861.653	21519
861.786	21454
861.918	21485
862.05	21500
862.183	21603
862.315	21629
862.447	21698
862.58	21485
862.712	21336
862.844	21367
862.976	21534
863.108	21454
863.24	21880
863.372	21214
863.504	21317
863.636	21348
863.768	21447
863.9	21378
864.032	21291
864.164	21447
864.296	21370
864.428	21469
864.559	21351
864.691	21351
864.823	21401
864.954	21317
865.086	21348
865.217	21249
865.349	21245
865.48	21283
865.612	21298
865.743	21386
865.875	21260
866.006	21218
866.137	21283
866.269	21397
866.4	21264
866.531	21169
866.662	21165
866.793	21367
866.924	21127
867.055	21184
867.186	21214
867.317	21237
867.448	21222
867.579	21203
867.71	21211
867.841	21104
867.972	21138
868.103	21214
868.233	21355
868.364	21112
868.495	21214
868.625	21389
868.756	21603
868.886	21374
869.017	21420
869.147	21610
869.278	21606
869.408	21511
869.539	21462
869.669	21523
869.799	21431
869.929	21671
870.06	21682
870.19	21778
870.32	21724
870.45	21884
870.58	21835
870.71	21888
870.84	21812
870.97	21785
871.1	21880
871.23	22021
871.36	22109
871.489	21998
871.619	21968
871.749	22162
871.879	22059
872.008	22226
872.138	22063
872.267	22036
872.397	21994
872.526	21789
872.656	21869
872.785	21861
872.915	22109
873.044	22150
873.173	22082
873.303	22143
873.432	22188
873.561	22230
873.69	22090
873.819	22040
873.948	22169
874.077	22078
874.206	22116
874.335	22147
874.464	22139
874.593	22413
874.722	22325
874.851	22341
874.979	22462
875.108	22333
875.237	22242
875.365	22120
875.494	22169
875.623	22379
875.751	22291
875.88	22257
876.008	22295
876.136	22462
876.265	22626
876.393	22790
876.521	22744
876.65	22786
876.778	22653
876.906	22630
877.034	22615
877.162	22687
877.29	22687
877.418	22592
877.546	22752
877.674	22706
877.802	22599
877.93	22626
878.058	22637
878.185	22424
878.313	22603
878.441	22565
878.568	22371
878.696	22706
878.824	22698
878.951	22736
879.079	22831
879.206	23003
879.333	22759
879.461	22873
879.588	22660
879.715	22831
879.842	22900
879.97	22713
880.097	22550
880.224	22489
880.351	22436
880.478	22424
880.605	22394
880.732	22337
880.859	22649
880.986	22356
881.112	22459
881.239	22295
881.366	22242
881.493	22181
881.619	22128
881.746	22135
881.872	22090
881.999	21975
882.125	21998
882.252	22101
882.378	22051
882.505	22230
882.631	21934
882.757	21667
882.883	21717
883.01	21781
883.136	21618
883.262	21530
883.388	21599
883.514	21641
883.64	21751
883.766	21606
883.892	21603
884.018	21625
884.143	21686
884.269	21789
884.395	21344
884.52	21317
884.646	21279
884.772	21283
884.897	21218
885.023	21439
885.148	21507
885.274	21477
885.399	21481
885.524	21325
885.65	21298
885.775	21298
885.9	21317
886.025	21515
886.15	21412
886.275	21287
886.4	21283
886.525	21321
886.65	21192
886.775	21329
886.9	21561
887.025	21557
887.149	21420
887.274	21096
887.399	21074
887.523	21157
887.648	21127
887.773	21005
887.897	21108
888.021	21230
888.146	20975
888.27	21294
888.395	21127
888.519	21237
888.643	21154
888.767	21066
888.891	21116
889.015	20853
889.139	20921
889.263	20944
889.387	21096
889.511	21165
889.635	20971
889.759	20933
889.883	20914
890.006	20868
890.13	21112
890.254	20861
890.377	20758
890.501	20720
890.624	20484
890.748	20708
890.871	20609
890.995	20446
891.118	20374
891.241	20537
891.364	20484
891.488	20598
891.611	20457
891.734	20385
891.857	20530
891.98	20457
892.103	20507
892.226	20556
892.349	20336
892.471	20294
892.594	20419
892.717	20404
892.839	20412
892.962	20495
893.085	20495
893.207	20290
893.33	20259
893.452	20339
893.575	20396
893.697	20305
893.819	20545
893.941	20590
894.064	20568
894.186	20294
894.308	20218
894.43	20454
894.552	20438
894.674	20541
894.796	20275
894.918	20396
895.04	20336
895.161	20389
895.283	20423
895.405	20442
895.526	20366
895.648	20480
895.769	20351
895.891	20313
896.012	20419
896.134	20499
896.255	20404
896.376	20305
896.498	20332
896.619	20328
896.74	20419
896.861	20419
896.982	20712
897.103	20842
897.224	20640
897.345	20712
897.466	20640
897.587	20689
897.708	20659
897.828	20701
897.949	20530
898.07	20507
898.19	20545
898.311	20609
898.431	20651
898.552	20632
898.672	20648
898.792	20682
898.913	20651
899.033	20530
899.153	20309
899.273	20252
899.393	20358
899.513	20385
899.633	20362
899.753	20347
899.873	20256
899.993	20339
900.113	20206
900.232	20343
900.352	20210
900.472	20073
900.591	20100
900.711	20050
900.83	20008
900.95	20161
901.069	20263
901.189	20096
901.308	19761
901.427	19704
901.546	19643
901.665	19731
901.784	19609
901.904	19601
902.023	19457
902.141	19312
902.26	19194
902.379	19278
902.498	19145
902.617	19232
902.735	19278
902.854	19228
902.973	19065
903.091	18913
903.21	18886
903.328	18821
903.446	18814
903.565	18711
903.683	18715
903.801	18555
903.919	18650
904.038	18722
904.156	18426
904.274	18574
904.392	18448
904.51	18483
904.627	18327
904.745	18471
904.863	18388
904.981	18224
905.098	18152
905.216	18152
905.334	18201
905.451	18178
905.569	18026
905.686	18182
905.803	18114
905.921	17969
906.038	18072
906.155	17923
906.272	17836
906.389	17863
906.506	17680
906.623	17653
906.74	17627
906.857	17573
906.974	17608
907.091	17737
907.208	17771
907.324	17718
907.441	17539
907.557	17345
907.674	17372
907.79	17147
907.907	17341
908.023	17307
908.139	17421
908.256	17296
908.372	17315
908.488	17246
908.604	17071
908.72	17025
908.836	17098
908.952	17094
909.068	17037
909.184	17254
909.3	17075
909.415	17193
909.531	17067
909.647	16877
909.762	16805
909.878	16752
909.993	16786
910.108	16668
910.224	16645
910.339	16782
910.454	16683
910.57	16508
910.685	16542
910.8	16793
910.915	16736
911.03	16550
911.145	16443
911.259	16405
911.374	16390
911.489	16337
911.604	16150
911.718	16078
911.833	16131
911.947	15994
912.062	15991
912.176	16211
912.291	16135
912.405	16169
912.519	16265
912.633	16249
912.748	16128
912.862	16044
912.976	15998
913.09	15854
913.204	15865
913.318	15941
913.431	15918
913.545	15998
913.659	16078
913.772	15907
913.886	15770
914	15637
914.113	15766
914.226	15808
914.34	15759
914.453	15656
914.566	15705
914.68	15610
914.793	15564
914.906	15443
915.019	15393
915.132	15268
915.245	15310
915.358	15310
915.47	15370
915.583	15317
915.696	15405
915.809	15519
915.921	15386
916.034	15233
916.146	15211
916.259	15180
916.371	15268
916.483	15268
916.595	15089
916.708	15116
916.82	15066
916.932	15146
917.044	15135
917.156	15020
917.268	14891
917.38	14971
917.491	14868
917.603	15005
917.715	15081
917.826	14998
917.938	14857
918.049	14777
918.161	14876
918.272	15047
918.384	14944
918.495	14944
918.606	14777
918.717	14746
918.828	14796
918.939	14819
919.05	14610
919.161	14640
919.272	14541
919.383	14659
919.494	14769
919.604	14944
919.715	14663
919.826	14556
919.936	14571
920.047	14667
920.157	14735
920.267	14876
920.378	14686
920.488	14682
920.598	14895
920.708	14979
920.818	14792
920.928	14804
921.038	15020
921.148	14902
921.258	14621
921.368	14564
921.477	14434
921.587	14438
921.697	14351
921.806	14404
921.916	14195
922.025	14111
922.134	14115
922.244	14084
922.353	14191
922.462	14020
922.571	13906
922.68	13727
922.789	13708
922.898	13715
923.007	13609
923.116	13757
923.224	13712
923.333	13677
923.442	13658
923.55	13567
923.659	13491
923.767	13537
923.876	13556
923.984	13605
924.092	13419
924.201	13510
924.309	13514
924.417	13426
924.525	13346
924.633	13381
924.741	14412
924.849	13228
924.956	13354
925.064	13164
925.172	13152
925.279	13129
925.387	13137
925.494	13126
925.602	13308
925.709	13194
925.816	12989
925.924	13050
926.031	13187
926.138	12996
926.245	13076
926.352	13008
926.459	13133
926.566	13072
926.673	13004
926.779	12913
926.886	12966
926.993	12703
927.099	12760
927.206	12658
927.312	12589
927.419	12738
927.525	12722
927.631	12722
927.737	12597
927.843	12563
927.95	12433
928.056	12506
928.162	12551
928.267	12547
928.373	13133
928.479	12536
928.585	12395
928.69	12441
928.796	12540
928.901	12380
929.007	12216
929.112	12292
929.218	12300
929.323	12342
929.428	12209
929.533	12414
929.638	12155
929.743	12224
929.848	12285
929.953	12178
930.058	11942
930.163	12007
930.267	12030
930.372	12098
930.477	11866
930.581	12216
930.685	11977
930.79	11771
930.894	11809
930.998	11817
931.103	11961
931.207	11581
931.311	11452
931.415	11398
931.519	11162
931.623	11216
