Data from test_V78500241_3580.txt Node
Date: Fri Mar 25 16:06:36 CST 2022
User: usil
Spectrometer: V785-0024
Trigger mode: 0
Integration Time (sec): 4.000000E-1
Scans to average: 1
Nonlinearity correction enabled: false
Boxcar width: 0
Storing dark spectrum: false
XAxis mode: Wavelengths
Number of Pixels in Spectrum: 1024
>>>>>Begin Spectral Data<<<<<
801.071	28713
801.214	28740
801.356	28481
801.499	28394
801.641	28329
801.783	28390
801.926	28443
802.068	28478
802.211	28333
802.353	28192
802.496	28032
802.638	28078
802.78	27903
802.923	27991
803.065	27975
803.208	28070
803.35	28147
803.492	28333
803.635	28215
803.777	28044
803.919	28394
804.061	28523
804.204	28466
804.346	28173
804.488	28223
804.63	28261
804.773	28268
804.915	28276
805.057	28371
805.199	28173
805.341	28325
805.483	28443
805.626	28500
805.768	28348
805.91	28512
806.052	28523
806.194	28417
806.336	28668
806.478	28546
806.62	28440
806.762	28596
806.904	28790
807.046	28999
807.188	28881
807.33	28774
807.472	28957
807.614	28759
807.756	28801
807.898	28748
808.04	28641
808.182	28740
808.324	28820
808.465	28771
808.607	29189
808.749	29208
808.891	29303
809.033	29258
809.174	29216
809.316	29284
809.458	29235
809.6	29022
809.741	29261
809.883	29197
810.025	29364
810.166	29558
810.308	29528
810.45	29261
810.591	29318
810.733	29174
810.875	29147
811.016	29060
811.158	29083
811.299	29235
811.441	29261
811.582	29288
811.724	29109
811.865	29227
812.007	29204
812.148	29231
812.29	29086
812.431	29280
812.573	29512
812.714	29665
812.855	29783
812.997	29638
813.138	29878
813.279	29668
813.421	29710
813.562	29604
813.703	29474
813.845	29356
813.986	29132
814.127	28953
814.268	28778
814.41	28915
814.551	28835
814.692	28915
814.833	28858
814.974	28839
815.115	28850
815.256	28759
815.397	28767
815.539	28736
815.68	28847
815.821	28725
815.962	28687
816.103	28736
816.244	28599
816.385	28478
816.526	28493
816.666	28360
816.807	28112
816.948	28234
817.089	28443
817.23	28169
817.371	28204
817.512	28128
817.653	28162
817.793	28249
817.934	28173
818.075	28150
818.216	28299
818.356	28128
818.497	28261
818.638	27842
818.778	27892
818.919	28086
819.06	28070
819.2	28116
819.341	28223
819.481	28287
819.622	28367
819.762	28573
819.903	28398
820.043	28516
820.184	28360
820.324	28356
820.465	28325
820.605	28329
820.746	28253
820.886	28181
821.026	28215
821.167	28238
821.307	28352
821.447	28211
821.588	28124
821.728	27911
821.868	27850
822.008	27827
822.149	27618
822.289	27500
822.429	27302
822.569	27340
822.709	27424
822.849	27211
822.99	27074
823.13	27157
823.27	27233
823.41	27108
823.55	26861
823.69	27100
823.83	26944
823.97	27005
824.11	26807
824.25	26785
824.389	26800
824.529	26788
824.669	26735
824.809	26940
824.949	26925
825.089	26868
825.228	26929
825.368	26746
825.508	26705
825.648	26689
825.787	26754
825.927	26769
826.067	26708
826.206	26781
826.346	26834
826.485	26796
826.625	26682
826.765	26834
826.904	26773
827.044	26629
827.183	26431
827.323	26507
827.462	26533
827.601	26415
827.741	26457
827.88	26450
828.02	26377
828.159	26431
828.298	26415
828.437	26583
828.577	26328
828.716	26598
828.855	26358
828.994	26107
829.134	26176
829.273	26111
829.412	26084
829.551	26069
829.69	26130
829.829	26126
829.968	26233
830.107	26339
830.246	26153
830.385	26107
830.524	25978
830.663	25864
830.802	25856
830.941	25662
831.08	25746
831.219	25871
831.357	25769
831.496	25875
831.635	25651
831.774	25521
831.913	25578
832.051	25571
832.19	25571
832.329	25457
832.467	25445
832.606	25407
832.744	25449
832.883	25282
833.022	25396
833.16	25407
833.299	25403
833.437	25449
833.576	25373
833.714	25487
833.852	25605
833.991	25499
834.129	25556
834.267	25499
834.406	25487
834.544	25422
834.682	25339
834.821	25415
834.959	25666
835.097	25403
835.235	25495
835.373	25430
835.511	25544
835.65	25327
835.788	25282
835.926	25095
836.064	25103
836.202	25057
836.34	25373
836.478	25384
836.615	25339
836.753	25266
836.891	25510
837.029	25217
837.167	25228
837.305	25168
837.443	25061
837.58	25069
837.718	25240
837.856	25175
837.993	25057
838.131	25057
838.269	25114
838.406	25027
838.544	24821
838.681	24738
838.819	24787
838.956	24521
839.094	24547
839.231	24616
839.369	24753
839.506	24962
839.643	24890
839.781	24578
839.918	24471
840.055	24517
840.193	24494
840.33	24631
840.467	24563
840.604	24570
840.742	24753
840.879	24350
841.016	24399
841.153	24388
841.29	24464
841.427	24433
841.564	24464
841.701	24422
841.838	24437
841.975	24437
842.112	24464
842.249	24300
842.385	24232
842.522	24555
842.659	24380
842.796	24350
842.933	24220
843.069	24243
843.206	24194
843.343	24365
843.479	24262
843.616	24239
843.752	24011
843.889	24018
844.025	24083
844.162	24007
844.298	24213
844.435	24114
844.571	23958
844.708	23996
844.844	24064
844.98	24022
845.117	24235
845.253	23961
845.389	23847
845.525	23847
845.661	23958
845.798	23775
845.934	23817
846.07	23695
846.206	23737
846.342	23779
846.478	23745
846.614	23531
846.75	23531
846.886	23478
847.022	23452
847.158	23444
847.294	23433
847.429	23452
847.565	23315
847.701	23737
847.837	23193
847.972	23132
848.108	23379
848.244	23216
848.379	23185
848.515	23044
848.65	23090
848.786	23098
848.921	23022
849.057	23162
849.192	23155
849.328	23181
849.463	23006
849.598	22923
849.734	22930
849.869	22946
850.004	22824
850.14	22782
850.275	22949
850.41	22774
850.545	22668
850.68	22729
850.815	22942
850.95	22980
851.085	22961
851.22	22736
851.355	22904
851.49	22774
851.625	22767
851.76	22755
851.895	22812
852.03	22767
852.165	22790
852.299	22843
852.434	22847
852.569	22774
852.703	22904
852.838	22843
852.973	22984
853.107	22957
853.242	22771
853.376	22584
853.511	22428
853.645	22733
853.78	22691
853.914	22618
854.048	22584
854.183	22656
854.317	22622
854.451	22793
854.585	22634
854.72	22599
854.854	22668
854.988	22573
855.122	22668
855.256	22599
855.39	22649
855.524	22634
855.658	22660
855.792	22698
855.926	22634
856.06	22664
856.194	22702
856.327	22599
856.461	22580
856.595	22599
856.729	22649
856.862	22611
856.996	22459
857.13	22729
857.263	22767
857.397	22702
857.53	22645
857.664	22698
857.797	22771
857.931	22740
858.064	22622
858.197	22782
858.331	22637
858.464	22660
858.597	22508
858.731	22512
858.864	22637
858.997	22485
859.13	22771
859.263	22713
859.396	22725
859.529	22569
859.662	22565
859.795	22588
859.928	22500
860.061	22721
860.194	22778
860.327	22755
860.46	22752
860.592	22801
860.725	22721
860.858	22717
860.99	22672
861.123	22573
861.256	22599
861.388	22538
861.521	23425
861.653	22535
861.786	22398
861.918	22436
862.05	22474
862.183	22546
862.315	22683
862.447	22656
862.58	22542
862.712	22424
862.844	22230
862.976	22398
863.108	22356
863.24	22919
863.372	22257
863.504	22367
863.636	22417
863.768	22371
863.9	22306
864.032	22386
864.164	22219
864.296	22337
864.428	22398
864.559	22413
864.691	22314
864.823	22375
864.954	22322
865.086	22287
865.217	22295
865.349	22177
865.48	22067
865.612	22200
865.743	22322
865.875	22348
866.006	22147
866.137	22211
866.269	22211
866.4	22070
866.531	22124
866.662	22051
866.793	22219
866.924	22128
867.055	22249
867.186	22139
867.317	22249
867.448	22082
867.579	22101
867.71	22025
867.841	22067
867.972	22238
868.103	22120
868.233	22150
868.364	22162
868.495	22162
868.625	22337
868.756	22443
868.886	22363
869.017	22379
869.147	22500
869.278	22489
869.408	22386
869.539	22379
869.669	22538
869.799	22413
869.929	22504
870.06	22451
870.19	22660
870.32	22664
870.45	22729
870.58	22816
870.71	22873
870.84	22908
870.97	22774
871.1	22755
871.23	22896
871.36	22965
871.489	22923
871.619	22949
871.749	22984
871.879	22946
872.008	23083
872.138	22987
872.267	22927
872.397	22885
872.526	22968
872.656	22820
872.785	22873
872.915	22877
873.044	23117
873.173	22965
873.303	23037
873.432	23044
873.561	23083
873.69	23117
873.819	22965
873.948	23159
874.077	22995
874.206	22949
874.335	23083
874.464	23071
874.593	23239
874.722	23288
874.851	23227
874.979	23174
875.108	23421
875.237	23208
875.365	23067
875.494	23265
875.623	23189
875.751	23223
875.88	23250
876.008	23284
876.136	23398
876.265	23684
876.393	23627
876.521	23642
876.65	23748
876.778	23676
876.906	23585
877.034	23562
877.162	23516
877.29	23531
877.418	23570
877.546	23619
877.674	23474
877.802	23520
877.93	23653
878.058	23364
878.185	23467
878.313	23528
878.441	23592
878.568	23322
878.696	23512
878.824	23535
878.951	23668
879.079	23760
879.206	23726
879.333	23737
879.461	23509
879.588	23699
879.715	23619
879.842	23866
879.97	23687
880.097	23368
880.224	23364
880.351	23486
880.478	23387
880.605	23296
880.732	23436
880.859	23623
880.986	23535
881.112	23273
881.239	23136
881.366	23105
881.493	22957
881.619	22820
881.746	22991
881.872	23052
881.999	22843
882.125	22934
882.252	22877
882.378	22938
882.505	23018
882.631	22828
882.757	22672
882.883	22706
883.01	22641
883.136	22508
883.262	22577
883.388	22462
883.514	22653
883.64	22679
883.766	22493
883.892	22306
884.018	22474
884.143	22459
884.269	22561
884.395	22344
884.52	22246
884.646	22268
884.772	22207
884.897	22143
885.023	22230
885.148	22379
885.274	22386
885.399	22341
885.524	22242
885.65	22284
885.775	22223
885.9	22181
886.025	22421
886.15	22344
886.275	22200
886.4	22139
886.525	22284
886.65	22192
886.775	22021
886.9	22344
887.025	22424
887.149	22253
887.274	22025
887.399	22032
887.523	22051
887.648	21922
887.773	21888
887.897	22067
888.021	21964
888.146	21983
888.27	22188
888.395	22105
888.519	22078
888.643	22131
888.767	22021
888.891	21846
889.015	21899
889.139	21880
889.263	21808
889.387	21945
889.511	22036
889.635	21907
889.759	21861
889.883	21778
890.006	21800
890.13	21747
890.254	21610
890.377	21736
890.501	21599
890.624	21561
890.748	21660
890.871	21488
890.995	21378
891.118	21245
891.241	21359
891.364	21439
891.488	21382
891.611	21272
891.734	21370
891.857	21355
891.98	21374
892.103	21405
892.226	21325
892.349	21382
892.471	21074
892.594	21226
892.717	21329
892.839	21150
892.962	21233
893.085	21340
893.207	21230
893.33	21077
893.452	21230
893.575	21249
893.697	21146
893.819	21382
893.941	21405
894.064	21283
894.186	21127
894.308	21123
894.43	21348
894.552	21283
894.674	21306
894.796	21127
894.918	21161
895.04	21226
895.161	21302
895.283	21241
895.405	21184
895.526	21222
895.648	21150
895.769	21306
895.891	21367
896.012	21188
896.134	21294
896.255	21279
896.376	21104
896.498	21104
896.619	21291
896.74	21260
896.861	21241
896.982	21553
897.103	21747
897.224	21439
897.345	21397
897.466	21332
897.587	21389
897.708	21610
897.828	21523
897.949	21332
898.07	21161
898.19	21272
898.311	21519
898.431	21264
898.552	21435
898.672	21462
898.792	21401
898.913	21435
899.033	21237
899.153	21211
899.273	21066
899.393	21180
899.513	21138
899.633	21157
899.753	21093
899.873	21009
899.993	21199
900.113	21066
900.232	21138
900.352	21047
900.472	20941
900.591	20883
900.711	20986
900.83	20876
900.95	20990
901.069	20887
901.189	20750
901.308	20564
901.427	20434
901.546	20374
901.665	20488
901.784	20469
901.904	20347
902.023	20248
902.141	19978
902.26	20081
902.379	20157
902.498	20012
902.617	19837
902.735	19997
902.854	19864
902.973	19738
903.091	19696
903.21	19533
903.328	19635
903.446	19457
903.565	19457
903.683	19266
903.801	19400
903.919	19411
904.038	19263
904.156	19171
904.274	19236
904.392	19175
904.51	19137
904.627	19118
904.745	19209
904.863	19202
904.981	18939
905.098	18833
905.216	18787
905.334	18920
905.451	18901
905.569	18886
905.686	18848
905.803	18829
905.921	18521
906.038	18681
906.155	18681
906.272	18517
906.389	18521
906.506	18403
906.623	18292
906.74	18407
906.857	18239
906.974	18224
907.091	18376
907.208	18540
907.324	18388
907.441	18323
907.557	18110
907.674	18068
907.79	17958
907.907	18015
908.023	18102
908.139	18133
908.256	17965
908.372	17973
908.488	17969
908.604	17752
908.72	17710
908.836	17752
908.952	17665
909.068	17847
909.184	17958
909.3	17737
909.415	17824
909.531	17824
909.647	17554
909.762	17433
909.878	17436
909.993	17471
910.108	17448
910.224	17406
910.339	17372
910.454	17402
910.57	17265
910.685	17204
910.8	17452
910.915	17421
911.03	17277
911.145	17162
911.259	17105
911.374	17041
911.489	16968
911.604	16869
911.718	16733
911.833	16725
911.947	16736
912.062	16706
912.176	16847
912.291	16778
912.405	16702
912.519	16938
912.633	17018
912.748	16748
912.862	16725
912.976	16626
913.09	16474
913.204	16599
913.318	16542
913.431	16698
913.545	16588
913.659	16698
913.772	16542
913.886	16417
914	16424
914.113	16512
914.226	16611
914.34	16413
914.453	16192
914.566	16371
914.68	16344
914.793	16196
914.906	16135
915.019	16029
915.132	15892
915.245	15873
915.358	15930
915.47	15979
915.583	15953
915.696	15972
915.809	16006
915.921	16131
916.034	15979
916.146	15857
916.259	15827
916.371	15930
916.483	15880
916.595	15869
916.708	15804
916.82	15762
916.932	15663
917.044	15747
917.156	15675
917.268	15538
917.38	15648
917.491	15561
917.603	15534
917.715	15686
917.826	15732
917.938	15507
918.049	15420
918.161	15374
918.272	15698
918.384	15580
918.495	15496
918.606	15367
918.717	15264
918.828	15389
918.939	15405
919.05	15192
919.161	15233
919.272	15081
919.383	15165
919.494	15264
919.604	15523
919.715	15275
919.826	15192
919.936	15237
920.047	15370
920.157	15211
920.267	15507
920.378	15233
920.488	15252
920.598	15428
920.708	15591
920.818	15397
920.928	15424
921.038	15435
921.148	15466
921.258	15188
921.368	15173
921.477	15066
921.587	14963
921.697	14811
921.806	14982
921.916	14773
922.025	14731
922.134	14587
922.244	14537
922.353	14640
922.462	14541
922.571	14370
922.68	14328
922.789	14301
922.898	14309
923.007	14153
923.116	14286
923.224	14199
923.333	14214
923.442	14157
923.55	14103
923.659	14050
923.767	14126
923.876	14054
923.984	14084
924.092	14062
924.201	14046
924.309	13944
924.417	13955
924.525	13921
924.633	13959
924.741	14811
924.849	13620
924.956	13765
925.064	13708
925.172	13689
925.279	13681
925.387	13723
925.494	13601
925.602	13791
925.709	13609
925.816	13495
925.924	13624
926.031	13715
926.138	13499
926.245	13578
926.352	13529
926.459	13666
926.566	13708
926.673	13521
926.779	13419
926.886	13403
926.993	13175
927.099	13171
927.206	13137
927.312	13088
927.419	13259
927.525	13145
927.631	13133
927.737	13027
927.843	12993
927.95	12928
928.056	12996
928.162	12947
928.267	13080
928.373	13605
928.479	13042
928.585	12795
928.69	12890
928.796	12981
928.901	12844
929.007	12715
929.112	12814
929.218	12833
929.323	12719
929.428	12669
929.533	12878
929.638	12589
929.743	12707
929.848	12688
929.953	12730
930.058	12525
930.163	12350
930.267	12319
930.372	12490
930.477	12350
930.581	12494
930.685	12365
930.79	12232
930.894	12270
930.998	12163
931.103	12315
931.207	11996
931.311	11931
931.415	11802
931.519	11562
931.623	11592
