Data from test_V78500241_113.txt Node
Date: Fri Mar 25 15:42:35 CST 2022
User: usil
Spectrometer: V785-0024
Trigger mode: 0
Integration Time (sec): 4.000000E-1
Scans to average: 1
Nonlinearity correction enabled: false
Boxcar width: 0
Storing dark spectrum: false
XAxis mode: Wavelengths
Number of Pixels in Spectrum: 1024
>>>>>Begin Spectral Data<<<<<
801.071	29897
801.214	29927
801.356	29893
801.499	29653
801.641	29604
801.783	29509
801.926	29630
802.068	29509
802.211	29398
802.353	29444
802.496	29132
802.638	29166
802.78	29083
802.923	29048
803.065	28980
803.208	29113
803.35	29200
803.492	29360
803.635	29383
803.777	29235
803.919	29315
804.061	29524
804.204	29444
804.346	29254
804.488	29128
804.63	29322
804.773	29159
804.915	29379
805.057	29364
805.199	29136
805.341	29417
805.483	29421
805.626	29387
805.768	29410
805.91	29417
806.052	29490
806.194	29277
806.336	29627
806.478	29307
806.62	29410
806.762	29486
806.904	29421
807.046	29882
807.188	29916
807.33	29687
807.472	29771
807.614	29726
807.756	29707
807.898	29497
808.04	29619
808.182	29573
808.324	29710
808.465	29577
808.607	29646
808.749	29836
808.891	30022
809.033	30266
809.174	29950
809.316	29954
809.458	30053
809.6	29851
809.741	30060
809.883	29984
810.025	29977
810.166	30251
810.308	30213
810.45	30232
810.591	29992
810.733	29992
810.875	30022
811.016	30034
811.158	29783
811.299	30007
811.441	29992
811.582	30148
811.724	29752
811.865	29851
812.007	29805
812.148	29851
812.29	29961
812.431	30072
812.573	30201
812.714	30239
812.855	30418
812.997	30407
813.138	30563
813.279	30540
813.421	30422
813.562	30410
813.703	30232
813.845	30152
813.986	29695
814.127	29794
814.268	29482
814.41	29653
814.551	29570
814.692	29558
814.833	29478
814.974	29463
815.115	29497
815.256	29311
815.397	29288
815.539	29356
815.68	29239
815.821	29147
815.962	29239
816.103	29277
816.244	29060
816.385	28942
816.526	28923
816.666	28793
816.807	28668
816.948	28793
817.089	28748
817.23	28504
817.371	28733
817.512	28588
817.653	28550
817.793	28508
817.934	28706
818.075	28710
818.216	28649
818.356	28443
818.497	28459
818.638	28318
818.778	28363
818.919	28303
819.06	28379
819.2	28413
819.341	28599
819.481	28382
819.622	28786
819.762	28725
819.903	28824
820.043	28778
820.184	28710
820.324	28603
820.465	28759
820.605	28645
820.746	28713
820.886	28500
821.026	28592
821.167	28535
821.307	28565
821.447	28546
821.588	28451
821.728	28318
821.868	28063
822.008	27956
822.149	27953
822.289	27975
822.429	27622
822.569	27595
822.709	27698
822.849	27405
822.99	27378
823.13	27443
823.27	27332
823.41	27264
823.55	27131
823.69	27291
823.83	27207
823.97	27233
824.11	27047
824.25	27009
824.389	26952
824.529	27146
824.669	27005
824.809	27055
824.949	26963
825.089	27089
825.228	27062
825.368	26765
825.508	26830
825.648	26731
825.787	26872
825.927	26948
826.067	26625
826.206	26762
826.346	26868
826.485	26842
826.625	26838
826.765	26826
826.904	27062
827.044	26648
827.183	26514
827.323	26381
827.462	26461
827.601	26446
827.741	26412
827.88	26476
828.02	26366
828.159	26412
828.298	26438
828.437	26560
828.577	26366
828.716	26438
828.855	26259
828.994	26039
829.134	25993
829.273	26088
829.412	25974
829.551	26027
829.69	26031
829.829	26187
829.968	26073
830.107	26142
830.246	26191
830.385	26012
830.524	26024
830.663	25902
830.802	25761
830.941	25601
831.08	25753
831.219	25666
831.357	25704
831.496	25944
831.635	25578
831.774	25605
831.913	25445
832.051	25343
832.19	25457
832.329	25430
832.467	25369
832.606	25232
832.744	25285
832.883	25244
833.022	25266
833.16	25244
833.299	25285
833.437	25198
833.576	25297
833.714	25168
833.852	25312
833.991	25240
834.129	25316
834.267	25369
834.406	25350
834.544	25327
834.682	25301
834.821	25244
834.959	25316
835.097	25183
835.235	25228
835.373	25282
835.511	25217
835.65	25095
835.788	25050
835.926	24871
836.064	24753
836.202	24852
836.34	25095
836.478	25152
836.615	24894
836.753	25031
836.891	25194
837.029	24932
837.167	24958
837.305	24970
837.443	24981
837.58	24947
837.718	25000
837.856	24882
837.993	24783
838.131	24844
838.269	24692
838.406	24722
838.544	24521
838.681	24505
838.819	24525
838.956	24315
839.094	24273
839.231	24289
839.369	24513
839.506	24738
839.643	24391
839.781	24216
839.918	24072
840.055	24232
840.193	24228
840.33	24064
840.467	24174
840.604	24152
840.742	24460
840.879	23996
841.016	24117
841.153	23946
841.29	24277
841.427	24144
841.564	24194
841.701	24041
841.838	23939
841.975	23916
842.112	23897
842.249	23973
842.385	23802
842.522	24022
842.659	23939
842.796	23927
842.933	23756
843.069	23726
843.206	23714
843.343	23885
843.479	23790
843.616	23741
843.752	23551
843.889	23570
844.025	23668
844.162	23417
844.298	23577
844.435	23528
844.571	23387
844.708	23512
844.844	23737
844.98	23817
845.117	23695
845.253	23410
845.389	23398
845.525	23429
845.661	23398
845.798	23318
845.934	23212
846.07	23197
846.206	23208
846.342	23383
846.478	23197
846.614	23025
846.75	22984
846.886	23022
847.022	22999
847.158	22972
847.294	22980
847.429	22896
847.565	22843
847.701	23094
847.837	22656
847.972	22645
848.108	22850
848.244	22683
848.379	22470
848.515	22440
848.65	22508
848.786	22478
848.921	22588
849.057	22584
849.192	22557
849.328	22634
849.463	22603
849.598	22409
849.734	22371
849.869	22276
850.004	22234
850.14	22249
850.275	22226
850.41	22192
850.545	22265
850.68	22097
850.815	22314
850.95	22226
851.085	22310
851.22	22310
851.355	22223
851.49	22010
851.625	22070
851.76	22188
851.895	22067
852.03	22036
852.165	22044
852.299	22204
852.434	22215
852.569	22207
852.703	22044
852.838	22226
852.973	22287
853.107	22341
853.242	22166
853.376	21991
853.511	21793
853.645	21930
853.78	22032
853.914	22048
854.048	21941
854.183	22006
854.317	21846
854.451	22124
854.585	21968
854.72	22002
854.854	21926
854.988	21911
855.122	21941
855.256	21907
855.39	21964
855.524	21934
855.658	22044
855.792	21941
855.926	22044
856.06	21979
856.194	21972
856.327	21960
856.461	21880
856.595	21850
856.729	21998
856.862	22036
856.996	21968
857.13	22006
857.263	22051
857.397	22051
857.53	21991
857.664	22040
857.797	22036
857.931	22021
858.064	21953
858.197	22044
858.331	21975
858.464	21808
858.597	21762
858.731	22059
858.864	21884
858.997	21831
859.13	21895
859.263	21926
859.396	22032
859.529	21816
859.662	21861
859.795	21903
859.928	21827
860.061	22112
860.194	21998
860.327	21968
860.46	21766
860.592	22010
860.725	22162
860.858	21953
860.99	21781
861.123	21846
861.256	21793
861.388	21941
861.521	22390
861.653	21778
861.786	21671
861.918	21793
862.05	21819
862.183	21968
862.315	21804
862.447	21987
862.58	21956
862.712	21622
862.844	21732
862.976	21656
863.108	21709
863.24	21949
863.372	21568
863.504	21580
863.636	21488
863.768	21759
863.9	21641
864.032	21549
864.164	21526
864.296	21644
864.428	21618
864.559	21568
864.691	21728
864.823	21595
864.954	21519
865.086	21637
865.217	21466
865.349	21538
865.48	21439
865.612	21447
865.743	21568
865.875	21424
866.006	21386
866.137	21481
866.269	21439
866.4	21553
866.531	21408
866.662	21397
866.793	21336
866.924	21431
867.055	21370
867.186	21370
867.317	21344
867.448	21351
867.579	21313
867.71	21272
867.841	21275
867.972	21378
868.103	21370
868.233	21393
868.364	21256
868.495	21481
868.625	21557
868.756	21698
868.886	21450
869.017	21736
869.147	21690
869.278	21755
869.408	21679
869.539	21663
869.669	21701
869.799	21603
869.929	21572
870.06	21686
870.19	22029
870.32	21892
870.45	21937
870.58	21876
870.71	22067
870.84	22223
870.97	21956
871.1	21945
871.23	22139
871.36	22147
871.489	22223
871.619	22219
871.749	22116
871.879	22257
872.008	22360
872.138	22382
872.267	22200
872.397	22010
872.526	22101
872.656	21964
872.785	22067
872.915	22177
873.044	22306
873.173	22238
873.303	22287
873.432	22268
873.561	22253
873.69	22238
873.819	22242
873.948	22329
874.077	22303
874.206	22276
874.335	22272
874.464	22325
874.593	22519
874.722	22424
874.851	22470
874.979	22493
875.108	22584
875.237	22390
875.365	22474
875.494	22462
875.623	22573
875.751	22371
875.88	22485
876.008	22561
876.136	22596
876.265	22847
876.393	22911
876.521	22854
876.65	22835
876.778	22896
876.906	22736
877.034	22755
877.162	22900
877.29	22767
877.418	22664
877.546	22820
877.674	22843
877.802	22877
877.93	22786
878.058	22892
878.185	22675
878.313	22831
878.441	22862
878.568	22641
878.696	22828
878.824	22668
878.951	22793
879.079	23018
879.206	23006
879.333	22850
879.461	22820
879.588	22908
879.715	22881
879.842	23117
879.97	22896
880.097	22733
880.224	22596
880.351	22611
880.478	22584
880.605	22637
880.732	22550
880.859	22896
880.986	22592
881.112	22637
881.239	22622
881.366	22409
881.493	22379
881.619	22196
881.746	22253
881.872	22318
881.999	22059
882.125	22139
882.252	22147
882.378	22143
882.505	22295
882.631	22120
882.757	21869
882.883	21934
883.01	22017
883.136	21930
883.262	21720
883.388	21789
883.514	21945
883.64	22002
883.766	21854
883.892	21682
884.018	21816
884.143	21797
884.269	22036
884.395	21580
884.52	21496
884.646	21511
884.772	21462
884.897	21515
885.023	21542
885.148	21641
885.274	21827
885.399	21648
885.524	21553
885.65	21606
885.775	21614
885.9	21553
886.025	21637
886.15	21447
886.275	21458
886.4	21466
886.525	21462
886.65	21310
886.775	21515
886.9	21679
887.025	21622
887.149	21561
887.274	21363
887.399	21317
887.523	21252
887.648	21291
887.773	21135
887.897	21157
888.021	21291
888.146	21310
888.27	21317
888.395	21302
888.519	21256
888.643	21287
888.767	21329
888.891	21252
889.015	21051
889.139	21157
889.263	21024
889.387	21123
889.511	21150
889.635	21116
889.759	21127
889.883	20971
890.006	21104
890.13	21070
890.254	20971
890.377	20842
890.501	20800
890.624	20785
890.748	20895
890.871	20674
890.995	20651
891.118	20617
891.241	20522
891.364	20613
891.488	20720
891.611	20549
891.734	20560
891.857	20609
891.98	20492
892.103	20556
892.226	20526
892.349	20533
892.471	20495
892.594	20651
892.717	20381
892.839	20571
892.962	20461
893.085	20659
893.207	20480
893.33	20415
893.452	20415
893.575	20609
893.697	20419
893.819	20606
893.941	20724
894.064	20735
894.186	20393
894.308	20385
894.43	20465
894.552	20545
894.674	20549
894.796	20602
894.918	20461
895.04	20518
895.161	20522
895.283	20492
895.405	20427
895.526	20465
895.648	20530
895.769	20446
895.891	20514
896.012	20503
896.134	20552
896.255	20568
896.376	20495
896.498	20644
896.619	20625
896.74	20613
896.861	20674
896.982	20887
897.103	21116
897.224	20933
897.345	20842
897.466	20663
897.587	20682
897.708	20876
897.828	20762
897.949	20773
898.07	20606
898.19	20701
898.311	20845
898.431	20629
898.552	20739
898.672	20758
898.792	20769
898.913	20678
899.033	20636
899.153	20537
899.273	20419
899.393	20339
899.513	20438
899.633	20564
899.753	20317
899.873	20389
899.993	20385
900.113	20317
900.232	20317
900.352	20442
900.472	20271
900.591	20191
900.711	20100
900.83	20164
900.95	20301
901.069	20339
901.189	20111
901.308	19906
901.427	19826
901.546	19837
901.665	19772
901.784	19811
901.904	19658
902.023	19662
902.141	19369
902.26	19396
902.379	19354
902.498	19270
902.617	19247
902.735	19312
902.854	19278
902.973	19339
903.091	18935
903.21	18962
903.328	18890
903.446	18859
903.565	18798
903.683	18768
903.801	18593
903.919	18719
904.038	18684
904.156	18467
904.274	18604
904.392	18502
904.51	18471
904.627	18559
904.745	18528
904.863	18483
904.981	18273
905.098	18152
905.216	18079
905.334	18140
905.451	18114
905.569	18171
905.686	18186
905.803	18159
905.921	17923
906.038	18034
906.155	18064
906.272	17882
906.389	17882
906.506	17752
906.623	17646
906.74	17676
906.857	17497
906.974	17623
907.091	17684
907.208	17764
907.324	17695
907.441	17570
907.557	17425
907.674	17322
907.79	17250
907.907	17387
908.023	17440
908.139	17303
908.256	17288
908.372	17277
908.488	17147
908.604	17014
908.72	17071
908.836	17060
908.952	16976
909.068	17003
909.184	17067
909.3	17041
909.415	17033
909.531	16946
909.647	16607
909.762	16752
909.878	16710
909.993	16752
910.108	16725
910.224	16691
910.339	16626
910.454	16459
910.57	16516
910.685	16428
910.8	16713
910.915	16603
911.03	16516
911.145	16265
911.259	16291
911.374	16215
911.489	16230
911.604	16291
911.718	16044
911.833	16055
911.947	15991
912.062	15983
912.176	16090
912.291	16006
912.405	16040
912.519	16249
912.633	16284
912.748	16067
912.862	15960
912.976	15800
913.09	15595
913.204	15808
913.318	15857
913.431	15899
913.545	15838
913.659	15953
913.772	15854
913.886	15656
914	15572
914.113	15694
914.226	15724
914.34	15637
914.453	15542
914.566	15690
914.68	15488
914.793	15526
914.906	15351
915.019	15214
915.132	15195
915.245	15321
915.358	15211
915.47	15344
915.583	15218
915.696	15135
915.809	15325
915.921	15268
916.034	15135
916.146	15195
916.259	15127
916.371	15214
916.483	15135
916.595	15104
916.708	15047
916.82	15070
916.932	14960
917.044	15024
917.156	15093
917.268	14899
917.38	15001
917.491	14895
917.603	14864
917.715	14982
917.826	14944
917.938	14746
918.049	14693
918.161	14849
918.272	15009
918.384	14929
918.495	14781
918.606	14598
918.717	14484
918.828	14621
918.939	14625
919.05	14568
919.161	14518
919.272	14347
919.383	14408
919.494	14686
919.604	14777
919.715	14552
919.826	14400
919.936	14568
920.047	14655
920.157	14571
920.267	14693
920.378	14476
920.488	14465
920.598	14632
920.708	14724
920.818	14670
920.928	14640
921.038	14849
921.148	14853
921.258	14484
921.368	14423
921.477	14278
921.587	14256
921.697	14107
921.806	14202
921.916	14149
922.025	13955
922.134	13841
922.244	13780
922.353	13898
922.462	13791
922.571	13753
922.68	13582
922.789	13563
922.898	13533
923.007	13441
923.116	13480
923.224	13567
923.333	13400
923.442	13392
923.55	13377
923.659	13400
923.767	13365
923.876	13335
923.984	13430
924.092	13263
924.201	13327
924.309	13384
924.417	13301
924.525	13164
924.633	13156
924.741	14001
924.849	13008
924.956	13129
925.064	12916
925.172	12962
925.279	12970
925.387	13034
925.494	12985
925.602	13057
925.709	13015
925.816	12924
925.924	12947
926.031	13004
926.138	12863
926.245	12909
926.352	12863
926.459	12859
926.566	12947
926.673	12760
926.779	12684
926.886	12707
926.993	12544
927.099	12540
927.206	12471
927.312	12448
927.419	12620
927.525	12517
927.631	12437
927.737	12327
927.843	12407
927.95	12216
928.056	12388
928.162	12262
928.267	12391
928.373	13046
928.479	12315
928.585	12068
928.69	12281
928.796	12296
928.901	12251
929.007	12053
929.112	12224
929.218	12140
929.323	12121
929.428	11958
929.533	12175
929.638	11908
929.743	11958
929.848	11954
929.953	12015
930.058	11973
930.163	11703
930.267	11767
930.372	11882
930.477	11646
930.581	11965
930.685	11714
930.79	11608
930.894	11562
930.998	11558
931.103	11630
931.207	11372
931.311	11231
931.415	11254
931.519	10995
931.623	10900
