Data from test_V78500241_1269.txt Node
Date: Fri Mar 25 15:50:35 CST 2022
User: usil
Spectrometer: V785-0024
Trigger mode: 0
Integration Time (sec): 4.000000E-1
Scans to average: 1
Nonlinearity correction enabled: false
Boxcar width: 0
Storing dark spectrum: false
XAxis mode: Wavelengths
Number of Pixels in Spectrum: 1024
>>>>>Begin Spectral Data<<<<<
801.071	28919
801.214	28896
801.356	28645
801.499	28470
801.641	28546
801.783	28268
801.926	28497
802.068	28462
802.211	28413
802.353	28390
802.496	28219
802.638	28082
802.78	28242
802.923	28105
803.065	28086
803.208	28086
803.35	28143
803.492	28253
803.635	28287
803.777	28322
803.919	28451
804.061	28702
804.204	28409
804.346	28421
804.488	28261
804.63	28519
804.773	28265
804.915	28508
805.057	28607
805.199	28405
805.341	28447
805.483	28645
805.626	28398
805.768	28443
805.91	28630
806.052	28622
806.194	28550
806.336	28843
806.478	28519
806.62	28584
806.762	28748
806.904	28862
807.046	29037
807.188	29029
807.33	29083
807.472	29128
807.614	29014
807.756	29162
807.898	29075
808.04	28801
808.182	28812
808.324	28854
808.465	28908
808.607	29277
808.749	29197
808.891	29220
809.033	29436
809.174	29261
809.316	29140
809.458	29356
809.6	29318
809.741	29353
809.883	29528
810.025	29699
810.166	29577
810.308	29828
810.45	29531
810.591	29558
810.733	29349
810.875	29212
811.016	29178
811.158	29258
811.299	29524
811.441	29452
811.582	29512
811.724	29486
811.865	29185
812.007	29349
812.148	29258
812.29	29296
812.431	29520
812.573	29649
812.714	29813
812.855	29809
812.997	29878
813.138	30209
813.279	29942
813.421	29992
813.562	29760
813.703	29581
813.845	29551
813.986	29372
814.127	29151
814.268	29041
814.41	28984
814.551	29014
814.692	29060
814.833	28987
814.974	29140
815.115	29010
815.256	28862
815.397	28987
815.539	28942
815.68	28752
815.821	28797
815.962	28850
816.103	28953
816.244	28752
816.385	28687
816.526	28546
816.666	28481
816.807	28459
816.948	28390
817.089	28504
817.23	28417
817.371	28390
817.512	28474
817.653	28284
817.793	28329
817.934	28432
818.075	28360
818.216	28405
818.356	28390
818.497	28337
818.638	28131
818.778	28101
818.919	28048
819.06	28249
819.2	28310
819.341	28363
819.481	28344
819.622	28542
819.762	28767
819.903	28721
820.043	28512
820.184	28561
820.324	28352
820.465	28733
820.605	28660
820.746	28489
820.886	28303
821.026	28504
821.167	28527
821.307	28626
821.447	28417
821.588	28386
821.728	28177
821.868	28032
822.008	27964
822.149	27888
822.289	27850
822.429	27724
822.569	27606
822.709	27603
822.849	27427
822.99	27283
823.13	27408
823.27	27336
823.41	27249
823.55	27252
823.69	27283
823.83	27203
823.97	27211
824.11	27039
824.25	26876
824.389	27051
824.529	27146
824.669	27104
824.809	27207
824.949	27047
825.089	27119
825.228	27047
825.368	26933
825.508	26944
825.648	26857
825.787	26967
825.927	26940
826.067	27055
826.206	26940
826.346	26937
826.485	26948
826.625	27077
826.765	26956
826.904	26952
827.044	26743
827.183	26914
827.323	26480
827.462	26697
827.601	26735
827.741	26583
827.88	26594
828.02	26617
828.159	26674
828.298	26541
828.437	26788
828.577	26469
828.716	26686
828.855	26473
828.994	26343
829.134	26366
829.273	26377
829.412	26347
829.551	26336
829.69	26202
829.829	26412
829.968	26381
830.107	26374
830.246	26313
830.385	26377
830.524	26229
830.663	26157
830.802	26062
830.941	25909
831.08	25852
831.219	25928
831.357	25955
831.496	26183
831.635	25894
831.774	25849
831.913	25803
832.051	25830
832.19	25753
832.329	25689
832.467	25693
832.606	25521
832.744	25563
832.883	25681
833.022	25502
833.16	25590
833.299	25765
833.437	25479
833.576	25708
833.714	25639
833.852	25685
833.991	25674
834.129	25750
834.267	25772
834.406	25639
834.544	25681
834.682	25727
834.821	25689
834.959	25822
835.097	25548
835.235	25719
835.373	25635
835.511	25514
835.65	25563
835.788	25597
835.926	25434
836.064	25194
836.202	25343
836.34	25468
836.478	25506
836.615	25426
836.753	25548
836.891	25407
837.029	25514
837.167	25438
837.305	25457
837.443	25304
837.58	25312
837.718	25308
837.856	25392
837.993	25148
838.131	25365
838.269	25129
838.406	25160
838.544	25175
838.681	24970
838.819	24909
838.956	24806
839.094	24734
839.231	24787
839.369	24924
839.506	25217
839.643	25065
839.781	24738
839.918	24772
840.055	24783
840.193	24650
840.33	24654
840.467	24703
840.604	24810
840.742	24970
840.879	24426
841.016	24642
841.153	24540
841.29	24707
841.427	24563
841.564	24623
841.701	24551
841.838	24776
841.975	24582
842.112	24658
842.249	24452
842.385	24448
842.522	24597
842.659	24471
842.796	24498
842.933	24418
843.069	24475
843.206	24445
843.343	24448
843.479	24369
843.616	24426
843.752	24136
843.889	24205
844.025	24308
844.162	24296
844.298	24296
844.435	24186
844.571	24152
844.708	24353
844.844	24300
844.98	24258
845.117	24384
845.253	24091
845.389	23980
845.525	24152
845.661	24087
845.798	23988
845.934	24072
846.07	23847
846.206	24030
846.342	24072
846.478	23863
846.614	23676
846.75	23661
846.886	23615
847.022	23756
847.158	23684
847.294	23733
847.429	23592
847.565	23680
847.701	23904
847.837	23315
847.972	23311
848.108	23455
848.244	23372
848.379	23307
848.515	23235
848.65	23220
848.786	23284
848.921	23277
849.057	23349
849.192	23261
849.328	23223
849.463	23212
849.598	23178
849.734	23185
849.869	22942
850.004	23003
850.14	23025
850.275	22984
850.41	22961
850.545	22915
850.68	22927
850.815	23052
850.95	22911
851.085	23098
851.22	23067
851.355	23010
851.49	22980
851.625	22984
851.76	22942
851.895	22858
852.03	22896
852.165	23048
852.299	23064
852.434	23102
852.569	22965
852.703	23102
852.838	22930
852.973	23136
853.107	23189
853.242	22957
853.376	22793
853.511	22687
853.645	22805
853.78	22942
853.914	22869
854.048	22672
854.183	22839
854.317	22915
854.451	22972
854.585	22892
854.72	22809
854.854	22733
854.988	22820
855.122	22812
855.256	22687
855.39	22687
855.524	22805
855.658	22767
855.792	22877
855.926	22904
856.06	22904
856.194	22885
856.327	22850
856.461	22721
856.595	22691
856.729	22782
856.862	22839
856.996	22816
857.13	22733
857.263	22866
857.397	22965
857.53	22672
857.664	22866
857.797	22900
857.931	22877
858.064	22736
858.197	23048
858.331	22790
858.464	22725
858.597	22786
858.731	22801
858.864	22820
858.997	22729
859.13	22767
859.263	22752
859.396	22801
859.529	22569
859.662	22820
859.795	22778
859.928	22793
860.061	23052
860.194	23071
860.327	22835
860.46	22850
860.592	22752
860.725	22816
860.858	22938
860.99	22843
861.123	22717
861.256	22634
861.388	22702
861.521	23455
861.653	22740
861.786	22622
861.918	22592
862.05	22778
862.183	22706
862.315	22763
862.447	22748
862.58	22812
862.712	22664
862.844	22462
862.976	22641
863.108	22466
863.24	22919
863.372	22447
863.504	22493
863.636	22485
863.768	22504
863.9	22500
864.032	22310
864.164	22413
864.296	22580
864.428	22588
864.559	22561
864.691	22573
864.823	22519
864.954	22489
865.086	22596
865.217	22447
865.349	22169
865.48	22440
865.612	22322
865.743	22523
865.875	22337
866.006	22325
866.137	22440
866.269	22360
866.4	22314
866.531	22459
866.662	22272
866.793	22325
866.924	22318
867.055	22303
867.186	22291
867.317	22207
867.448	22257
867.579	22329
867.71	22238
867.841	22249
867.972	22363
868.103	22207
868.233	22287
868.364	22398
868.495	22455
868.625	22626
868.756	22626
868.886	22352
869.017	22561
869.147	22607
869.278	22573
869.408	22569
869.539	22538
869.669	22596
869.799	22603
869.929	22656
870.06	22584
870.19	22824
870.32	22866
870.45	22961
870.58	22995
870.71	23029
870.84	23166
870.97	22934
871.1	22938
871.23	23075
871.36	23075
871.489	23086
871.619	23117
871.749	23094
871.879	23189
872.008	23379
872.138	23162
872.267	23288
872.397	23003
872.526	22896
872.656	22972
872.785	22961
872.915	23204
873.044	23159
873.173	23105
873.303	23220
873.432	23155
873.561	23318
873.69	23140
873.819	23159
873.948	23185
874.077	23231
874.206	23056
874.335	23296
874.464	23261
874.593	23391
874.722	23337
874.851	23379
874.979	23414
875.108	23368
875.237	23307
875.365	23136
875.494	23223
875.623	23402
875.751	23124
875.88	23372
876.008	23459
876.136	23554
876.265	23722
876.393	23863
876.521	23760
876.65	23707
876.778	23851
876.906	23634
877.034	23710
877.162	23535
877.29	23627
877.418	23786
877.546	23779
877.674	23630
877.802	23672
877.93	23623
878.058	23642
878.185	23512
878.313	23566
878.441	23630
878.568	23501
878.696	23570
878.824	23649
878.951	23661
879.079	23817
879.206	23977
879.333	23771
879.461	23775
879.588	23824
879.715	23668
879.842	23885
879.97	23870
880.097	23649
880.224	23547
880.351	23497
880.478	23417
880.605	23471
880.732	23490
880.859	23630
880.986	23577
881.112	23608
881.239	23353
881.366	23052
881.493	23189
881.619	23071
881.746	23010
881.872	23071
881.999	23006
882.125	23014
882.252	23166
882.378	23037
882.505	23098
882.631	22908
882.757	22805
882.883	22786
883.01	22729
883.136	22771
883.262	22577
883.388	22694
883.514	22702
883.64	22763
883.766	22622
883.892	22436
884.018	22592
884.143	22660
884.269	22725
884.395	22508
884.52	22310
884.646	22367
884.772	22303
884.897	22299
885.023	22390
885.148	22398
885.274	22455
885.399	22531
885.524	22306
885.65	22352
885.775	22428
885.9	22367
886.025	22580
886.15	22394
886.275	22272
886.4	22367
886.525	22325
886.65	22223
886.775	22284
886.9	22409
887.025	22508
887.149	22188
887.274	22150
887.399	22067
887.523	22070
887.648	21941
887.773	22109
887.897	22196
888.021	22230
888.146	22048
888.27	22280
888.395	22238
888.519	22120
888.643	22177
888.767	22124
888.891	22055
889.015	21880
889.139	21972
889.263	21797
889.387	22101
889.511	22154
889.635	21979
889.759	21850
889.883	22029
890.006	21888
890.13	22059
890.254	21789
890.377	21770
890.501	21564
890.624	21583
890.748	21633
890.871	21545
890.995	21389
891.118	21370
891.241	21428
891.364	21435
891.488	21447
891.611	21355
891.734	21355
891.857	21443
891.98	21450
892.103	21568
892.226	21386
892.349	21382
892.471	21401
892.594	21363
892.717	21363
892.839	21287
892.962	21473
893.085	21447
893.207	21272
893.33	21161
893.452	21237
893.575	21340
893.697	21298
893.819	21583
893.941	21523
894.064	21572
894.186	21287
894.308	21249
894.43	21306
894.552	21412
894.674	21507
894.796	21146
894.918	21199
895.04	21230
895.161	21310
895.283	21336
895.405	21298
895.526	21317
895.648	21294
895.769	21344
895.891	21287
896.012	21355
896.134	21389
896.255	21382
896.376	21313
896.498	21351
896.619	21241
896.74	21230
896.861	21416
896.982	21644
897.103	21884
897.224	21485
897.345	21488
897.466	21450
897.587	21622
897.708	21652
897.828	21622
897.949	21439
898.07	21222
898.19	21401
898.311	21641
898.431	21401
898.552	21420
898.672	21576
898.792	21443
898.913	21477
899.033	21294
899.153	21291
899.273	21127
899.393	21192
899.513	21260
899.633	21252
899.753	21207
899.873	21154
899.993	21211
900.113	21199
900.232	21093
900.352	21131
900.472	21024
900.591	20883
900.711	21039
900.83	20895
900.95	21032
901.069	21207
901.189	20838
901.308	20587
901.427	20602
901.546	20560
901.665	20522
901.784	20385
901.904	20404
902.023	20381
902.141	20077
902.26	20077
902.379	20187
902.498	20008
902.617	19928
902.735	20081
902.854	20016
902.973	19932
903.091	19715
903.21	19693
903.328	19715
903.446	19571
903.565	19483
903.683	19495
903.801	19350
903.919	19495
904.038	19499
904.156	19232
904.274	19453
904.392	19297
904.51	19217
904.627	19213
904.745	19308
904.863	19213
904.981	18958
905.098	18985
905.216	18901
905.334	18989
905.451	18939
905.569	18973
905.686	18951
905.803	18962
905.921	18779
906.038	18776
906.155	18757
906.272	18688
906.389	18692
906.506	18365
906.623	18418
906.74	18452
906.857	18315
906.974	18369
907.091	18502
907.208	18623
907.324	18498
907.441	18426
907.557	18171
907.674	18163
907.79	18136
907.907	18136
908.023	18163
908.139	18038
908.256	18155
908.372	17954
908.488	17927
908.604	17908
908.72	17809
908.836	17786
908.952	17809
909.068	17927
909.184	17859
909.3	17889
909.415	17775
909.531	17863
909.647	17634
909.762	17539
909.878	17516
909.993	17668
910.108	17547
910.224	17573
910.339	17592
910.454	17452
910.57	17383
910.685	17315
910.8	17566
910.915	17459
911.03	17379
911.145	17261
911.259	17083
911.374	17166
911.489	17086
911.604	17071
911.718	16797
911.833	16892
911.947	16820
912.062	16786
912.176	16892
912.291	16968
912.405	16839
912.519	17124
912.633	17090
912.748	16915
912.862	16797
912.976	16702
913.09	16599
913.204	16706
913.318	16767
913.431	16755
913.545	16713
913.659	16759
913.772	16630
913.886	16500
914	16535
914.113	16565
914.226	16641
914.34	16596
914.453	16356
914.566	16500
914.68	16318
914.793	16188
914.906	16093
915.019	16071
915.132	16082
915.245	15960
915.358	16067
915.47	16078
915.583	16055
915.696	16036
915.809	16192
915.921	16101
916.034	15968
916.146	15960
916.259	15884
916.371	15949
916.483	16036
916.595	15884
916.708	15846
916.82	15816
916.932	15846
917.044	15785
917.156	15690
917.268	15656
917.38	15762
917.491	15679
917.603	15660
917.715	15739
917.826	15705
917.938	15622
918.049	15515
918.161	15599
918.272	15667
918.384	15774
918.495	15492
918.606	15424
918.717	15397
918.828	15386
918.939	15389
919.05	15302
919.161	15332
919.272	15070
919.383	15287
919.494	15450
919.604	15576
919.715	15393
919.826	15264
919.936	15420
920.047	15439
920.157	15363
920.267	15519
920.378	15412
920.488	15272
920.598	15568
920.708	15622
920.818	15485
920.928	15469
921.038	15648
921.148	15515
921.258	15214
921.368	15157
921.477	15192
921.587	15051
921.697	14982
921.806	15043
921.916	14933
922.025	14705
922.134	14781
922.244	14708
922.353	14765
922.462	14594
922.571	14556
922.68	14434
922.789	14423
922.898	14358
923.007	14408
923.116	14355
923.224	14332
923.333	14290
923.442	14202
923.55	14138
923.659	14195
923.767	14111
923.876	14142
923.984	14168
924.092	14062
924.201	14130
924.309	14084
924.417	14069
924.525	13883
924.633	13963
924.741	14895
924.849	13807
924.956	13925
925.064	13750
925.172	13708
925.279	13765
925.387	13715
925.494	13651
925.602	13689
925.709	13677
925.816	13563
925.924	13616
926.031	13761
926.138	13567
926.245	13662
926.352	13567
926.459	13685
926.566	13655
926.673	13575
926.779	13441
926.886	13365
926.993	13350
927.099	13228
927.206	13194
927.312	13263
927.419	13282
927.525	13171
927.631	13278
927.737	13080
927.843	13053
927.95	12993
928.056	13076
928.162	13057
928.267	13103
928.373	13746
928.479	13023
928.585	12920
928.69	12993
928.796	13012
928.901	12954
929.007	12844
929.112	12943
929.218	12776
929.323	12814
929.428	12722
929.533	12859
929.638	12722
929.743	12764
929.848	12817
929.953	12715
930.058	12582
930.163	12517
930.267	12441
930.372	12551
930.477	12376
930.581	12608
930.685	12509
930.79	12296
930.894	12361
930.998	12251
931.103	12418
931.207	12076
931.311	11946
931.415	11901
931.519	11714
931.623	11653
