Data from test_V78500241_2665.txt Node
Date: Fri Mar 25 16:00:15 CST 2022
User: usil
Spectrometer: V785-0024
Trigger mode: 0
Integration Time (sec): 4.000000E-1
Scans to average: 1
Nonlinearity correction enabled: false
Boxcar width: 0
Storing dark spectrum: false
XAxis mode: Wavelengths
Number of Pixels in Spectrum: 1024
>>>>>Begin Spectral Data<<<<<
801.071	28961
801.214	28949
801.356	28698
801.499	28691
801.641	28382
801.783	28401
801.926	28584
802.068	28470
802.211	28386
802.353	28489
802.496	28211
802.638	28200
802.78	28128
802.923	28196
803.065	28021
803.208	28105
803.35	28242
803.492	28318
803.635	28432
803.777	28295
803.919	28561
804.061	28805
804.204	28436
804.346	28470
804.488	28363
804.63	28565
804.773	28466
804.915	28478
805.057	28626
805.199	28512
805.341	28584
805.483	28546
805.626	28489
805.768	28474
805.91	28611
806.052	28656
806.194	28443
806.336	28755
806.478	28744
806.62	28577
806.762	28793
806.904	28881
807.046	29231
807.188	29113
807.33	29067
807.472	29170
807.614	28946
807.756	29128
807.898	29022
808.04	28820
808.182	28888
808.324	28972
808.465	28995
808.607	29132
808.749	29280
808.891	29353
809.033	29551
809.174	29436
809.316	29216
809.458	29250
809.6	29360
809.741	29512
809.883	29497
810.025	29630
810.166	29668
810.308	29623
810.45	29604
810.591	29520
810.733	29391
810.875	29406
811.016	29204
811.158	29223
811.299	29318
811.441	29543
811.582	29543
811.724	29360
811.865	29288
812.007	29265
812.148	29307
812.29	29395
812.431	29570
812.573	29741
812.714	29783
812.855	29904
812.997	29916
813.138	30163
813.279	30072
813.421	29942
813.562	29809
813.703	29691
813.845	29551
813.986	29406
814.127	29102
814.268	28980
814.41	29136
814.551	28999
814.692	29109
814.833	28938
814.974	28980
815.115	29041
815.256	28831
815.397	28957
815.539	28888
815.68	29014
815.821	28729
815.962	28866
816.103	28942
816.244	28618
816.385	28694
816.526	28717
816.666	28310
816.807	28451
816.948	28497
817.089	28459
817.23	28413
817.371	28322
817.512	28363
817.653	28325
817.793	28268
817.934	28318
818.075	28394
818.216	28512
818.356	28303
818.497	28280
818.638	28166
818.778	28272
818.919	28154
819.06	28177
819.2	28223
819.341	28443
819.481	28413
819.622	28546
819.762	28672
819.903	28706
820.043	28615
820.184	28557
820.324	28508
820.465	28637
820.605	28607
820.746	28470
820.886	28348
821.026	28550
821.167	28424
821.307	28550
821.447	28497
821.588	28417
821.728	28162
821.868	27994
822.008	27968
822.149	27884
822.289	27884
822.429	27580
822.569	27504
822.709	27439
822.849	27462
822.99	27443
823.13	27336
823.27	27454
823.41	27070
823.55	27176
823.69	27173
823.83	27291
823.97	27039
824.11	27028
824.25	26933
824.389	27077
824.529	27051
824.669	26990
824.809	27157
824.949	27017
825.089	27112
825.228	27085
825.368	26929
825.508	26960
825.648	26937
825.787	26948
825.927	26857
826.067	26845
826.206	27039
826.346	26975
826.485	27001
826.625	27039
826.765	27032
826.904	27024
827.044	26720
827.183	26667
827.323	26583
827.462	26670
827.601	26724
827.741	26693
827.88	26663
828.02	26552
828.159	26735
828.298	26587
828.437	26644
828.577	26594
828.716	26708
828.855	26583
828.994	26301
829.134	26195
829.273	26324
829.412	26374
829.551	26263
829.69	26267
829.829	26229
829.968	26415
830.107	26370
830.246	26218
830.385	26210
830.524	26210
830.663	26062
830.802	26092
830.941	25837
831.08	25955
831.219	25959
831.357	25928
831.496	26202
831.635	25966
831.774	25791
831.913	25868
832.051	25734
832.19	25658
832.329	25803
832.467	25605
832.606	25609
832.744	25620
832.883	25681
833.022	25514
833.16	25460
833.299	25635
833.437	25601
833.576	25700
833.714	25780
833.852	25734
833.991	25674
834.129	25761
834.267	25700
834.406	25639
834.544	25772
834.682	25670
834.821	25639
834.959	25746
835.097	25655
835.235	25628
835.373	25670
835.511	25544
835.65	25464
835.788	25487
835.926	25483
836.064	25354
836.202	25217
836.34	25445
836.478	25514
836.615	25392
836.753	25510
836.891	25700
837.029	25597
837.167	25407
837.305	25407
837.443	25221
837.58	25293
837.718	25438
837.856	25362
837.993	25164
838.131	25145
838.269	25285
838.406	25221
838.544	25088
838.681	24916
838.819	25088
838.956	24840
839.094	24745
839.231	24901
839.369	24932
839.506	25244
839.643	24989
839.781	24707
839.918	24665
840.055	24757
840.193	24681
840.33	24692
840.467	24741
840.604	24673
840.742	24970
840.879	24563
841.016	24623
841.153	24536
841.29	24848
841.427	24623
841.564	24669
841.701	24604
841.838	24555
841.975	24555
842.112	24677
842.249	24494
842.385	24338
842.522	24547
842.659	24513
842.796	24388
842.933	24429
843.069	24353
843.206	24338
843.343	24445
843.479	24342
843.616	24566
843.752	24174
843.889	24289
844.025	24277
844.162	24117
844.298	24338
844.435	24205
844.571	24171
844.708	24213
844.844	24270
844.98	24296
845.117	24418
845.253	24155
845.389	24148
845.525	24220
845.661	24159
845.798	23927
845.934	23904
846.07	23851
846.206	24018
846.342	24057
846.478	23885
846.614	23676
846.75	23760
846.886	23638
847.022	23699
847.158	23543
847.294	23726
847.429	23585
847.565	23520
847.701	23927
847.837	23360
847.972	23368
848.108	23395
848.244	23402
848.379	23383
848.515	23261
848.65	23223
848.786	23292
848.921	23250
849.057	23429
849.192	23299
849.328	23258
849.463	23239
849.598	23143
849.734	23162
849.869	23098
850.004	23121
850.14	22953
850.275	23064
850.41	22896
850.545	22923
850.68	22984
850.815	22927
850.95	22984
851.085	23136
851.22	23151
851.355	23025
851.49	22991
851.625	22980
851.76	23029
851.895	22873
852.03	23014
852.165	23079
852.299	22976
852.434	23094
852.569	23025
852.703	23079
852.838	23025
852.973	23174
853.107	23140
853.242	22961
853.376	22793
853.511	22713
853.645	22668
853.78	22938
853.914	22774
854.048	22843
854.183	22767
854.317	22748
854.451	22927
854.585	22740
854.72	22847
854.854	22938
854.988	22790
855.122	22957
855.256	22656
855.39	22782
855.524	22965
855.658	22744
855.792	22858
855.926	22885
856.06	22850
856.194	23033
856.327	22740
856.461	22710
856.595	22790
856.729	22702
856.862	22946
856.996	22786
857.13	22911
857.263	22908
857.397	22949
857.53	22782
857.664	22892
857.797	22904
857.931	22896
858.064	22904
858.197	22938
858.331	22820
858.464	22713
858.597	22752
858.731	22729
858.864	22889
858.997	22767
859.13	22866
859.263	22869
859.396	22896
859.529	22763
859.662	22866
859.795	22793
859.928	22717
860.061	22984
860.194	22957
860.327	22911
860.46	22873
860.592	22995
860.725	23022
860.858	22953
860.99	22839
861.123	22725
861.256	22744
861.388	22801
861.521	23509
861.653	22748
861.786	22535
861.918	22660
862.05	22710
862.183	22778
862.315	22763
862.447	22915
862.58	22713
862.712	22459
862.844	22497
862.976	22729
863.108	22554
863.24	22869
863.372	22508
863.504	22527
863.636	22573
863.768	22599
863.9	22489
864.032	22451
864.164	22493
864.296	22573
864.428	22542
864.559	22607
864.691	22611
864.823	22618
864.954	22512
865.086	22459
865.217	22493
865.349	22223
865.48	22466
865.612	22462
865.743	22596
865.875	22413
866.006	22329
866.137	22337
866.269	22417
866.4	22352
866.531	22284
866.662	22287
866.793	22386
866.924	22333
867.055	22344
867.186	22238
867.317	22325
867.448	22158
867.579	22348
867.71	22238
867.841	22219
867.972	22284
868.103	22219
868.233	22268
868.364	22508
868.495	22459
868.625	22554
868.756	22717
868.886	22535
869.017	22504
869.147	22580
869.278	22713
869.408	22481
869.539	22656
869.669	22550
869.799	22554
869.929	22679
870.06	22687
870.19	22847
870.32	22786
870.45	22942
870.58	22987
870.71	23025
870.84	23094
870.97	22892
871.1	23067
871.23	23098
871.36	23185
871.489	23086
871.619	23170
871.749	23174
871.879	23174
872.008	23277
872.138	23155
872.267	23189
872.397	23109
872.526	22934
872.656	23064
872.785	23006
872.915	23181
873.044	23273
873.173	23204
873.303	23227
873.432	23326
873.561	23376
873.69	23181
873.819	23277
873.948	23246
874.077	23151
874.206	23227
874.335	23220
874.464	23239
874.593	23444
874.722	23307
874.851	23554
874.979	23417
875.108	23478
875.237	23261
875.365	23208
875.494	23383
875.623	23383
875.751	23372
875.88	23334
876.008	23490
876.136	23661
876.265	23798
876.393	23950
876.521	23733
876.65	23920
876.778	23832
876.906	23710
877.034	23733
877.162	23764
877.29	23752
877.418	23577
877.546	23794
877.674	23646
877.802	23756
877.93	23653
878.058	23718
878.185	23665
878.313	23668
878.441	23714
878.568	23509
878.696	23592
878.824	23821
878.951	23802
879.079	23855
879.206	23961
879.333	23882
879.461	23668
879.588	23764
879.715	23836
879.842	23942
879.97	23756
880.097	23505
880.224	23372
880.351	23558
880.478	23531
880.605	23531
880.732	23585
880.859	23695
880.986	23551
881.112	23566
881.239	23383
881.366	23330
881.493	23200
881.619	23048
881.746	23162
881.872	23113
881.999	23166
882.125	23022
882.252	23075
882.378	22976
882.505	23193
882.631	22995
882.757	22774
882.883	22896
883.01	22797
883.136	22812
883.262	22694
883.388	22626
883.514	22900
883.64	22915
883.766	22599
883.892	22603
884.018	22546
884.143	22752
884.269	22698
884.395	22493
884.52	22367
884.646	22519
884.772	22318
884.897	22246
885.023	22436
885.148	22489
885.274	22557
885.399	22421
885.524	22382
885.65	22474
885.775	22337
885.9	22341
886.025	22500
886.15	22550
886.275	22272
886.4	22352
886.525	22337
886.65	22280
886.775	22211
886.9	22679
887.025	22641
887.149	22379
887.274	22204
887.399	22207
887.523	22154
887.648	22116
887.773	22135
887.897	22234
888.021	22120
888.146	22059
888.27	22249
888.395	22223
888.519	22188
888.643	22200
888.767	22207
888.891	22025
889.015	21964
889.139	22055
889.263	21926
889.387	21972
889.511	22204
889.635	22074
889.759	21941
889.883	21960
890.006	22017
890.13	21930
890.254	21945
890.377	21812
890.501	21671
890.624	21732
890.748	21778
890.871	21568
890.995	21447
891.118	21443
891.241	21545
891.364	21420
891.488	21656
891.611	21466
891.734	21629
891.857	21564
891.98	21610
892.103	21504
892.226	21587
892.349	21564
892.471	21306
892.594	21393
892.717	21401
892.839	21382
892.962	21359
893.085	21553
893.207	21481
893.33	21226
893.452	21374
893.575	21416
893.697	21420
893.819	21549
893.941	21644
894.064	21428
894.186	21435
894.308	21310
894.43	21458
894.552	21477
894.674	21416
894.796	21348
894.918	21344
895.04	21340
895.161	21469
895.283	21291
895.405	21256
895.526	21184
895.648	21321
895.769	21351
895.891	21485
896.012	21466
896.134	21443
896.255	21454
896.376	21401
896.498	21306
896.619	21454
896.74	21226
896.861	21329
896.982	21545
897.103	21679
897.224	21561
897.345	21462
897.466	21538
897.587	21447
897.708	21682
897.828	21481
897.949	21496
898.07	21363
898.19	21462
898.311	21701
898.431	21488
898.552	21500
898.672	21648
898.792	21545
898.913	21603
899.033	21359
899.153	21370
899.273	21317
899.393	21195
899.513	21264
899.633	21287
899.753	21256
899.873	21188
899.993	21199
900.113	21116
900.232	21237
900.352	21119
900.472	20891
900.591	20998
900.711	20975
900.83	20982
900.95	21161
901.069	21089
901.189	21024
901.308	20705
901.427	20667
901.546	20648
901.665	20560
901.784	20594
901.904	20511
902.023	20434
902.141	20233
902.26	20301
902.379	20103
902.498	20111
902.617	20107
902.735	20142
902.854	20092
902.973	19978
903.091	19719
903.21	19845
903.328	19803
903.446	19605
903.565	19510
903.683	19514
903.801	19449
903.919	19624
904.038	19400
904.156	19270
904.274	19415
904.392	19236
904.51	19194
904.627	19240
904.745	19373
904.863	19335
904.981	19137
905.098	18859
905.216	19019
905.334	18993
905.451	18993
905.569	18962
905.686	18916
905.803	19015
905.921	18677
906.038	18897
906.155	18776
906.272	18700
906.389	18692
906.506	18597
906.623	18551
906.74	18536
906.857	18361
906.974	18445
907.091	18506
907.208	18631
907.324	18464
907.441	18494
907.557	18209
907.674	18224
907.79	18190
907.907	18235
908.023	18277
908.139	18167
908.256	18068
908.372	18091
908.488	18098
908.604	17942
908.72	17904
908.836	17893
908.952	17920
909.068	18041
909.184	17965
909.3	17950
909.415	18022
909.531	18003
909.647	17718
909.762	17680
909.878	17611
909.993	17604
910.108	17554
910.224	17573
910.339	17501
910.454	17520
910.57	17368
910.685	17311
910.8	17638
910.915	17570
911.03	17410
911.145	17231
911.259	17197
911.374	17151
911.489	17159
911.604	16991
911.718	16892
911.833	16961
911.947	16809
912.062	16778
912.176	16946
912.291	16999
912.405	16908
912.519	17086
912.633	17037
912.748	16987
912.862	16847
912.976	16752
913.09	16565
913.204	16649
913.318	16672
913.431	16816
913.545	16847
913.659	16744
913.772	16527
913.886	16554
914	16546
914.113	16561
914.226	16694
914.34	16622
914.453	16436
914.566	16542
914.68	16352
914.793	16367
914.906	16135
915.019	16135
915.132	16044
915.245	16048
915.358	16101
915.47	16029
915.583	16150
915.696	16173
915.809	16185
915.921	16337
916.034	16059
916.146	15983
916.259	16013
916.371	15994
916.483	16082
916.595	15937
916.708	15956
916.82	15907
916.932	15907
917.044	15930
917.156	15812
917.268	15705
917.38	15732
917.491	15747
917.603	15690
917.715	15857
917.826	15789
917.938	15709
918.049	15568
918.161	15739
918.272	15720
918.384	15907
918.495	15709
918.606	15587
918.717	15500
918.828	15420
918.939	15568
919.05	15363
919.161	15454
919.272	15298
919.383	15264
919.494	15504
919.604	15625
919.715	15553
919.826	15485
919.936	15374
920.047	15523
920.157	15443
920.267	15545
920.378	15435
920.488	15359
920.598	15660
920.708	15660
920.818	15496
920.928	15523
921.038	15800
921.148	15629
921.258	15405
921.368	15313
921.477	15169
921.587	15218
921.697	14948
921.806	15199
921.916	14960
922.025	14868
922.134	14792
922.244	14697
922.353	14823
922.462	14663
922.571	14606
922.68	14446
922.789	14408
922.898	14404
923.007	14400
923.116	14400
923.224	14396
923.333	14412
923.442	14282
923.55	14195
923.659	14218
923.767	14271
923.876	14202
923.984	14355
924.092	14103
924.201	14149
924.309	14240
924.417	14031
924.525	14069
924.633	14069
924.741	14944
924.849	13830
924.956	13970
925.064	13917
925.172	13651
925.279	13811
925.387	13818
925.494	13723
925.602	13947
925.709	13841
925.816	13662
925.924	13700
926.031	13772
926.138	13662
926.245	13715
926.352	13563
926.459	13757
926.566	13746
926.673	13556
926.779	13548
926.886	13575
926.993	13362
927.099	13419
927.206	13308
927.312	13327
927.419	13362
927.525	13297
927.631	13278
927.737	13164
927.843	13206
927.95	12993
928.056	13179
928.162	13175
928.267	13183
928.373	13750
928.479	13297
928.585	12863
928.69	12993
928.796	13107
928.901	12909
929.007	12878
929.112	12985
929.218	12916
929.323	12852
929.428	12856
929.533	12920
929.638	12760
929.743	12764
929.848	12867
929.953	12715
930.058	12711
930.163	12456
930.267	12498
930.372	12681
930.477	12346
930.581	12722
930.685	12498
930.79	12369
930.894	12399
930.998	12338
931.103	12479
931.207	12152
931.311	11980
931.415	12015
931.519	11817
931.623	11691
