Data from test_V78500241_259.txt Node
Date: Fri Mar 25 15:43:35 CST 2022
User: usil
Spectrometer: V785-0024
Trigger mode: 0
Integration Time (sec): 4.000000E-1
Scans to average: 1
Nonlinearity correction enabled: false
Boxcar width: 0
Storing dark spectrum: false
XAxis mode: Wavelengths
Number of Pixels in Spectrum: 1024
>>>>>Begin Spectral Data<<<<<
801.071	29866
801.214	29870
801.356	29581
801.499	29695
801.641	29539
801.783	29509
801.926	29570
802.068	29463
802.211	29433
802.353	29299
802.496	28995
802.638	29079
802.78	29117
802.923	29094
803.065	29022
803.208	28930
803.35	29170
803.492	29353
803.635	29311
803.777	29166
803.919	29368
804.061	29551
804.204	29414
804.346	29185
804.488	29094
804.63	29216
804.773	29155
804.915	29246
805.057	29535
805.199	29315
805.341	29296
805.483	29406
805.626	29353
805.768	29330
805.91	29334
806.052	29398
806.194	29326
806.336	29691
806.478	29482
806.62	29299
806.762	29539
806.904	29653
807.046	29942
807.188	29767
807.33	29752
807.472	29882
807.614	29889
807.756	29718
807.898	29520
808.04	29604
808.182	29596
808.324	29581
808.465	29600
808.607	29859
808.749	29935
808.891	30148
809.033	30022
809.174	30038
809.316	29969
809.458	30125
809.6	29874
809.741	30159
809.883	30155
810.025	30213
810.166	30376
810.308	30349
810.45	30239
810.591	30057
810.733	30083
810.875	30102
811.016	29836
811.158	29969
811.299	30167
811.441	30308
811.582	30114
811.724	30038
811.865	29916
812.007	29984
812.148	29904
812.29	30038
812.431	30171
812.573	30391
812.714	30334
812.855	30509
812.997	30703
813.138	30703
813.279	30696
813.421	30582
813.562	30445
813.703	30311
813.845	30110
813.986	30003
814.127	29783
814.268	29665
814.41	29604
814.551	29619
814.692	29733
814.833	29459
814.974	29551
815.115	29585
815.256	29551
815.397	29471
815.539	29379
815.68	29318
815.821	29406
815.962	29478
816.103	29398
816.244	29315
816.385	29311
816.526	29277
816.666	29083
816.807	28843
816.948	28923
817.089	28908
817.23	28927
817.371	28820
817.512	28892
817.653	28839
817.793	28881
817.934	28873
818.075	28877
818.216	28809
818.356	28733
818.497	28687
818.638	28641
818.778	28569
818.919	28535
819.06	28752
819.2	28793
819.341	28797
819.481	28809
819.622	28999
819.762	29025
819.903	28965
820.043	28949
820.184	28866
820.324	28896
820.465	28984
820.605	28896
820.746	29022
820.886	28854
821.026	28866
821.167	28862
821.307	28854
821.447	28702
821.588	28641
821.728	28561
821.868	28280
822.008	28181
822.149	28215
822.289	28272
822.429	27930
822.569	28036
822.709	28006
822.849	27641
822.99	27751
823.13	27736
823.27	27682
823.41	27557
823.55	27355
823.69	27610
823.83	27424
823.97	27496
824.11	27378
824.25	27252
824.389	27252
824.529	27386
824.669	27340
824.809	27344
824.949	27363
825.089	27382
825.228	27355
825.368	27119
825.508	27192
825.648	27127
825.787	27195
825.927	27287
826.067	27116
826.206	27112
826.346	27173
826.485	27085
826.625	27169
826.765	27325
826.904	27199
827.044	26891
827.183	26883
827.323	26785
827.462	26826
827.601	26834
827.741	26785
827.88	26868
828.02	26716
828.159	26731
828.298	26895
828.437	26868
828.577	26746
828.716	26921
828.855	26769
828.994	26533
829.134	26636
829.273	26461
829.412	26469
829.551	26434
829.69	26537
829.829	26541
829.968	26476
830.107	26503
830.246	26514
830.385	26415
830.524	26339
830.663	26256
830.802	26237
830.941	26157
831.08	26058
831.219	26187
831.357	26259
831.496	26202
831.635	26065
831.774	25898
831.913	25906
832.051	25738
832.19	25791
832.329	25890
832.467	25761
832.606	25628
832.744	25651
832.883	25601
833.022	25795
833.16	25807
833.299	25666
833.437	25727
833.576	25803
833.714	25715
833.852	25871
833.991	25795
834.129	25879
834.267	25830
834.406	25693
834.544	25734
834.682	25700
834.821	25559
834.959	25940
835.097	25685
835.235	25734
835.373	25681
835.511	25658
835.65	25567
835.788	25499
835.926	25438
836.064	25331
836.202	25392
836.34	25556
836.478	25552
836.615	25506
836.753	25571
836.891	25597
837.029	25472
837.167	25438
837.305	25464
837.443	25331
837.58	25377
837.718	25460
837.856	25335
837.993	25259
838.131	25365
838.269	25194
838.406	25312
838.544	25088
838.681	24890
838.819	24951
838.956	24802
839.094	24768
839.231	24741
839.369	24901
839.506	25198
839.643	25053
839.781	24779
839.918	24817
840.055	24757
840.193	24555
840.33	24612
840.467	24566
840.604	24681
840.742	24958
840.879	24544
841.016	24757
841.153	24517
841.29	24730
841.427	24642
841.564	24635
841.701	24494
841.838	24658
841.975	24521
842.112	24528
842.249	24464
842.385	24308
842.522	24627
842.659	24361
842.796	24334
842.933	24353
843.069	24228
843.206	24369
843.343	24414
843.479	24369
843.616	24300
843.752	24110
843.889	24095
844.025	24365
844.162	24022
844.298	24057
844.435	24068
844.571	23901
844.708	24083
844.844	24190
844.98	24136
845.117	24133
845.253	23863
845.389	23954
845.525	23859
845.661	23874
845.798	23737
845.934	23832
846.07	23752
846.206	23790
846.342	23942
846.478	23707
846.614	23535
846.75	23417
846.886	23592
847.022	23543
847.158	23562
847.294	23455
847.429	23539
847.565	23467
847.701	23695
847.837	23326
847.972	23223
848.108	23349
848.244	23296
848.379	23132
848.515	23109
848.65	23185
848.786	23170
848.921	23006
849.057	23254
849.192	23200
849.328	23121
849.463	23166
849.598	23048
849.734	22824
849.869	23044
850.004	22915
850.14	22843
850.275	22904
850.41	22755
850.545	22778
850.68	22694
850.815	22736
850.95	22812
851.085	23041
851.22	22953
851.355	22908
851.49	22801
851.625	22599
851.76	22805
851.895	22679
852.03	22672
852.165	22740
852.299	22862
852.434	22885
852.569	22763
852.703	22889
852.838	22892
852.973	22866
853.107	22847
853.242	22691
853.376	22687
853.511	22386
853.645	22569
853.78	22725
853.914	22577
854.048	22569
854.183	22550
854.317	22664
854.451	22816
854.585	22653
854.72	22519
854.854	22790
854.988	22455
855.122	22622
855.256	22523
855.39	22516
855.524	22588
855.658	22565
855.792	22653
855.926	22573
856.06	22546
856.194	22615
856.327	22554
856.461	22607
856.595	22565
856.729	22634
856.862	22725
856.996	22485
857.13	22713
857.263	22774
857.397	22645
857.53	22557
857.664	22523
857.797	22565
857.931	22645
858.064	22573
858.197	22599
858.331	22561
858.464	22363
858.597	22459
858.731	22508
858.864	22485
858.997	22550
859.13	22493
859.263	22577
859.396	22683
859.529	22489
859.662	22440
859.795	22390
859.928	22637
860.061	22554
860.194	22702
860.327	22519
860.46	22451
860.592	22535
860.725	22641
860.858	22645
860.99	22478
861.123	22523
861.256	22390
861.388	22386
861.521	23128
861.653	22481
861.786	22268
861.918	22325
862.05	22440
862.183	22360
862.315	22603
862.447	22645
862.58	22417
862.712	22234
862.844	22166
862.976	22276
863.108	22314
863.24	22603
863.372	22234
863.504	22238
863.636	22272
863.768	22181
863.9	22234
864.032	22139
864.164	22207
864.296	22249
864.428	22306
864.559	22135
864.691	22280
864.823	22215
864.954	22162
865.086	22188
865.217	22147
865.349	22021
865.48	22143
865.612	22177
865.743	22147
865.875	22185
866.006	21998
866.137	22029
866.269	22070
866.4	21991
866.531	22082
866.662	22021
866.793	21991
866.924	22032
867.055	22040
867.186	21941
867.317	21907
867.448	21899
867.579	22029
867.71	22017
867.841	21888
867.972	22048
868.103	21968
868.233	21994
868.364	22006
868.495	21968
868.625	22249
868.756	22322
868.886	22086
869.017	22207
869.147	22363
869.278	22402
869.408	22246
869.539	22158
869.669	22242
869.799	22284
869.929	22386
870.06	22276
870.19	22508
870.32	22607
870.45	22611
870.58	22656
870.71	22713
870.84	22679
870.97	22546
871.1	22596
871.23	22816
871.36	22900
871.489	22725
871.619	22812
871.749	22866
871.879	22771
872.008	23010
872.138	22839
872.267	22858
872.397	22702
872.526	22687
872.656	22679
872.785	22679
872.915	22877
873.044	22885
873.173	22908
873.303	22889
873.432	22850
873.561	22911
873.69	22934
873.819	22877
873.948	23006
874.077	22900
874.206	22812
874.335	22900
874.464	22927
874.593	23048
874.722	23052
874.851	23105
874.979	23094
875.108	23132
875.237	23083
875.365	22949
875.494	23048
875.623	22915
875.751	23132
875.88	23121
876.008	23258
876.136	23277
876.265	23505
876.393	23531
876.521	23535
876.65	23539
876.778	23539
876.906	23303
877.034	23425
877.162	23402
877.29	23436
877.418	23433
877.546	23337
877.674	23539
877.802	23444
877.93	23452
878.058	23391
878.185	23387
878.313	23391
878.441	23421
878.568	23269
878.696	23360
878.824	23535
878.951	23554
879.079	23623
879.206	23771
879.333	23516
879.461	23467
879.588	23478
879.715	23558
879.842	23649
879.97	23452
880.097	23147
880.224	23128
880.351	23261
880.478	23227
880.605	23151
880.732	23220
880.859	23486
880.986	23303
881.112	23220
881.239	23025
881.366	22957
881.493	22782
881.619	22771
881.746	22866
881.872	22767
881.999	22713
882.125	22752
882.252	22771
882.378	22843
882.505	22877
882.631	22596
882.757	22489
882.883	22603
883.01	22500
883.136	22447
883.262	22409
883.388	22287
883.514	22592
883.64	22428
883.766	22402
883.892	22211
884.018	22344
884.143	22428
884.269	22504
884.395	22128
884.52	22086
884.646	22021
884.772	21987
884.897	21930
885.023	22215
885.148	22124
885.274	22204
885.399	22215
885.524	22021
885.65	22074
885.775	22120
885.9	22067
886.025	22192
886.15	22207
886.275	22036
886.4	21991
886.525	22067
886.65	22070
886.775	21945
886.9	22322
887.025	22303
887.149	22010
887.274	21873
887.399	21785
887.523	21956
887.648	21831
887.773	21797
887.897	21949
888.021	21774
888.146	21755
888.27	21983
888.395	21854
888.519	21926
888.643	21785
888.767	21907
888.891	21800
889.015	21625
889.139	21736
889.263	21633
889.387	21682
889.511	21842
889.635	21713
889.759	21656
889.883	21606
890.006	21549
890.13	21656
890.254	21469
890.377	21481
890.501	21576
890.624	21329
890.748	21382
890.871	21256
890.995	21207
891.118	21036
891.241	21173
891.364	21157
891.488	21237
891.611	21119
891.734	21264
891.857	21245
891.98	21195
892.103	21195
892.226	21093
892.349	21161
892.471	20910
892.594	21058
892.717	21100
892.839	20975
892.962	21039
893.085	21089
893.207	20998
893.33	20979
893.452	21093
893.575	21039
893.697	21051
893.819	21176
893.941	21317
894.064	21188
894.186	20986
894.308	21017
894.43	21096
894.552	21173
894.674	21161
894.796	20902
894.918	20941
895.04	20967
895.161	21131
895.283	21036
895.405	21070
895.526	21009
895.648	20998
895.769	20960
895.891	21100
896.012	21131
896.134	21104
896.255	20990
896.376	21119
896.498	21138
896.619	21157
896.74	21077
896.861	21207
896.982	21466
897.103	21507
897.224	21313
897.345	21374
897.466	21169
897.587	21317
897.708	21408
897.828	21401
897.949	21199
898.07	21157
898.19	21169
898.311	21306
898.431	21157
898.552	21294
898.672	21264
898.792	21321
898.913	21180
899.033	21089
899.153	21036
899.273	20807
899.393	21009
899.513	20963
899.633	21005
899.753	20979
899.873	20925
899.993	20979
900.113	20899
900.232	20937
900.352	20804
900.472	20849
900.591	20731
900.711	20746
900.83	20773
900.95	20811
901.069	20716
901.189	20625
901.308	20454
901.427	20256
901.546	20396
901.665	20351
901.784	20328
901.904	20077
902.023	19997
902.141	19776
902.26	19868
902.379	19883
902.498	19757
902.617	19791
902.735	19776
902.854	19704
902.973	19624
903.091	19464
903.21	19464
903.328	19426
903.446	19301
903.565	19156
903.683	19240
903.801	19034
903.919	19282
904.038	19069
904.156	18973
904.274	19080
904.392	18924
904.51	18935
904.627	18958
904.745	18977
904.863	19015
904.981	18757
905.098	18627
905.216	18627
905.334	18681
905.451	18715
905.569	18585
905.686	18635
905.803	18620
905.921	18464
906.038	18623
906.155	18403
906.272	18254
906.389	18376
906.506	18117
906.623	18144
906.74	18117
906.857	18117
906.974	18133
907.091	18155
907.208	18304
907.324	18201
907.441	18045
907.557	17859
907.674	17741
907.79	17859
907.907	17729
908.023	17832
908.139	17798
908.256	17722
908.372	17790
908.488	17596
908.604	17733
908.72	17490
908.836	17615
908.952	17512
909.068	17539
909.184	17623
909.3	17505
909.415	17691
909.531	17463
909.647	17242
909.762	17174
909.878	17162
909.993	17250
910.108	17174
910.224	17170
910.339	17071
910.454	17132
910.57	16961
910.685	16961
910.8	17322
910.915	17159
911.03	17052
911.145	16771
911.259	16850
911.374	16797
911.489	16637
911.604	16660
911.718	16500
911.833	16436
911.947	16493
912.062	16470
912.176	16596
912.291	16500
912.405	16611
912.519	16702
912.633	16603
912.748	16481
912.862	16436
912.976	16242
913.09	16207
913.204	16356
913.318	16261
913.431	16382
913.545	16386
913.659	16348
913.772	16325
913.886	16226
914	16093
914.113	16200
914.226	16223
914.34	16147
914.453	15884
914.566	16135
914.68	15994
914.793	15979
914.906	15873
915.019	15675
915.132	15739
915.245	15705
915.358	15774
915.47	15842
915.583	15743
915.696	15797
915.809	15831
915.921	15823
916.034	15538
916.146	15466
916.259	15519
916.371	15641
916.483	15663
916.595	15545
916.708	15492
916.82	15443
916.932	15507
917.044	15485
917.156	15466
917.268	15310
917.38	15351
917.491	15195
917.603	15363
917.715	15492
917.826	15473
917.938	15230
918.049	15077
918.161	15256
918.272	15340
918.384	15378
918.495	15214
918.606	15089
918.717	14979
918.828	15070
918.939	15108
919.05	15028
919.161	15043
919.272	14815
919.383	14918
919.494	15188
919.604	15237
919.715	15043
919.826	14994
919.936	14975
920.047	15104
920.157	15005
920.267	15188
920.378	15001
920.488	14948
920.598	15108
920.708	15237
920.818	15195
920.928	15081
921.038	15157
921.148	15222
921.258	14967
921.368	14811
921.477	14788
921.587	14712
921.697	14545
921.806	14644
921.916	14598
922.025	14339
922.134	14339
922.244	14313
922.353	14415
922.462	14263
922.571	14088
922.68	13967
922.789	13951
922.898	13925
923.007	13803
923.116	13951
923.224	13879
923.333	13928
923.442	13860
923.55	13696
923.659	13830
923.767	13799
923.876	13826
923.984	13826
924.092	13674
924.201	13742
924.309	13685
924.417	13666
924.525	13601
924.633	13639
924.741	14366
924.849	13464
924.956	13521
925.064	13403
925.172	13343
925.279	13278
925.387	13407
925.494	13346
925.602	13453
925.709	13331
925.816	13289
925.924	13263
926.031	13411
926.138	13278
926.245	13362
926.352	13194
926.459	13362
926.566	13369
926.673	13232
926.779	13076
926.886	13038
926.993	12962
927.099	12932
927.206	12905
927.312	12890
927.419	12867
927.525	12844
927.631	12958
927.737	12711
927.843	12741
927.95	12646
928.056	12711
928.162	12791
928.267	12715
928.373	13426
928.479	12787
928.585	12578
928.69	12662
928.796	12730
928.901	12589
929.007	12388
929.112	12513
929.218	12574
929.323	12471
929.428	12429
929.533	12627
929.638	12391
929.743	12384
929.848	12433
929.953	12319
930.058	12323
930.163	12053
930.267	12045
930.372	12296
930.477	12076
930.581	12319
930.685	12148
930.79	11946
930.894	12064
930.998	11904
931.103	12038
931.207	11585
931.311	11577
931.415	11551
931.519	11280
931.623	11326
