Data from test_V78500241_543.txt Node
Date: Fri Mar 25 15:45:33 CST 2022
User: usil
Spectrometer: V785-0024
Trigger mode: 0
Integration Time (sec): 4.000000E-1
Scans to average: 1
Nonlinearity correction enabled: false
Boxcar width: 0
Storing dark spectrum: false
XAxis mode: Wavelengths
Number of Pixels in Spectrum: 1024
>>>>>Begin Spectral Data<<<<<
801.071	27804
801.214	27762
801.356	27507
801.499	27378
801.641	27370
801.783	27504
801.926	27496
802.068	27374
802.211	27306
802.353	27195
802.496	26876
802.638	27028
802.78	26956
802.923	27005
803.065	26929
803.208	26952
803.35	26956
803.492	26986
803.635	27173
803.777	27085
803.919	27081
804.061	27332
804.204	27176
804.346	27100
804.488	27112
804.63	27157
804.773	27051
804.915	27047
805.057	27302
805.199	27218
805.341	27298
805.483	27252
805.626	27203
805.768	27135
805.91	27355
806.052	27321
806.194	27275
806.336	27515
806.478	27359
806.62	27287
806.762	27348
806.904	27526
807.046	27857
807.188	27762
807.33	27675
807.472	27789
807.614	27572
807.756	27644
807.898	27542
808.04	27641
808.182	27580
808.324	27545
808.465	27580
808.607	27766
808.749	27914
808.891	28063
809.033	28116
809.174	28116
809.316	27956
809.458	28090
809.6	27934
809.741	28097
809.883	28112
810.025	28196
810.166	28276
810.308	28280
810.45	28306
810.591	28181
810.733	28013
810.875	27994
811.016	27865
811.158	27953
811.299	28029
811.441	28029
811.582	28143
811.724	27873
811.865	27937
812.007	28029
812.148	27945
812.29	28059
812.431	28070
812.573	28200
812.714	28371
812.855	28386
812.997	28660
813.138	28729
813.279	28622
813.421	28649
813.562	28398
813.703	28261
813.845	28166
813.986	28032
814.127	27713
814.268	27732
814.41	27827
814.551	27720
814.692	27682
814.833	27561
814.974	27637
815.115	27583
815.256	27481
815.397	27469
815.539	27656
815.68	27431
815.821	27496
815.962	27515
816.103	27515
816.244	27180
816.385	27256
816.526	27195
816.666	27066
816.807	26823
816.948	26990
817.089	27123
817.23	26834
817.371	26940
817.512	26750
817.653	26823
817.793	26838
817.934	26910
818.075	26800
818.216	26902
818.356	26857
818.497	26727
818.638	26564
818.778	26731
818.919	26693
819.06	26762
819.2	26663
819.341	26925
819.481	26861
819.622	27089
819.762	27226
819.903	27043
820.043	27112
820.184	26899
820.324	26956
820.465	27005
820.605	26960
820.746	26963
820.886	26838
821.026	27013
821.167	27032
821.307	26979
821.447	26872
821.588	26868
821.728	26804
821.868	26511
822.008	26381
822.149	26294
822.289	26377
822.429	26168
822.569	26111
822.709	26035
822.849	25803
822.99	25868
823.13	25837
823.27	25875
823.41	25651
823.55	25499
823.69	25670
823.83	25811
823.97	25658
824.11	25495
824.25	25460
824.389	25407
824.529	25540
824.669	25487
824.809	25616
824.949	25658
825.089	25658
825.228	25609
825.368	25403
825.508	25388
825.648	25422
825.787	25571
825.927	25320
826.067	25521
826.206	25460
826.346	25312
826.485	25468
826.625	25499
826.765	25381
826.904	25327
827.044	25103
827.183	25137
827.323	25095
827.462	25156
827.601	25095
827.741	25107
827.88	25069
828.02	24996
828.159	25202
828.298	25187
828.437	25114
828.577	24947
828.716	25076
828.855	24943
828.994	24795
829.134	24810
829.273	24840
829.412	24749
829.551	24681
829.69	24753
829.829	24741
829.968	24840
830.107	24821
830.246	24722
830.385	24673
830.524	24745
830.663	24547
830.802	24574
830.941	24414
831.08	24357
831.219	24361
831.357	24498
831.496	24582
831.635	24414
831.774	24232
831.913	24289
832.051	24205
832.19	24201
832.329	24186
832.467	24251
832.606	23996
832.744	23939
832.883	24117
833.022	24026
833.16	24060
833.299	24117
833.437	24125
833.576	24186
833.714	24091
833.852	24239
833.991	24209
834.129	24228
834.267	24232
834.406	24148
834.544	24117
834.682	24171
834.821	24136
834.959	24232
835.097	23946
835.235	24216
835.373	23977
835.511	24076
835.65	24034
835.788	23984
835.926	23870
836.064	23779
836.202	23741
836.34	23961
836.478	24163
836.615	23980
836.753	24057
836.891	24140
837.029	24003
837.167	23988
837.305	23882
837.443	23828
837.58	23965
837.718	23958
837.856	23817
837.993	23786
838.131	23878
838.269	23668
838.406	23752
838.544	23623
838.681	23452
838.819	23558
838.956	23326
839.094	23341
839.231	23337
839.369	23463
839.506	23676
839.643	23554
839.781	23277
839.918	23265
840.055	23208
840.193	23307
840.33	23341
840.467	23292
840.604	23223
840.742	23520
840.879	23102
841.016	23136
841.153	23208
841.29	23307
841.427	23174
841.564	23273
841.701	23341
841.838	23075
841.975	23079
842.112	23128
842.249	23143
842.385	22976
842.522	23341
842.659	23067
842.796	22995
842.933	22980
843.069	22877
843.206	22927
843.343	23079
843.479	23022
843.616	22889
843.752	22622
843.889	22824
844.025	22972
844.162	22618
844.298	22831
844.435	22748
844.571	22641
844.708	22748
844.844	23006
844.98	22835
845.117	22763
845.253	22683
845.389	22557
845.525	22622
845.661	22717
845.798	22527
845.934	22615
846.07	22440
846.206	22504
846.342	22500
846.478	22550
846.614	22356
846.75	22109
846.886	22238
847.022	22196
847.158	22322
847.294	22200
847.429	22207
847.565	22177
847.701	22470
847.837	21994
847.972	21838
848.108	21926
848.244	21922
848.379	21903
848.515	21778
848.65	21789
848.786	21812
848.921	21743
849.057	21876
849.192	21873
849.328	21857
849.463	21736
849.598	21705
849.734	21625
849.869	21606
850.004	21610
850.14	21542
850.275	21606
850.41	21466
850.545	21610
850.68	21519
850.815	21583
850.95	21507
851.085	21781
851.22	21622
851.355	21488
851.49	21492
851.625	21545
851.76	21488
851.895	21386
852.03	21370
852.165	21477
852.299	21534
852.434	21637
852.569	21675
852.703	21542
852.838	21663
852.973	21698
853.107	21781
853.242	21477
853.376	21348
853.511	21294
853.645	21367
853.78	21481
853.914	21492
854.048	21336
854.183	21481
854.317	21435
854.451	21557
854.585	21302
854.72	21374
854.854	21332
854.988	21256
855.122	21473
855.256	21332
855.39	21473
855.524	21351
855.658	21336
855.792	21428
855.926	21424
856.06	21397
856.194	21382
856.327	21329
856.461	21218
856.595	21287
856.729	21287
856.862	21462
856.996	21401
857.13	21473
857.263	21595
857.397	21488
857.53	21389
857.664	21382
857.797	21443
857.931	21485
858.064	21363
858.197	21454
858.331	21363
858.464	21317
858.597	21447
858.731	21275
858.864	21359
858.997	21245
859.13	21317
859.263	21515
859.396	21496
859.529	21382
859.662	21306
859.795	21279
859.928	21401
860.061	21469
860.194	21488
860.327	21363
860.46	21298
860.592	21511
860.725	21458
860.858	21580
860.99	21367
861.123	21264
861.256	21287
861.388	21408
861.521	21819
861.653	21268
861.786	21173
861.918	21157
862.05	21268
862.183	21325
862.315	21336
862.447	21222
862.58	21203
862.712	21085
862.844	21070
862.976	21131
863.108	21176
863.24	21614
863.372	21032
863.504	21116
863.636	21032
863.768	21108
863.9	21123
864.032	21009
864.164	21066
864.296	21184
864.428	21161
864.559	21226
864.691	21154
864.823	21055
864.954	21131
865.086	21127
865.217	21017
865.349	20960
865.48	20967
865.612	20986
865.743	21100
865.875	21108
866.006	20921
866.137	21013
866.269	20960
866.4	20982
866.531	20998
866.662	20876
866.793	20861
866.924	20834
867.055	20925
867.186	20944
867.317	20883
867.448	20792
867.579	20902
867.71	20876
867.841	20838
867.972	20906
868.103	20876
868.233	20914
868.364	20838
868.495	20876
868.625	21142
868.756	21161
868.886	21032
869.017	21081
869.147	21203
869.278	21424
869.408	21173
869.539	21135
869.669	21218
869.799	21214
869.929	21249
870.06	21211
870.19	21466
870.32	21393
870.45	21450
870.58	21610
870.71	21656
870.84	21652
870.97	21568
871.1	21515
871.23	21793
871.36	21812
871.489	21694
871.619	21713
871.749	21671
871.879	21667
872.008	21850
872.138	21774
872.267	21728
872.397	21614
872.526	21553
872.656	21561
872.785	21633
872.915	21785
873.044	21857
873.173	21728
873.303	21880
873.432	21823
873.561	21812
873.69	21960
873.819	21770
873.948	21835
874.077	21774
874.206	21808
874.335	21751
874.464	21880
874.593	22051
874.722	21983
874.851	22040
874.979	21960
875.108	22006
875.237	21884
875.365	22070
875.494	21888
875.623	22036
875.751	21930
875.88	22002
876.008	22143
876.136	22196
876.265	22466
876.393	22447
876.521	22413
876.65	22493
876.778	22428
876.906	22299
877.034	22390
877.162	22341
877.29	22299
877.418	22257
877.546	22360
877.674	22276
877.802	22215
877.93	22314
878.058	22268
878.185	22246
878.313	22318
878.441	22306
878.568	22158
878.696	22253
878.824	22459
878.951	22527
879.079	22580
879.206	22691
879.333	22432
879.461	22337
879.588	22333
879.715	22569
879.842	22664
879.97	22386
880.097	22226
880.224	22082
880.351	22173
880.478	22135
880.605	22090
880.732	22154
880.859	22375
880.986	22090
881.112	22261
881.239	22002
881.366	21926
881.493	21755
881.619	21751
881.746	21835
881.872	21774
881.999	21667
882.125	21675
882.252	21770
882.378	21759
882.505	21865
882.631	21568
882.757	21462
882.883	21530
883.01	21431
883.136	21374
883.262	21332
883.388	21344
883.514	21454
883.64	21534
883.766	21450
883.892	21150
884.018	21298
884.143	21363
884.269	21454
884.395	21184
884.52	21096
884.646	21032
884.772	21017
884.897	20941
885.023	20998
885.148	21104
885.274	21142
885.399	21184
885.524	21127
885.65	21169
885.775	21074
885.9	21043
886.025	21188
886.15	21176
886.275	20967
886.4	20975
886.525	21005
886.65	20906
886.775	21055
886.9	21112
887.025	21127
887.149	21112
887.274	20868
887.399	20849
887.523	20777
887.648	20842
887.773	20613
887.897	20902
888.021	20826
888.146	20765
888.27	20933
888.395	20941
888.519	20864
888.643	20861
888.767	20880
888.891	20773
889.015	20667
889.139	20598
889.263	20678
889.387	20743
889.511	20845
889.635	20705
889.759	20754
889.883	20587
890.006	20678
890.13	20682
890.254	20545
890.377	20613
890.501	20385
890.624	20454
890.748	20446
890.871	20229
890.995	20259
891.118	20130
891.241	20328
891.364	20199
891.488	20381
891.611	20278
891.734	20275
891.857	20313
891.98	20362
892.103	20187
892.226	20244
892.349	20229
892.471	20039
892.594	20088
892.717	20210
892.839	20107
892.962	20107
893.085	20229
893.207	20187
893.33	20138
893.452	19955
893.575	20221
893.697	19967
893.819	20366
893.941	20328
894.064	20237
894.186	20088
894.308	19997
894.43	20252
894.552	20347
894.674	20115
894.796	20126
894.918	20172
895.04	20073
895.161	20214
895.283	20309
895.405	20065
895.526	20157
895.648	20168
895.769	20149
895.891	20092
896.012	20309
896.134	20134
896.255	20145
896.376	20180
896.498	20263
896.619	20256
896.74	20077
896.861	20145
896.982	20476
897.103	20659
897.224	20412
897.345	20438
897.466	20336
897.587	20419
897.708	20507
897.828	20385
897.949	20271
898.07	20221
898.19	20259
898.311	20385
898.431	20313
898.552	20351
898.672	20423
898.792	20377
898.913	20275
899.033	20142
899.153	20157
899.273	20157
899.393	20046
899.513	20191
899.633	20176
899.753	20024
899.873	20164
899.993	20149
900.113	20027
900.232	20145
900.352	19936
900.472	19982
900.591	19845
900.711	19852
900.83	19913
900.95	20012
901.069	20016
901.189	19826
901.308	19605
901.427	19373
901.546	19445
901.665	19510
901.784	19434
901.904	19339
902.023	19236
902.141	19099
902.26	18996
902.379	19072
902.498	18909
902.617	18962
902.735	19042
902.854	18973
902.973	18802
903.091	18593
903.21	18772
903.328	18639
903.446	18452
903.565	18445
903.683	18517
903.801	18369
903.919	18361
904.038	18498
904.156	18117
904.274	18247
904.392	18319
904.51	18121
904.627	18262
904.745	18262
904.863	18213
904.981	17927
905.098	17889
905.216	17836
905.334	17828
905.451	17775
905.569	17798
905.686	17901
905.803	17737
905.921	17668
906.038	17840
906.155	17554
906.272	17573
906.389	17471
906.506	17463
906.623	17349
906.74	17391
906.857	17299
906.974	17280
907.091	17471
907.208	17554
907.324	17512
907.441	17322
907.557	17216
907.674	17151
907.79	16972
907.907	17121
908.023	17113
908.139	17147
908.256	17113
908.372	17018
908.488	16953
908.604	16854
908.72	16869
908.836	16771
908.952	16801
909.068	16919
909.184	16850
909.3	16828
909.415	16995
909.531	16835
909.647	16626
909.762	16527
909.878	16523
909.993	16634
910.108	16592
910.224	16474
910.339	16584
910.454	16535
910.57	16474
910.685	16318
910.8	16558
910.915	16481
911.03	16303
911.145	16177
911.259	16143
911.374	16158
911.489	16128
911.604	16013
911.718	15915
911.833	15937
911.947	15838
912.062	15713
912.176	15968
912.291	15960
912.405	15865
912.519	16101
912.633	16078
912.748	15987
912.862	15937
912.976	15808
913.09	15564
913.204	15610
913.318	15743
913.431	15816
913.545	15831
913.659	15854
913.772	15614
913.886	15496
914	15515
914.113	15584
914.226	15614
914.34	15568
914.453	15416
914.566	15530
914.68	15359
914.793	15401
914.906	15237
915.019	15169
915.132	15161
915.245	15157
915.358	15211
915.47	15100
915.583	15138
915.696	15161
915.809	15249
915.921	15287
916.034	15055
916.146	15062
916.259	15047
916.371	15188
916.483	15081
916.595	14929
916.708	14986
916.82	15051
916.932	14952
917.044	14952
917.156	14857
917.268	14834
917.38	14735
917.491	14781
917.603	14800
917.715	14838
917.826	14876
917.938	14754
918.049	14636
918.161	14758
918.272	14906
918.384	14883
918.495	14712
918.606	14579
918.717	14450
918.828	14659
918.939	14602
919.05	14454
919.161	14442
919.272	14328
919.383	14358
919.494	14678
919.604	14762
919.715	14549
919.826	14530
919.936	14537
920.047	14583
920.157	14522
920.267	14640
920.378	14560
920.488	14514
920.598	14629
920.708	14876
920.818	14689
920.928	14697
921.038	14773
921.148	14735
921.258	14514
921.368	14374
921.477	14237
921.587	14225
921.697	14126
921.806	14142
921.916	14123
922.025	14012
922.134	13830
922.244	13799
922.353	13936
922.462	13753
922.571	13750
922.68	13495
922.789	13487
922.898	13510
923.007	13556
923.116	13559
923.224	13544
923.333	13529
923.442	13400
923.55	13430
923.659	13373
923.767	13354
923.876	13297
923.984	13388
924.092	13236
924.201	13316
924.309	13293
924.417	13259
924.525	13270
924.633	13217
924.741	13887
924.849	13015
924.956	13133
925.064	13015
925.172	12829
925.279	12924
925.387	13012
925.494	12905
925.602	13053
925.709	12943
925.816	12837
925.924	12810
926.031	12875
926.138	12916
926.245	12916
926.352	12795
926.459	12886
926.566	12920
926.673	12840
926.779	12711
926.886	12741
926.993	12604
927.099	12467
927.206	12490
927.312	12467
927.419	12532
927.525	12517
927.631	12502
927.737	12437
927.843	12403
927.95	12277
928.056	12311
928.162	12403
928.267	12308
928.373	13027
928.479	12414
928.585	12243
928.69	12346
928.796	12251
928.901	12194
929.007	12110
929.112	12194
929.218	12125
929.323	12060
929.428	12102
929.533	12152
929.638	11931
929.743	12026
929.848	12030
929.953	12076
930.058	11916
930.163	11798
930.267	11756
930.372	11901
930.477	11707
930.581	12011
930.685	11840
930.79	11619
930.894	11790
930.998	11608
931.103	11771
931.207	11478
931.311	11296
931.415	11284
931.519	11018
931.623	11041
