Data from test_V78500241_3182.txt Node
Date: Fri Mar 25 16:03:50 CST 2022
User: usil
Spectrometer: V785-0024
Trigger mode: 0
Integration Time (sec): 4.000000E-1
Scans to average: 1
Nonlinearity correction enabled: false
Boxcar width: 0
Storing dark spectrum: false
XAxis mode: Wavelengths
Number of Pixels in Spectrum: 1024
>>>>>Begin Spectral Data<<<<<
801.071	28546
801.214	28683
801.356	28493
801.499	28356
801.641	28295
801.783	28230
801.926	28344
802.068	28268
802.211	28242
802.353	28177
802.496	28002
802.638	28158
802.78	27953
802.923	27888
803.065	27983
803.208	27785
803.35	27869
803.492	28120
803.635	28082
803.777	28097
803.919	28284
804.061	28455
804.204	28306
804.346	28200
804.488	28051
804.63	28310
804.773	28124
804.915	28257
805.057	28333
805.199	28219
805.341	28390
805.483	28352
805.626	28375
805.768	28401
805.91	28409
806.052	28573
806.194	28344
806.336	28428
806.478	28451
806.62	28447
806.762	28542
806.904	28634
807.046	28873
807.188	28858
807.33	28892
807.472	28858
807.614	28702
807.756	28755
807.898	28797
808.04	28580
808.182	28675
808.324	28634
808.465	28755
808.607	28881
808.749	29166
808.891	29079
809.033	29292
809.174	29128
809.316	29189
809.458	29151
809.6	29067
809.741	29075
809.883	29220
810.025	29322
810.166	29414
810.308	29322
810.45	29364
810.591	29143
810.733	29113
810.875	29079
811.016	29159
811.158	29094
811.299	29235
811.441	29349
811.582	29322
811.724	29037
811.865	29003
812.007	29143
812.148	28995
812.29	29193
812.431	29379
812.573	29505
812.714	29684
812.855	29657
812.997	29764
813.138	29862
813.279	29741
813.421	29558
813.562	29596
813.703	29547
813.845	29269
813.986	28949
814.127	28961
814.268	28717
814.41	28949
814.551	28812
814.692	28839
814.833	28710
814.974	28786
815.115	28839
815.256	28641
815.397	28668
815.539	28679
815.68	28729
815.821	28679
815.962	28698
816.103	28630
816.244	28432
816.385	28451
816.526	28481
816.666	28253
816.807	28211
816.948	28059
817.089	28181
817.23	28169
817.371	28124
817.512	28105
817.653	28074
817.793	27972
817.934	28101
818.075	28013
818.216	28067
818.356	28078
818.497	27998
818.638	27892
818.778	27819
818.919	27819
819.06	27873
819.2	27979
819.341	28200
819.481	28086
819.622	28462
819.762	28401
819.903	28382
820.043	28295
820.184	28352
820.324	28310
820.465	28291
820.605	28322
820.746	28284
820.886	28097
821.026	28196
821.167	28097
821.307	28344
821.447	28093
821.588	28074
821.728	27975
821.868	27762
822.008	27500
822.149	27599
822.289	27694
822.429	27279
822.569	27150
822.709	27412
822.849	27241
822.99	27230
823.13	27001
823.27	27100
823.41	26883
823.55	26785
823.69	26952
823.83	26933
823.97	26902
824.11	26765
824.25	26678
824.389	26765
824.529	26891
824.669	26754
824.809	26921
824.949	26853
825.089	26667
825.228	26819
825.368	26724
825.508	26526
825.648	26621
825.787	26708
825.927	26689
826.067	26632
826.206	26739
826.346	26796
826.485	26746
826.625	26606
826.765	26807
826.904	26701
827.044	26419
827.183	26385
827.323	26389
827.462	26415
827.601	26503
827.741	26339
827.88	26408
828.02	26218
828.159	26332
828.298	26374
828.437	26370
828.577	26309
828.716	26511
828.855	26332
828.994	26172
829.134	26119
829.273	26084
829.412	26005
829.551	25982
829.69	26073
829.829	25913
829.968	26054
830.107	26122
830.246	26096
830.385	25887
830.524	25951
830.663	25925
830.802	25769
830.941	25689
831.08	25639
831.219	25776
831.357	25677
831.496	25944
831.635	25658
831.774	25696
831.913	25601
832.051	25559
832.19	25350
832.329	25396
832.467	25396
832.606	25430
832.744	25346
832.883	25339
833.022	25209
833.16	25354
833.299	25354
833.437	25339
833.576	25487
833.714	25457
833.852	25365
833.991	25487
834.129	25544
834.267	25495
834.406	25438
834.544	25472
834.682	25407
834.821	25453
834.959	25559
835.097	25457
835.235	25392
835.373	25343
835.511	25293
835.65	25190
835.788	25088
835.926	25164
836.064	25034
836.202	25160
836.34	25198
836.478	25266
836.615	25255
836.753	25179
836.891	25289
837.029	25285
837.167	25133
837.305	25168
837.443	25141
837.58	25114
837.718	25168
837.856	25103
837.993	24943
838.131	24886
838.269	24989
838.406	24814
838.544	24890
838.681	24726
838.819	24673
838.956	24521
839.094	24361
839.231	24578
839.369	24593
839.506	24951
839.643	24692
839.781	24486
839.918	24429
840.055	24494
840.193	24483
840.33	24422
840.467	24547
840.604	24616
840.742	24711
840.879	24308
841.016	24285
841.153	24148
841.29	24555
841.427	24467
841.564	24334
841.701	24525
841.838	24300
841.975	24475
842.112	24437
842.249	24327
842.385	24087
842.522	24505
842.659	24350
842.796	24155
842.933	24205
843.069	24178
843.206	24224
843.343	24216
843.479	24251
843.616	24258
843.752	23931
843.889	24011
844.025	24171
844.162	23901
844.298	23965
844.435	23980
844.571	23988
844.708	24026
844.844	24140
844.98	24083
845.117	24057
845.253	23939
845.389	23817
845.525	23885
845.661	23840
845.798	23672
845.934	23726
846.07	23653
846.206	23722
846.342	23828
846.478	23676
846.614	23512
846.75	23395
846.886	23425
847.022	23406
847.158	23471
847.294	23383
847.429	23372
847.565	23421
847.701	23809
847.837	23140
847.972	23185
848.108	23288
848.244	23181
848.379	23037
848.515	22965
848.65	22991
848.786	22991
848.921	22862
849.057	23086
849.192	23140
849.328	23029
849.463	22946
849.598	22961
849.734	22938
849.869	22854
850.004	22736
850.14	22774
850.275	22725
850.41	22809
850.545	22733
850.68	22790
850.815	22881
850.95	22881
851.085	22972
851.22	22820
851.355	22801
851.49	22740
851.625	22755
851.76	22820
851.895	22774
852.03	22641
852.165	22733
852.299	22820
852.434	22885
852.569	22858
852.703	22713
852.838	22744
852.973	22965
853.107	22953
853.242	22702
853.376	22645
853.511	22565
853.645	22523
853.78	22710
853.914	22592
854.048	22535
854.183	22607
854.317	22599
854.451	22763
854.585	22603
854.72	22611
854.854	22607
854.988	22516
855.122	22592
855.256	22577
855.39	22588
855.524	22596
855.658	22561
855.792	22577
855.926	22569
856.06	22649
856.194	22675
856.327	22470
856.461	22649
856.595	22512
856.729	22527
856.862	22546
856.996	22577
857.13	22508
857.263	22664
857.397	22710
857.53	22538
857.664	22641
857.797	22698
857.931	22710
858.064	22630
858.197	22691
858.331	22493
858.464	22523
858.597	22424
858.731	22565
858.864	22588
858.997	22550
859.13	22565
859.263	22580
859.396	22634
859.529	22588
859.662	22611
859.795	22615
859.928	22470
860.061	22820
860.194	22782
860.327	22660
860.46	22649
860.592	22641
860.725	22710
860.858	22683
860.99	22519
861.123	22554
861.256	22440
861.388	22702
861.521	23391
861.653	22440
861.786	22314
861.918	22466
862.05	22421
862.183	22481
862.315	22478
862.447	22577
862.58	22561
862.712	22314
862.844	22215
862.976	22504
863.108	22386
863.24	22618
863.372	22150
863.504	22154
863.636	22196
863.768	22238
863.9	22390
864.032	22246
864.164	22280
864.296	22261
864.428	22386
864.559	22329
864.691	22348
864.823	22287
864.954	22276
865.086	22398
865.217	22234
865.349	22120
865.48	22086
865.612	22101
865.743	22223
865.875	22169
866.006	22169
866.137	22238
866.269	22150
866.4	22090
866.531	22101
866.662	22082
866.793	22097
866.924	22177
867.055	22143
867.186	22074
867.317	21945
867.448	22097
867.579	21895
867.71	22017
867.841	22074
867.972	22230
868.103	22093
868.233	22147
868.364	22158
868.495	22238
868.625	22432
868.756	22557
868.886	22272
869.017	22306
869.147	22409
869.278	22394
869.408	22310
869.539	22154
869.669	22356
869.799	22310
869.929	22443
870.06	22443
870.19	22717
870.32	22584
870.45	22710
870.58	22805
870.71	22820
870.84	22869
870.97	22584
871.1	22752
871.23	22934
871.36	22904
871.489	22763
871.619	22759
871.749	22923
871.879	22980
872.008	23041
872.138	22984
872.267	22805
872.397	22824
872.526	22729
872.656	22809
872.785	22740
872.915	22923
873.044	23060
873.173	22961
873.303	23052
873.432	23075
873.561	23029
873.69	22896
873.819	22984
873.948	22968
874.077	22946
874.206	22904
874.335	23003
874.464	23025
874.593	23143
874.722	23212
874.851	23064
874.979	23124
875.108	23128
875.237	23181
875.365	23155
875.494	23128
875.623	23193
875.751	23227
875.88	23265
876.008	23299
876.136	23425
876.265	23695
876.393	23809
876.521	23592
876.65	23691
876.778	23657
876.906	23436
877.034	23433
877.162	23539
877.29	23547
877.418	23604
877.546	23482
877.674	23455
877.802	23505
877.93	23436
878.058	23524
878.185	23444
878.313	23448
878.441	23497
878.568	23303
878.696	23360
878.824	23596
878.951	23672
879.079	23661
879.206	23756
879.333	23699
879.461	23493
879.588	23615
879.715	23653
879.842	23809
879.97	23573
880.097	23395
880.224	23280
880.351	23296
880.478	23353
880.605	23311
880.732	23452
880.859	23657
880.986	23303
881.112	23402
881.239	23216
881.366	23113
881.493	22995
881.619	22908
881.746	22908
881.872	22858
881.999	22946
882.125	22797
882.252	22953
882.378	22793
882.505	22919
882.631	22755
882.757	22474
882.883	22755
883.01	22618
883.136	22451
883.262	22478
883.388	22451
883.514	22561
883.64	22523
883.766	22481
883.892	22409
884.018	22432
884.143	22443
884.269	22523
884.395	22280
884.52	22192
884.646	22276
884.772	22223
884.897	22055
885.023	22215
885.148	22322
885.274	22322
885.399	22226
885.524	22177
885.65	22280
885.775	22223
885.9	22173
886.025	22303
886.15	22223
886.275	22306
886.4	22070
886.525	22116
886.65	22147
886.775	22044
886.9	22200
887.025	22432
887.149	22143
887.274	22017
887.399	21949
887.523	22070
887.648	21831
887.773	21911
887.897	22120
888.021	21994
888.146	21884
888.27	22101
888.395	21918
888.519	21934
888.643	22021
888.767	21945
888.891	21884
889.015	21812
889.139	21770
889.263	21755
889.387	21907
889.511	21975
889.635	21869
889.759	21698
889.883	21827
890.006	21690
890.13	21846
890.254	21701
890.377	21755
890.501	21492
890.624	21431
890.748	21545
890.871	21298
890.995	21313
891.118	21226
891.241	21374
891.364	21439
891.488	21424
891.611	21165
891.734	21302
891.857	21351
891.98	21310
892.103	21336
892.226	21256
892.349	21252
892.471	21070
892.594	21237
892.717	21302
892.839	21093
892.962	21199
893.085	21138
893.207	21173
893.33	21043
893.452	21116
893.575	21325
893.697	21154
893.819	21348
893.941	21340
894.064	21313
894.186	21096
894.308	21058
894.43	21142
894.552	21382
894.674	21218
894.796	21047
894.918	21123
895.04	21112
895.161	21260
895.283	21203
895.405	21005
895.526	21116
895.648	21077
895.769	21169
895.891	21211
896.012	21199
896.134	21173
896.255	21180
896.376	21100
896.498	21005
896.619	21165
896.74	21214
896.861	21279
896.982	21424
897.103	21660
897.224	21325
897.345	21382
897.466	21374
897.587	21317
897.708	21428
897.828	21382
897.949	21252
898.07	21176
898.19	21291
898.311	21298
898.431	21325
898.552	21374
898.672	21515
898.792	21397
898.913	21268
899.033	21222
899.153	21157
899.273	21013
899.393	21051
899.513	21230
899.633	21222
899.753	21108
899.873	21055
899.993	21058
900.113	21066
900.232	20998
900.352	20979
900.472	20918
900.591	20918
900.711	20800
900.83	20807
900.95	20952
901.069	20868
901.189	20735
901.308	20457
901.427	20320
901.546	20313
901.665	20358
901.784	20495
901.904	20252
902.023	20282
902.141	20012
902.26	20012
902.379	19978
902.498	19936
902.617	19925
902.735	19909
902.854	19917
902.973	19803
903.091	19658
903.21	19700
903.328	19571
903.446	19544
903.565	19304
903.683	19274
903.801	19255
903.919	19301
904.038	19263
904.156	19084
904.274	19247
904.392	19259
904.51	19061
904.627	19088
904.745	19278
904.863	19187
904.981	18973
905.098	18837
905.216	18905
905.334	18817
905.451	18890
905.569	18810
905.686	18859
905.803	18738
905.921	18479
906.038	18726
906.155	18582
906.272	18471
906.389	18380
906.506	18441
906.623	18414
906.74	18315
906.857	18247
906.974	18243
907.091	18315
907.208	18342
907.324	18380
907.441	18163
907.557	18079
907.674	18159
907.79	17904
907.907	18007
908.023	18034
908.139	18057
908.256	17961
908.372	18072
908.488	17863
908.604	17851
908.72	17745
908.836	17828
908.952	17649
909.068	17764
909.184	17756
909.3	17737
909.415	17920
909.531	17771
909.647	17318
909.762	17383
909.878	17414
909.993	17444
910.108	17414
910.224	17326
910.339	17372
910.454	17334
910.57	17269
910.685	17117
910.8	17410
910.915	17436
911.03	17250
911.145	17048
911.259	17083
911.374	17113
911.489	16866
911.604	16877
911.718	16790
911.833	16850
911.947	16679
912.062	16527
912.176	16713
912.291	16793
912.405	16744
912.519	16942
912.633	16934
912.748	16930
912.862	16733
912.976	16577
913.09	16489
913.204	16493
913.318	16611
913.431	16596
913.545	16630
913.659	16645
913.772	16428
913.886	16329
914	16424
914.113	16428
914.226	16466
914.34	16417
914.453	16211
914.566	16367
914.68	16192
914.793	16291
914.906	16051
915.019	16002
915.132	15911
915.245	15930
915.358	15960
915.47	15903
915.583	15918
915.696	16010
915.809	16143
915.921	15998
916.034	15880
916.146	15800
916.259	15827
916.371	15800
916.483	15835
916.595	15728
916.708	15739
916.82	15698
916.932	15705
917.044	15755
917.156	15599
917.268	15580
917.38	15656
917.491	15557
917.603	15648
917.715	15610
917.826	15641
917.938	15557
918.049	15351
918.161	15504
918.272	15667
918.384	15515
918.495	15492
918.606	15386
918.717	15370
918.828	15340
918.939	15313
919.05	15184
919.161	15233
919.272	15047
919.383	15154
919.494	15279
919.604	15523
919.715	15188
919.826	15135
919.936	15264
920.047	15370
920.157	15173
920.267	15401
920.378	15294
920.488	15233
920.598	15447
920.708	15507
920.818	15378
920.928	15378
921.038	15534
921.148	15496
921.258	15173
921.368	15020
921.477	14914
921.587	14929
921.697	14921
921.806	14971
921.916	14857
922.025	14590
922.134	14682
922.244	14590
922.353	14674
922.462	14396
922.571	14377
922.68	14271
922.789	14278
922.898	14271
923.007	14202
923.116	14271
923.224	14317
923.333	14126
923.442	14168
923.55	14031
923.659	14054
923.767	14172
923.876	14020
923.984	14020
924.092	13951
924.201	13993
924.309	13944
924.417	13932
924.525	13879
924.633	13928
924.741	14621
924.849	13616
924.956	13799
925.064	13647
925.172	13556
925.279	13597
925.387	13670
925.494	13666
925.602	13753
925.709	13624
925.816	13472
925.924	13578
926.031	13548
926.138	13510
926.245	13586
926.352	13453
926.459	13544
926.566	13643
926.673	13460
926.779	13331
926.886	13350
926.993	13213
927.099	13194
927.206	13179
927.312	13179
927.419	13183
927.525	13122
927.631	13255
927.737	13027
927.843	13027
927.95	12954
928.056	12856
928.162	12935
928.267	12947
928.373	13487
928.479	13050
928.585	12829
928.69	12848
928.796	12928
928.901	12817
929.007	12642
929.112	12798
929.218	12814
929.323	12673
929.428	12669
929.533	12772
929.638	12646
929.743	12642
929.848	12715
929.953	12585
930.058	12532
930.163	12330
930.267	12353
930.372	12460
930.477	12300
930.581	12589
930.685	12365
930.79	12182
930.894	12194
930.998	12190
931.103	12380
931.207	11999
931.311	11851
931.415	11718
931.519	11668
931.623	11547
