Data from test_V78500241_867.txt Node
Date: Fri Mar 25 15:47:48 CST 2022
User: usil
Spectrometer: V785-0024
Trigger mode: 0
Integration Time (sec): 4.000000E-1
Scans to average: 1
Nonlinearity correction enabled: false
Boxcar width: 0
Storing dark spectrum: false
XAxis mode: Wavelengths
Number of Pixels in Spectrum: 1024
>>>>>Begin Spectral Data<<<<<
801.071	27477
801.214	27435
801.356	27093
801.499	27203
801.641	26986
801.783	27013
801.926	26994
802.068	26845
802.211	26944
802.353	26819
802.496	26720
802.638	26556
802.78	26518
802.923	26530
803.065	26473
803.208	26545
803.35	26533
803.492	26632
803.635	26800
803.777	26727
803.919	26678
804.061	27214
804.204	26724
804.346	26712
804.488	26648
804.63	26636
804.773	26670
804.915	26773
805.057	26887
805.199	26815
805.341	26773
805.483	26948
805.626	26762
805.768	26826
805.91	26845
806.052	26971
806.194	26876
806.336	27032
806.478	26925
806.62	26895
806.762	27226
806.904	27142
807.046	27580
807.188	27393
807.33	27336
807.472	27568
807.614	27245
807.756	27287
807.898	27165
808.04	27291
808.182	27119
808.324	27188
808.465	27317
808.607	27397
808.749	27610
808.891	27568
809.033	27720
809.174	27583
809.316	27416
809.458	27393
809.6	27443
809.741	27686
809.883	27682
810.025	27899
810.166	27899
810.308	27907
810.45	27690
810.591	27568
810.733	27599
810.875	27576
811.016	27378
811.158	27466
811.299	27660
811.441	27641
811.582	27819
811.724	27667
811.865	27431
812.007	27504
812.148	27587
812.29	27519
812.431	27717
812.573	27918
812.714	27975
812.855	28188
812.997	28280
813.138	28261
813.279	28249
813.421	28131
813.562	27918
813.703	27895
813.845	27629
813.986	27458
814.127	27340
814.268	27157
814.41	27192
814.551	27123
814.692	27321
814.833	27154
814.974	27188
815.115	27245
815.256	27127
815.397	27043
815.539	26895
815.68	26899
815.821	26800
815.962	26971
816.103	27001
816.244	26765
816.385	26758
816.526	26758
816.666	26564
816.807	26518
816.948	26598
817.089	26602
817.23	26400
817.371	26408
817.512	26541
817.653	26423
817.793	26393
817.934	26431
818.075	26613
818.216	26629
818.356	26503
818.497	26336
818.638	26153
818.778	26138
818.919	26275
819.06	26195
819.2	26400
819.341	26332
819.481	26396
819.622	26590
819.762	26807
819.903	26750
820.043	26705
820.184	26617
820.324	26446
820.465	26636
820.605	26678
820.746	26636
820.886	26450
821.026	26606
821.167	26518
821.307	26720
821.447	26602
821.588	26408
821.728	26355
821.868	26225
822.008	25898
822.149	25940
822.289	25963
822.429	25597
822.569	25582
822.709	25639
822.849	25369
822.99	25483
823.13	25453
823.27	25373
823.41	25301
823.55	25244
823.69	25476
823.83	25232
823.97	25187
824.11	24985
824.25	24977
824.389	25183
824.529	25137
824.669	25126
824.809	25221
824.949	25240
825.089	25206
825.228	25091
825.368	24905
825.508	24817
825.648	25061
825.787	24932
825.927	25118
826.067	24943
826.206	24958
826.346	24935
826.485	24958
826.625	24996
826.765	25004
826.904	24954
827.044	24688
827.183	24658
827.323	24505
827.462	24764
827.601	24859
827.741	24601
827.88	24574
828.02	24582
828.159	24646
828.298	24559
828.437	24711
828.577	24669
828.716	24760
828.855	24639
828.994	24334
829.134	24342
829.273	24380
829.412	24311
829.551	24285
829.69	24289
829.829	24372
829.968	24418
830.107	24319
830.246	24327
830.385	24338
830.524	24327
830.663	24026
830.802	24038
830.941	23935
831.08	23939
831.219	24030
831.357	24034
831.496	24144
831.635	23923
831.774	23870
831.913	23764
832.051	23832
832.19	23802
832.329	23752
832.467	23699
832.606	23581
832.744	23600
832.883	23619
833.022	23528
833.16	23718
833.299	23775
833.437	23737
833.576	23714
833.714	23623
833.852	23752
833.991	23779
834.129	23775
834.267	23695
834.406	23767
834.544	23615
834.682	23783
834.821	23634
834.959	23946
835.097	23627
835.235	23714
835.373	23733
835.511	23611
835.65	23516
835.788	23608
835.926	23505
836.064	23341
836.202	23398
836.34	23493
836.478	23699
836.615	23596
836.753	23455
836.891	23581
837.029	23779
837.167	23406
837.305	23421
837.443	23395
837.58	23376
837.718	23436
837.856	23341
837.993	23330
838.131	23299
838.269	23299
838.406	23273
838.544	23185
838.681	22961
838.819	22987
838.956	22919
839.094	22790
839.231	22877
839.369	22987
839.506	23318
839.643	23102
839.781	22812
839.918	22748
840.055	22835
840.193	22839
840.33	22816
840.467	22869
840.604	22828
840.742	22965
840.879	22668
841.016	22637
841.153	22554
841.29	22904
841.427	22729
841.564	22774
841.701	22748
841.838	22683
841.975	22550
842.112	22691
842.249	22440
842.385	22413
842.522	22679
842.659	22584
842.796	22451
842.933	22447
843.069	22436
843.206	22500
843.343	22557
843.479	22470
843.616	22455
843.752	22280
843.889	22284
844.025	22421
844.162	22352
844.298	22329
844.435	22371
844.571	22215
844.708	22398
844.844	22497
844.98	22462
845.117	22417
845.253	22287
845.389	22086
845.525	22196
845.661	22154
845.798	22101
845.934	22143
846.07	22006
846.206	22112
846.342	22120
846.478	21994
846.614	21838
846.75	21701
846.886	21789
847.022	21884
847.158	21846
847.294	21842
847.429	21743
847.565	21755
847.701	21953
847.837	21553
847.972	21519
848.108	21553
848.244	21542
848.379	21359
848.515	21382
848.65	21367
848.786	21294
848.921	21389
849.057	21485
849.192	21416
849.328	21412
849.463	21363
849.598	21405
849.734	21226
849.869	21199
850.004	21211
850.14	21192
850.275	21150
850.41	20990
850.545	21005
850.68	21001
850.815	21275
850.95	21055
851.085	21275
851.22	21112
851.355	21093
851.49	21051
851.625	21074
851.76	21237
851.895	21074
852.03	21138
852.165	21112
852.299	21138
852.434	21131
852.569	21135
852.703	21195
852.838	21180
852.973	21165
853.107	21310
853.242	21127
853.376	20990
853.511	20880
853.645	20853
853.78	21104
853.914	20910
854.048	20944
854.183	20853
854.317	20998
854.451	21104
854.585	21058
854.72	21020
854.854	21135
854.988	20899
855.122	21039
855.256	20876
855.39	20963
855.524	20990
855.658	21013
855.792	21017
855.926	20887
856.06	21085
856.194	20933
856.327	20842
856.461	20929
856.595	20792
856.729	20944
856.862	21070
856.996	21051
857.13	21077
857.263	21077
857.397	21085
857.53	20887
857.664	20963
857.797	21020
857.931	21051
858.064	20956
858.197	21013
858.331	20941
858.464	20705
858.597	20933
858.731	20826
858.864	20872
858.997	20944
859.13	21024
859.263	20918
859.396	21001
859.529	20883
859.662	20952
859.795	20906
859.928	20925
860.061	21058
860.194	21131
860.327	21047
860.46	21043
860.592	20952
860.725	21218
860.858	21039
860.99	21058
861.123	20857
861.256	20788
861.388	21009
861.521	21568
861.653	20739
861.786	20788
861.918	20853
862.05	20902
862.183	20815
862.315	20857
862.447	20914
862.58	20895
862.712	20518
862.844	20689
862.976	20811
863.108	20746
863.24	21066
863.372	20583
863.504	20613
863.636	20727
863.768	20708
863.9	20640
864.032	20560
864.164	20583
864.296	20663
864.428	20819
864.559	20792
864.691	20746
864.823	20727
864.954	20644
865.086	20575
865.217	20686
865.349	20511
865.48	20716
865.612	20693
865.743	20716
865.875	20526
866.006	20549
866.137	20469
866.269	20575
866.4	20659
866.531	20552
866.662	20484
866.793	20461
866.924	20423
867.055	20636
867.186	20530
867.317	20336
867.448	20381
867.579	20511
867.71	20313
867.841	20317
867.972	20499
868.103	20457
868.233	20461
868.364	20423
868.495	20568
868.625	20701
868.756	20853
868.886	20663
869.017	20674
869.147	20887
869.278	20910
869.408	20769
869.539	20712
869.669	20868
869.799	20758
869.929	21005
870.06	20880
870.19	21081
870.32	21036
870.45	21020
870.58	21154
870.71	21104
870.84	21249
870.97	21131
871.1	21161
871.23	21272
871.36	21294
871.489	21275
871.619	21268
871.749	21287
871.879	21291
872.008	21481
872.138	21279
872.267	21294
872.397	21207
872.526	21051
872.656	21062
872.785	21283
872.915	21439
873.044	21481
873.173	21367
873.303	21477
873.432	21405
873.561	21545
873.69	21344
873.819	21439
873.948	21386
874.077	21268
874.206	21321
874.335	21294
874.464	21481
874.593	21682
874.722	21538
874.851	21561
874.979	21599
875.108	21793
875.237	21534
875.365	21462
875.494	21572
875.623	21637
875.751	21660
875.88	21667
876.008	21827
876.136	21842
876.265	21964
876.393	22082
876.521	22002
876.65	22158
876.778	22063
876.906	21983
877.034	21774
877.162	21998
877.29	21934
877.418	21979
877.546	21930
877.674	21983
877.802	22097
877.93	21911
878.058	21895
878.185	21876
878.313	21968
878.441	21895
878.568	21755
878.696	21922
878.824	21911
878.951	22067
879.079	22116
879.206	22169
879.333	22185
879.461	22013
879.588	22128
879.715	22158
879.842	22299
879.97	22013
880.097	21846
880.224	21846
880.351	21922
880.478	21816
880.605	21572
880.732	21831
880.859	22010
880.986	21846
881.112	21819
881.239	21698
881.366	21466
881.493	21458
881.619	21454
881.746	21363
881.872	21351
881.999	21321
882.125	21291
882.252	21325
882.378	21329
882.505	21363
882.631	21180
882.757	21119
882.883	21157
883.01	21039
883.136	21028
883.262	20891
883.388	20788
883.514	21074
883.64	21066
883.766	21047
883.892	20956
884.018	20838
884.143	20990
884.269	21020
884.395	20842
884.52	20678
884.646	20739
884.772	20522
884.897	20686
885.023	20644
885.148	20777
885.274	20819
885.399	20773
885.524	20625
885.65	20796
885.775	20781
885.9	20640
886.025	20777
886.15	20629
886.275	20655
886.4	20594
886.525	20674
886.65	20705
886.775	20735
886.9	20693
887.025	20899
887.149	20648
887.274	20625
887.399	20530
887.523	20427
887.648	20431
887.773	20389
887.897	20514
888.021	20594
888.146	20400
888.27	20537
888.395	20533
888.519	20396
888.643	20465
888.767	20602
888.891	20389
889.015	20461
889.139	20412
889.263	20237
889.387	20400
889.511	20450
889.635	20355
889.759	20294
889.883	20305
890.006	20240
890.13	20244
890.254	20073
890.377	20275
890.501	19951
890.624	19970
890.748	20164
890.871	19803
890.995	19788
891.118	19822
891.241	19913
891.364	19906
891.488	19963
891.611	19780
891.734	19898
891.857	19868
891.98	19947
892.103	19864
892.226	19921
892.349	19788
892.471	19689
892.594	19753
892.717	19776
892.839	19750
892.962	19906
893.085	19791
893.207	19769
893.33	19700
893.452	19704
893.575	19879
893.697	19655
893.819	19906
893.941	20058
894.064	19860
894.186	19643
894.308	19727
894.43	19738
894.552	19826
894.674	19841
894.796	19757
894.918	19715
895.04	19791
895.161	19731
895.283	19894
895.405	19708
895.526	19685
895.648	19662
895.769	19928
895.891	19723
896.012	19879
896.134	19833
896.255	19875
896.376	19723
896.498	19772
896.619	19776
896.74	19761
896.861	19940
896.982	19978
897.103	20206
897.224	20088
897.345	19928
897.466	19849
897.587	19963
897.708	20248
897.828	20035
897.949	19913
898.07	19917
898.19	20031
898.311	20073
898.431	20024
898.552	19951
898.672	20062
898.792	20035
898.913	20024
899.033	19970
899.153	19830
899.273	19769
899.393	19677
899.513	19788
899.633	19750
899.753	19788
899.873	19674
899.993	19776
900.113	19712
900.232	19681
900.352	19594
900.472	19540
900.591	19556
900.711	19616
900.83	19556
900.95	19734
901.069	19704
901.189	19392
901.308	19175
901.427	19168
901.546	19133
901.665	19202
901.784	19023
901.904	18985
902.023	18962
902.141	18696
902.26	18684
902.379	18730
902.498	18696
902.617	18551
902.735	18589
902.854	18734
902.973	18532
903.091	18372
903.21	18292
903.328	18330
903.446	18266
903.565	18155
903.683	18224
903.801	18076
903.919	18102
904.038	18159
904.156	17863
904.274	17999
904.392	17847
904.51	17882
904.627	17912
904.745	17946
904.863	17878
904.981	17665
905.098	17543
905.216	17566
905.334	17589
905.451	17600
905.569	17573
905.686	17539
905.803	17505
905.921	17356
906.038	17558
906.155	17463
906.272	17246
906.389	17326
906.506	17090
906.623	17117
906.74	17132
906.857	17045
906.974	16934
907.091	17140
907.208	17242
907.324	17155
907.441	17003
907.557	16881
907.674	16885
907.79	16774
907.907	16877
908.023	16854
908.139	16858
908.256	16687
908.372	16645
908.488	16759
908.604	16607
908.72	16436
908.836	16497
908.952	16504
909.068	16546
909.184	16580
909.3	16497
909.415	16607
909.531	16470
909.647	16341
909.762	16299
909.878	16272
909.993	16226
910.108	16158
910.224	16284
910.339	16287
910.454	16097
910.57	16017
910.685	16032
910.8	16287
910.915	16249
911.03	16025
911.145	15850
911.259	15770
911.374	15888
911.489	15762
911.604	15637
911.718	15644
911.833	15599
911.947	15576
912.062	15416
912.176	15652
912.291	15587
912.405	15694
912.519	15850
912.633	15770
912.748	15633
912.862	15614
912.976	15492
913.09	15268
913.204	15386
913.318	15431
913.431	15572
913.545	15534
913.659	15496
913.772	15351
913.886	15256
914	15317
914.113	15192
914.226	15348
914.34	15218
914.453	15104
914.566	15245
914.68	15089
914.793	15100
914.906	15009
915.019	14895
915.132	14716
915.245	14880
915.358	14864
915.47	14845
915.583	14777
915.696	14872
915.809	14868
915.921	14982
916.034	14785
916.146	14670
916.259	14735
916.371	14731
916.483	14842
916.595	14750
916.708	14545
916.82	14777
916.932	14655
917.044	14613
917.156	14575
917.268	14473
917.38	14636
917.491	14427
917.603	14579
917.715	14537
917.826	14583
917.938	14457
918.049	14298
918.161	14514
918.272	14579
918.384	14556
918.495	14415
918.606	14351
918.717	14229
918.828	14301
918.939	14267
919.05	14088
919.161	14244
919.272	14020
919.383	14046
919.494	14317
919.604	14518
919.715	14244
919.826	14119
919.936	14168
920.047	14366
920.157	14202
920.267	14419
920.378	14229
920.488	14237
920.598	14412
920.708	14549
920.818	14442
920.928	14431
921.038	14495
921.148	14579
921.258	14107
921.368	14134
921.477	14065
921.587	14077
921.697	13788
921.806	13989
921.916	13769
922.025	13643
922.134	13632
922.244	13639
922.353	13582
922.462	13495
922.571	13449
922.68	13388
922.789	13289
922.898	13327
923.007	13228
923.116	13312
923.224	13304
923.333	13255
923.442	13190
923.55	13122
923.659	13202
923.767	13103
923.876	13027
923.984	13129
924.092	13031
924.201	13095
924.309	12935
924.417	13149
924.525	12973
924.633	12875
924.741	13871
924.849	12730
924.956	12875
925.064	12749
925.172	12536
925.279	12711
925.387	12658
925.494	12707
925.602	12829
925.709	12757
925.816	12642
925.924	12654
926.031	12707
926.138	12635
926.245	12707
926.352	12498
926.459	12707
926.566	12703
926.673	12631
926.779	12456
926.886	12429
926.993	12422
927.099	12319
927.206	12315
927.312	12262
927.419	12330
927.525	12296
927.631	12285
927.737	12243
927.843	12175
927.95	12083
928.056	12136
928.162	12095
928.267	12194
928.373	12700
928.479	12125
928.585	11942
928.69	12053
928.796	12194
928.901	12087
929.007	11817
929.112	11992
929.218	11946
929.323	11893
929.428	11809
929.533	11999
929.638	11748
929.743	11779
929.848	11870
929.953	11752
930.058	11688
930.163	11535
930.267	11554
930.372	11714
930.477	11509
930.581	11718
930.685	11615
930.79	11486
930.894	11459
930.998	11436
931.103	11520
931.207	11204
931.311	11128
931.415	10915
931.519	10771
931.623	10831
