Data from test_V78500241_1809.txt Node
Date: Fri Mar 25 15:54:19 CST 2022
User: usil
Spectrometer: V785-0024
Trigger mode: 0
Integration Time (sec): 4.000000E-1
Scans to average: 1
Nonlinearity correction enabled: false
Boxcar width: 0
Storing dark spectrum: false
XAxis mode: Wavelengths
Number of Pixels in Spectrum: 1024
>>>>>Begin Spectral Data<<<<<
801.071	28470
801.214	28424
801.356	28215
801.499	28291
801.641	28051
801.783	28105
801.926	28154
802.068	28055
802.211	28082
802.353	28021
802.496	27873
802.638	27842
802.78	27785
802.923	27675
803.065	27641
803.208	27637
803.35	27865
803.492	27903
803.635	27945
803.777	27762
803.919	27968
804.061	28268
804.204	27994
804.346	27842
804.488	27884
804.63	28059
804.773	27907
804.915	28093
805.057	28211
805.199	27914
805.341	28139
805.483	28188
805.626	28207
805.768	27975
805.91	28257
806.052	28147
806.194	28135
806.336	28306
806.478	28017
806.62	28025
806.762	28310
806.904	28443
807.046	28584
807.188	28546
807.33	28649
807.472	28561
807.614	28504
807.756	28656
807.898	28428
808.04	28398
808.182	28379
808.324	28466
808.465	28485
808.607	28706
808.749	28645
808.891	29022
809.033	29124
809.174	28797
809.316	28828
809.458	28816
809.6	28923
809.741	28869
809.883	29098
810.025	29132
810.166	29170
810.308	29166
810.45	29128
810.591	28949
810.733	28828
810.875	28702
811.016	28717
811.158	28733
811.299	28896
811.441	28987
811.582	28987
811.724	28797
811.865	28744
812.007	28790
812.148	28767
812.29	28919
812.431	29003
812.573	29273
812.714	29178
812.855	29208
812.997	29433
813.138	29551
813.279	29554
813.421	29326
813.562	29250
813.703	29025
813.845	29037
813.986	28812
814.127	28611
814.268	28611
814.41	28599
814.551	28542
814.692	28596
814.833	28474
814.974	28565
815.115	28588
815.256	28550
815.397	28466
815.539	28303
815.68	28341
815.821	28234
815.962	28409
816.103	28371
816.244	28207
816.385	28242
816.526	28112
816.666	27873
816.807	27819
816.948	27918
817.089	27937
817.23	27785
817.371	27899
817.512	27778
817.653	27823
817.793	27819
817.934	27823
818.075	27808
818.216	27949
818.356	27739
818.497	27648
818.638	27545
818.778	27675
818.919	27736
819.06	27603
819.2	27720
819.341	27739
819.481	27869
819.622	28109
819.762	28112
819.903	28093
820.043	28135
820.184	27979
820.324	28067
820.465	28166
820.605	27987
820.746	27953
820.886	27816
821.026	28128
821.167	27895
821.307	27899
821.447	27861
821.588	27899
821.728	27751
821.868	27595
822.008	27310
822.149	27188
822.289	27302
822.429	27013
822.569	26857
822.709	27085
822.849	26781
822.99	26876
823.13	26849
823.27	26708
823.41	26655
823.55	26617
823.69	26746
823.83	26788
823.97	26640
824.11	26469
824.25	26541
824.389	26469
824.529	26609
824.669	26450
824.809	26625
824.949	26674
825.089	26552
825.228	26644
825.368	26309
825.508	26336
825.648	26328
825.787	26370
825.927	26453
826.067	26358
826.206	26336
826.346	26358
826.485	26431
826.625	26389
826.765	26423
826.904	26320
827.044	26225
827.183	26054
827.323	26130
827.462	26115
827.601	26005
827.741	26065
827.88	26088
828.02	25944
828.159	26100
828.298	26161
828.437	26157
828.577	25997
828.716	26161
828.855	26100
828.994	25814
829.134	25772
829.273	25852
829.412	25632
829.551	25753
829.69	25723
829.829	25750
829.968	25852
830.107	25750
830.246	25799
830.385	25696
830.524	25666
830.663	25415
830.802	25339
830.941	25403
831.08	25441
831.219	25308
831.357	25540
831.496	25685
831.635	25384
831.774	25419
831.913	25194
832.051	25217
832.19	25156
832.329	25095
832.467	25004
832.606	25091
832.744	25114
832.883	25000
833.022	25027
833.16	25000
833.299	25088
833.437	25050
833.576	25053
833.714	25042
833.852	25122
833.991	25179
834.129	25187
834.267	25274
834.406	25019
834.544	25072
834.682	25129
834.821	25103
834.959	25266
835.097	25175
835.235	25129
835.373	25057
835.511	25042
835.65	24897
835.788	24947
835.926	24886
836.064	24852
836.202	24840
836.34	24970
836.478	25012
836.615	24837
836.753	24852
836.891	24970
837.029	24890
837.167	24863
837.305	24745
837.443	24897
837.58	24700
837.718	24844
837.856	24738
837.993	24677
838.131	24646
838.269	24536
838.406	24574
838.544	24464
838.681	24429
838.819	24475
838.956	24220
839.094	24201
839.231	24224
839.369	24353
839.506	24498
839.643	24445
839.781	24239
839.918	24057
840.055	24121
840.193	24194
840.33	24167
840.467	24121
840.604	24159
840.742	24311
840.879	24049
841.016	24064
841.153	23954
841.29	24136
841.427	24098
841.564	24060
841.701	24057
841.838	23988
841.975	24041
842.112	24038
842.249	23988
842.385	23863
842.522	24034
842.659	23950
842.796	23870
842.933	23821
843.069	23813
843.206	23794
843.343	23996
843.479	23950
843.616	23870
843.752	23627
843.889	23486
844.025	23798
844.162	23535
844.298	23665
844.435	23535
844.571	23634
844.708	23680
844.844	23809
844.98	23840
845.117	23748
845.253	23596
845.389	23467
845.525	23558
845.661	23482
845.798	23364
845.934	23490
846.07	23379
846.206	23372
846.342	23497
846.478	23436
846.614	23075
846.75	23010
846.886	22995
847.022	23181
847.158	23113
847.294	23029
847.429	23197
847.565	23174
847.701	23265
847.837	22812
847.972	22816
848.108	22866
848.244	22961
848.379	22698
848.515	22706
848.65	22649
848.786	22721
848.921	22717
849.057	22839
849.192	22744
849.328	22675
849.463	22634
849.598	22577
849.734	22626
849.869	22474
850.004	22356
850.14	22550
850.275	22367
850.41	22280
850.545	22489
850.68	22405
850.815	22554
850.95	22462
851.085	22660
851.22	22603
851.355	22493
851.49	22500
851.625	22428
851.76	22386
851.895	22436
852.03	22382
852.165	22363
852.299	22443
852.434	22478
852.569	22535
852.703	22474
852.838	22523
852.973	22462
853.107	22607
853.242	22352
853.376	22249
853.511	22192
853.645	22128
853.78	22455
853.914	22409
854.048	22238
854.183	22207
854.317	22382
854.451	22485
854.585	22314
854.72	22177
854.854	22409
854.988	22051
855.122	22257
855.256	22143
855.39	22314
855.524	22322
855.658	22253
855.792	22207
855.926	22287
856.06	22219
856.194	22344
856.327	22234
856.461	22409
856.595	22310
856.729	22226
856.862	22371
856.996	22325
857.13	22360
857.263	22337
857.397	22405
857.53	22249
857.664	22341
857.797	22363
857.931	22398
858.064	22337
858.197	22291
858.331	22230
858.464	22162
858.597	22147
858.731	22348
858.864	22314
858.997	22234
859.13	22234
859.263	22367
859.396	22257
859.529	22147
859.662	22150
859.795	22166
859.928	22177
860.061	22417
860.194	22424
860.327	22371
860.46	22249
860.592	22436
860.725	22443
860.858	22344
860.99	22306
861.123	22207
861.256	22268
861.388	22154
861.521	22965
861.653	22139
861.786	22078
861.918	22063
862.05	22131
862.183	22185
862.315	22158
862.447	22219
862.58	22215
862.712	22090
862.844	22040
862.976	22097
863.108	22055
863.24	22413
863.372	21907
863.504	21945
863.636	21998
863.768	22044
863.9	21930
864.032	21873
864.164	21907
864.296	21956
864.428	22124
864.559	22017
864.691	21972
864.823	22006
864.954	21937
865.086	21819
865.217	21983
865.349	21743
865.48	21797
865.612	21808
865.743	22055
865.875	21949
866.006	21800
866.137	21846
866.269	21876
866.4	21850
866.531	21915
866.662	21762
866.793	21698
866.924	21835
867.055	21812
867.186	21732
867.317	21808
867.448	21705
867.579	21568
867.71	21679
867.841	21717
867.972	21720
868.103	21720
868.233	21709
868.364	21743
868.495	21861
868.625	21964
868.756	21949
868.886	22051
869.017	22048
869.147	22257
869.278	22147
869.408	22040
869.539	22055
869.669	22185
869.799	22036
869.929	22116
870.06	22109
870.19	22379
870.32	22405
870.45	22341
870.58	22440
870.71	22531
870.84	22577
870.97	22462
871.1	22500
871.23	22565
871.36	22683
871.489	22527
871.619	22538
871.749	22641
871.879	22607
872.008	22687
872.138	22687
872.267	22691
872.397	22519
872.526	22432
872.656	22405
872.785	22462
872.915	22710
873.044	22622
873.173	22535
873.303	22774
873.432	22637
873.561	22691
873.69	22706
873.819	22649
873.948	22713
874.077	22694
874.206	22599
874.335	22660
874.464	22660
874.593	22869
874.722	22866
874.851	22862
874.979	22881
875.108	22904
875.237	22885
875.365	22771
875.494	22881
875.623	22946
875.751	22733
875.88	22774
876.008	22938
876.136	22968
876.265	23349
876.393	23322
876.521	23277
876.65	23334
876.778	23204
876.906	23102
877.034	23128
877.162	23143
877.29	23079
877.418	23189
877.546	23181
877.674	23098
877.802	23162
877.93	23204
878.058	23254
878.185	23052
878.313	23159
878.441	23147
878.568	22957
878.696	23189
878.824	23216
878.951	23425
879.079	23345
879.206	23463
879.333	23440
879.461	23311
879.588	23383
879.715	23459
879.842	23524
879.97	23280
880.097	23041
880.224	23056
880.351	23113
880.478	22968
880.605	22828
880.732	23098
880.859	23334
880.986	23121
881.112	22942
881.239	22930
881.366	22805
881.493	22679
881.619	22615
881.746	22630
881.872	22626
881.999	22508
882.125	22527
882.252	22580
882.378	22557
882.505	22596
882.631	22436
882.757	22367
882.883	22497
883.01	22192
883.136	22234
883.262	22158
883.388	22109
883.514	22379
883.64	22299
883.766	22105
883.892	21994
884.018	22135
884.143	22215
884.269	22215
884.395	21998
884.52	21918
884.646	22025
884.772	21705
884.897	21736
885.023	21804
885.148	21968
885.274	22040
885.399	21956
885.524	21991
885.65	21899
885.775	21987
885.9	21949
886.025	21915
886.15	21766
886.275	21774
886.4	21717
886.525	21884
886.65	21816
886.775	21667
886.9	21926
887.025	22048
887.149	21808
887.274	21705
887.399	21686
887.523	21595
887.648	21705
887.773	21564
887.897	21732
888.021	21583
888.146	21572
888.27	21629
888.395	21785
888.519	21694
888.643	21667
888.767	21698
888.891	21538
889.015	21542
889.139	21469
889.263	21355
889.387	21485
889.511	21633
889.635	21633
889.759	21496
889.883	21374
890.006	21481
890.13	21462
890.254	21298
890.377	21260
890.501	21287
890.624	21150
890.748	21226
890.871	21150
890.995	21043
891.118	20979
891.241	21051
891.364	21077
891.488	21024
891.611	20902
891.734	20887
891.857	21066
891.98	21005
892.103	21104
892.226	20994
892.349	20979
892.471	20819
892.594	20781
892.717	20944
892.839	20944
892.962	20914
893.085	20857
893.207	20864
893.33	20792
893.452	20746
893.575	21032
893.697	20819
893.819	21032
893.941	21157
894.064	21077
894.186	20921
894.308	20712
894.43	20895
894.552	21051
894.674	20902
894.796	20765
894.918	20906
895.04	20788
895.161	20902
895.283	20880
895.405	20823
895.526	20800
895.648	20883
895.769	20853
895.891	20971
896.012	20925
896.134	20902
896.255	20826
896.376	20762
896.498	20880
896.619	20986
896.74	20861
896.861	20811
896.982	21218
897.103	21351
897.224	21119
897.345	21043
897.466	21013
897.587	21112
897.708	21211
897.828	21127
897.949	20963
898.07	20944
898.19	21017
898.311	21108
898.431	21051
898.552	21093
898.672	21249
898.792	21085
898.913	20979
899.033	21032
899.153	21028
899.273	20811
899.393	20765
899.513	20773
899.633	20754
899.753	20823
899.873	20796
899.993	20849
900.113	20674
900.232	20838
900.352	20777
900.472	20708
900.591	20492
900.711	20537
900.83	20564
900.95	20663
901.069	20606
901.189	20526
901.308	20191
901.427	20218
901.546	20176
901.665	20195
901.784	20168
901.904	20020
902.023	19917
902.141	19814
902.26	19742
902.379	19780
902.498	19715
902.617	19655
902.735	19681
902.854	19639
902.973	19533
903.091	19320
903.21	19369
903.328	19320
903.446	19331
903.565	19171
903.683	19232
903.801	18989
903.919	19103
904.038	19080
904.156	18928
904.274	18973
904.392	18779
904.51	18768
904.627	18894
904.745	18863
904.863	18993
904.981	18711
905.098	18608
905.216	18471
905.334	18654
905.451	18658
905.569	18532
905.686	18544
905.803	18601
905.921	18372
906.038	18437
906.155	18403
906.272	18266
906.389	18228
906.506	18159
906.623	18121
906.74	18068
906.857	18049
906.974	17958
907.091	18064
907.208	18133
907.324	18022
907.441	18003
907.557	17779
907.674	17687
907.79	17767
907.907	17665
908.023	17855
908.139	17874
908.256	17687
908.372	17707
908.488	17775
908.604	17566
908.72	17512
908.836	17562
908.952	17452
909.068	17433
909.184	17634
909.3	17448
909.415	17497
909.531	17452
909.647	17250
909.762	17197
909.878	17258
909.993	17193
910.108	17155
910.224	17174
910.339	17204
910.454	16999
910.57	17098
910.685	16968
910.8	17212
910.915	17102
911.03	17014
911.145	16942
911.259	16733
911.374	16767
911.489	16687
911.604	16645
911.718	16531
911.833	16508
911.947	16428
912.062	16291
912.176	16561
912.291	16436
912.405	16569
912.519	16710
912.633	16664
912.748	16493
912.862	16466
912.976	16440
913.09	16185
913.204	16325
913.318	16382
913.431	16386
913.545	16333
913.659	16478
913.772	16211
913.886	16143
914	16246
914.113	16291
914.226	16325
914.34	16154
914.453	15949
914.566	16211
914.68	16021
914.793	15930
914.906	15880
915.019	15686
915.132	15675
915.245	15728
915.358	15728
915.47	15713
915.583	15724
915.696	15785
915.809	15797
915.921	15968
916.034	15614
916.146	15515
916.259	15637
916.371	15599
916.483	15641
916.595	15568
916.708	15466
916.82	15561
916.932	15450
917.044	15553
917.156	15443
917.268	15344
917.38	15359
917.491	15329
917.603	15363
917.715	15412
917.826	15408
917.938	15214
918.049	15245
918.161	15367
918.272	15545
918.384	15370
918.495	15310
918.606	15108
918.717	15097
918.828	15161
918.939	15214
919.05	15047
919.161	15131
919.272	14876
919.383	15013
919.494	15097
919.604	15378
919.715	15142
919.826	14944
919.936	15001
920.047	15108
920.157	15074
920.267	15291
920.378	15024
920.488	15104
920.598	15192
920.708	15302
920.818	15180
920.928	15302
921.038	15359
921.148	15211
921.258	15043
921.368	14925
921.477	14830
921.587	14781
921.697	14682
921.806	14807
921.916	14735
922.025	14549
922.134	14514
922.244	14313
922.353	14484
922.462	14339
922.571	14271
922.68	14119
922.789	14088
922.898	14024
923.007	14054
923.116	14103
923.224	14012
923.333	14077
923.442	13989
923.55	13845
923.659	13879
923.767	13940
923.876	13818
923.984	13925
924.092	13765
924.201	13757
924.309	13818
924.417	13734
924.525	13757
924.633	13746
924.741	14423
924.849	13552
924.956	13613
925.064	13445
925.172	13430
925.279	13495
925.387	13438
925.494	13434
925.602	13643
925.709	13430
925.816	13388
925.924	13324
926.031	13434
926.138	13346
926.245	13430
926.352	13297
926.459	13449
926.566	13468
926.673	13396
926.779	13240
926.886	13244
926.993	13046
927.099	13095
927.206	12958
927.312	12890
927.419	13053
927.525	13023
927.631	12977
927.737	12875
927.843	12848
927.95	12791
928.056	12825
928.162	12871
928.267	12829
928.373	13502
928.479	12871
928.585	12677
928.69	12791
928.796	12791
928.901	12715
929.007	12540
929.112	12673
929.218	12620
929.323	12616
929.428	12452
929.533	12669
929.638	12490
929.743	12544
929.848	12460
929.953	12471
930.058	12342
930.163	12125
930.267	12235
930.372	12357
930.477	12167
930.581	12376
930.685	12159
930.79	12091
930.894	12095
930.998	12045
931.103	12182
931.207	11809
931.311	11771
931.415	11646
931.519	11417
931.623	11455
