Data from test_V78500241_466.txt Node
Date: Fri Mar 25 15:45:01 CST 2022
User: usil
Spectrometer: V785-0024
Trigger mode: 0
Integration Time (sec): 4.000000E-1
Scans to average: 1
Nonlinearity correction enabled: false
Boxcar width: 0
Storing dark spectrum: false
XAxis mode: Wavelengths
Number of Pixels in Spectrum: 1024
>>>>>Begin Spectral Data<<<<<
801.071	27660
801.214	27606
801.356	27473
801.499	27279
801.641	27275
801.783	27192
801.926	27287
802.068	27127
802.211	27028
802.353	26956
802.496	26887
802.638	26963
802.78	26914
802.923	26899
803.065	26785
803.208	26667
803.35	26788
803.492	26982
803.635	27062
803.777	26887
803.919	26921
804.061	27321
804.204	27051
804.346	26967
804.488	26765
804.63	26944
804.773	26918
804.915	26982
805.057	27150
805.199	26918
805.341	27096
805.483	27093
805.626	27085
805.768	26990
805.91	27112
806.052	27131
806.194	26990
806.336	27199
806.478	27058
806.62	27146
806.762	27173
806.904	27336
807.046	27625
807.188	27492
807.33	27485
807.472	27473
807.614	27496
807.756	27633
807.898	27427
808.04	27188
808.182	27272
808.324	27504
808.465	27496
808.607	27549
808.749	27728
808.891	27854
809.033	27835
809.174	27812
809.316	27701
809.458	27709
809.6	27759
809.741	27914
809.883	27983
810.025	27964
810.166	28029
810.308	28101
810.45	27991
810.591	28025
810.733	27800
810.875	27770
811.016	27576
811.158	27622
811.299	27907
811.441	27903
811.582	27705
811.724	27690
811.865	27656
812.007	27751
812.148	27720
812.29	27785
812.431	27831
812.573	28124
812.714	28211
812.855	28188
812.997	28356
813.138	28497
813.279	28401
813.421	28128
813.562	28147
813.703	28013
813.845	27804
813.986	27557
814.127	27511
814.268	27359
814.41	27211
814.551	27340
814.692	27507
814.833	27260
814.974	27344
815.115	27462
815.256	27291
815.397	27195
815.539	27279
815.68	27252
815.821	27173
815.962	27165
816.103	27142
816.244	27055
816.385	26929
816.526	26940
816.666	26765
816.807	26746
816.948	26724
817.089	26769
817.23	26788
817.371	26632
817.512	26651
817.653	26720
817.793	26579
817.934	26632
818.075	26708
818.216	26594
818.356	26560
818.497	26526
818.638	26431
818.778	26286
818.919	26427
819.06	26446
819.2	26499
819.341	26480
819.481	26686
819.622	26735
819.762	26925
819.903	26948
820.043	26842
820.184	26583
820.324	26823
820.465	26895
820.605	26655
820.746	26891
820.886	26716
821.026	26769
821.167	26705
821.307	26663
821.447	26598
821.588	26484
821.728	26385
821.868	26286
822.008	26084
822.149	26092
822.289	26039
822.429	25795
822.569	25833
822.709	25765
822.849	25582
822.99	25681
823.13	25590
823.27	25548
823.41	25468
823.55	25289
823.69	25411
823.83	25499
823.97	25289
824.11	25164
824.25	25110
824.389	25308
824.529	25346
824.669	25339
824.809	25381
824.949	25255
825.089	25384
825.228	25209
825.368	25031
825.508	25057
825.648	24962
825.787	25122
825.927	25183
826.067	25118
826.206	25023
826.346	25057
826.485	25088
826.625	25004
826.765	25221
826.904	25110
827.044	24985
827.183	24806
827.323	24776
827.462	24852
827.601	24894
827.741	24783
827.88	24776
828.02	24627
828.159	24856
828.298	24810
828.437	24890
828.577	24764
828.716	24711
828.855	24661
828.994	24429
829.134	24616
829.273	24509
829.412	24505
829.551	24426
829.69	24555
829.829	24490
829.968	24715
830.107	24612
830.246	24460
830.385	24471
830.524	24376
830.663	24376
830.802	24224
830.941	24133
831.08	24072
831.219	24216
831.357	24171
831.496	24308
831.635	24129
831.774	24011
831.913	23927
832.051	23809
832.19	23821
832.329	23980
832.467	23752
832.606	23741
832.744	23672
832.883	23786
833.022	23775
833.16	23752
833.299	23840
833.437	23832
833.576	23897
833.714	23847
833.852	23824
833.991	23946
834.129	23843
834.267	23824
834.406	23779
834.544	23874
834.682	23863
834.821	23885
834.959	23897
835.097	23851
835.235	23939
835.373	23809
835.511	23783
835.65	23600
835.788	23756
835.926	23505
836.064	23497
836.202	23474
836.34	23619
836.478	23714
836.615	23604
836.753	23623
836.891	23638
837.029	23657
837.167	23573
837.305	23611
837.443	23630
837.58	23444
837.718	23535
837.856	23524
837.993	23337
838.131	23505
838.269	23307
838.406	23440
838.544	23239
838.681	23193
838.819	23204
838.956	22911
839.094	22854
839.231	22904
839.369	23033
839.506	23265
839.643	23189
839.781	22904
839.918	22942
840.055	22934
840.193	23029
840.33	22786
840.467	22984
840.604	22938
840.742	23261
840.879	22710
841.016	22881
841.153	22774
841.29	22972
841.427	22904
841.564	22915
841.701	22858
841.838	22915
841.975	22755
842.112	22831
842.249	22577
842.385	22611
842.522	22889
842.659	22694
842.796	22630
842.933	22573
843.069	22664
843.206	22470
843.343	22660
843.479	22618
843.616	22561
843.752	22459
843.889	22379
844.025	22569
844.162	22325
844.298	22504
844.435	22405
844.571	22306
844.708	22421
844.844	22622
844.98	22573
845.117	22554
845.253	22352
845.389	22223
845.525	22226
845.661	22257
845.798	22070
845.934	22246
846.07	22135
846.206	22139
846.342	22314
846.478	22124
846.614	21991
846.75	21861
846.886	21850
847.022	21884
847.158	21926
847.294	21876
847.429	21907
847.565	21804
847.701	22124
847.837	21663
847.972	21477
848.108	21610
848.244	21671
848.379	21614
848.515	21408
848.65	21340
848.786	21523
848.921	21507
849.057	21599
849.192	21625
849.328	21553
849.463	21439
849.598	21355
849.734	21389
849.869	21233
850.004	21325
850.14	21283
850.275	21211
850.41	21154
850.545	21192
850.68	21233
850.815	21180
850.95	21275
851.085	21340
851.22	21294
851.355	21104
851.49	21180
851.625	21119
851.76	21241
851.895	21127
852.03	21032
852.165	21176
852.299	21157
852.434	21325
852.569	21112
852.703	21104
852.838	21397
852.973	21173
853.107	21321
853.242	21119
853.376	21043
853.511	20963
853.645	21020
853.78	21161
853.914	21138
854.048	20914
854.183	20925
854.317	20937
854.451	21279
854.585	21028
854.72	20994
854.854	21138
854.988	20861
855.122	21013
855.256	20906
855.39	21024
855.524	21036
855.658	21123
855.792	21043
855.926	21047
856.06	21195
856.194	21081
856.327	21043
856.461	20899
856.595	21001
856.729	21039
856.862	21123
856.996	21043
857.13	21062
857.263	21112
857.397	21161
857.53	21047
857.664	20986
857.797	21203
857.931	21070
858.064	21093
858.197	21070
858.331	20952
858.464	20990
858.597	20906
858.731	20948
858.864	21051
858.997	20899
859.13	20914
859.263	21093
859.396	21070
859.529	20975
859.662	20990
859.795	21066
859.928	21032
860.061	21131
860.194	21161
860.327	21020
860.46	21005
860.592	21058
860.725	21188
860.858	21218
860.99	21077
861.123	20960
861.256	20948
861.388	20967
861.521	21739
861.653	20906
861.786	20944
861.918	20834
862.05	20979
862.183	20864
862.315	21074
862.447	21017
862.58	20823
862.712	20762
862.844	20632
862.976	20868
863.108	20826
863.24	21252
863.372	20720
863.504	20731
863.636	20632
863.768	20708
863.9	20705
864.032	20533
864.164	20678
864.296	20792
864.428	20861
864.559	20777
864.691	20929
864.823	20826
864.954	20785
865.086	20754
865.217	20739
865.349	20492
865.48	20556
865.612	20659
865.743	20743
865.875	20602
866.006	20537
866.137	20617
866.269	20552
866.4	20606
866.531	20549
866.662	20495
866.793	20514
866.924	20587
867.055	20575
867.186	20537
867.317	20507
867.448	20549
867.579	20571
867.71	20587
867.841	20400
867.972	20625
868.103	20522
868.233	20598
868.364	20617
868.495	20575
868.625	20762
868.756	20910
868.886	20777
869.017	20785
869.147	20921
869.278	20914
869.408	20708
869.539	20785
869.669	20872
869.799	20899
869.929	20998
870.06	20975
870.19	21135
870.32	21047
870.45	21142
870.58	21237
870.71	21329
870.84	21222
870.97	21294
871.1	21279
871.23	21317
871.36	21348
871.489	21340
871.619	21256
871.749	21420
871.879	21416
872.008	21511
872.138	21450
872.267	21412
872.397	21317
872.526	21283
872.656	21287
872.785	21264
872.915	21401
873.044	21618
873.173	21416
873.303	21397
873.432	21500
873.561	21523
873.69	21473
873.819	21374
873.948	21424
874.077	21454
874.206	21397
874.335	21466
874.464	21637
874.593	21739
874.722	21797
874.851	21755
874.979	21827
875.108	21857
875.237	21652
875.365	21610
875.494	21667
875.623	21694
875.751	21637
875.88	21644
876.008	21770
876.136	22006
876.265	22101
876.393	22295
876.521	22093
876.65	22143
876.778	22032
876.906	22063
877.034	22002
877.162	21998
877.29	21979
877.418	21987
877.546	22131
877.674	22036
877.802	22029
877.93	21934
878.058	21941
878.185	21983
878.313	21964
878.441	21850
878.568	21918
878.696	21972
878.824	22074
878.951	21953
879.079	22253
879.206	22382
879.333	22192
879.461	22010
879.588	22059
879.715	22242
879.842	22306
879.97	22215
880.097	21831
880.224	21797
880.351	21778
880.478	21911
880.605	21739
880.732	21823
880.859	22067
880.986	21953
881.112	21987
881.239	21736
881.366	21603
881.493	21526
881.619	21450
881.746	21389
881.872	21557
881.999	21359
882.125	21359
882.252	21553
882.378	21462
882.505	21439
882.631	21344
882.757	21127
882.883	21127
883.01	21154
883.136	20998
883.262	20994
883.388	20963
883.514	21249
883.64	21123
883.766	21017
883.892	20937
884.018	20990
884.143	21116
884.269	21294
884.395	20838
884.52	20861
884.646	20777
884.772	20807
884.897	20689
885.023	20982
885.148	20701
885.274	20948
885.399	20899
885.524	20708
885.65	20754
885.775	20830
885.9	20724
886.025	20842
886.15	20765
886.275	20758
886.4	20625
886.525	20762
886.65	20701
886.775	20670
886.9	20861
887.025	21085
887.149	20621
887.274	20549
887.399	20560
887.523	20640
887.648	20503
887.773	20484
887.897	20648
888.021	20659
888.146	20404
888.27	20590
888.395	20617
888.519	20499
888.643	20537
888.767	20587
888.891	20484
889.015	20248
889.139	20507
889.263	20423
889.387	20507
889.511	20526
889.635	20503
889.759	20320
889.883	20374
890.006	20415
890.13	20465
890.254	20244
890.377	20252
890.501	20012
890.624	20138
890.748	20122
890.871	20020
890.995	19887
891.118	19807
891.241	19947
891.364	19871
891.488	19978
891.611	19852
891.734	19928
891.857	19883
891.98	19906
892.103	20020
892.226	20005
892.349	19822
892.471	19769
892.594	19875
892.717	19997
892.839	19803
892.962	19818
893.085	19909
893.207	19871
893.33	19727
893.452	19719
893.575	19788
893.697	19818
893.819	19986
893.941	20043
894.064	19978
894.186	19700
894.308	19845
894.43	19909
894.552	19997
894.674	20005
894.796	19727
894.918	19830
895.04	19799
895.161	19936
895.283	19795
895.405	19795
895.526	19860
895.648	19868
895.769	19868
895.891	19868
896.012	19788
896.134	19871
896.255	19849
896.376	19871
896.498	19795
896.619	19887
896.74	19780
896.861	19951
896.982	20088
897.103	20252
897.224	20024
897.345	20111
897.466	20062
897.587	20043
897.708	20111
897.828	20039
897.949	20073
898.07	19970
898.19	20054
898.311	20195
898.431	19944
898.552	19967
898.672	20267
898.792	20134
898.913	20062
899.033	19967
899.153	19788
899.273	19913
899.393	19803
899.513	19917
899.633	19845
899.753	19925
899.873	19814
899.993	19788
900.113	19822
900.232	19795
900.352	19662
900.472	19704
900.591	19712
900.711	19670
900.83	19506
900.95	19639
901.069	19849
901.189	19514
901.308	19316
901.427	19133
901.546	19225
901.665	19274
901.784	19015
901.904	19050
902.023	19088
902.141	18719
902.26	18852
902.379	18745
902.498	18623
902.617	18707
902.735	18741
902.854	18585
902.973	18486
903.091	18448
903.21	18395
903.328	18338
903.446	18304
903.565	18174
903.683	18270
903.801	18003
903.919	18174
904.038	18148
904.156	18060
904.274	18011
904.392	17908
904.51	17958
904.627	17916
904.745	18057
904.863	17992
904.981	17790
905.098	17516
905.216	17684
905.334	17634
905.451	17589
905.569	17509
905.686	17611
905.803	17585
905.921	17478
906.038	17471
906.155	17471
906.272	17280
906.389	17349
906.506	17178
906.623	17277
906.74	17060
906.857	17083
906.974	17098
907.091	17212
907.208	17155
907.324	17079
907.441	17064
907.557	16858
907.674	16885
907.79	16820
907.907	16824
908.023	16854
908.139	16881
908.256	16892
908.372	16748
908.488	16782
908.604	16645
908.72	16717
908.836	16535
908.952	16599
909.068	16508
909.184	16755
909.3	16584
909.415	16664
909.531	16599
909.647	16360
909.762	16295
909.878	16295
909.993	16329
910.108	16421
910.224	16310
910.339	16322
910.454	16162
910.57	16120
910.685	16173
910.8	16341
910.915	16276
911.03	16154
911.145	16044
911.259	15892
911.374	15926
911.489	15968
911.604	15736
911.718	15705
911.833	15671
911.947	15751
912.062	15610
912.176	15724
912.291	15690
912.405	15690
912.519	15934
912.633	16002
912.748	15736
912.862	15576
912.976	15386
913.09	15321
913.204	15374
913.318	15454
913.431	15606
913.545	15542
913.659	15644
913.772	15428
913.886	15329
914	15340
914.113	15382
914.226	15416
914.34	15389
914.453	15199
914.566	15447
914.68	15226
914.793	15154
914.906	14963
915.019	14883
915.132	14834
915.245	15005
915.358	14975
915.47	14960
915.583	14929
915.696	14979
915.809	15116
915.921	15150
916.034	14887
916.146	14902
916.259	14845
916.371	14918
916.483	14914
916.595	14815
916.708	14792
916.82	14819
916.932	14743
917.044	14758
917.156	14689
917.268	14613
917.38	14689
917.491	14640
917.603	14625
917.715	14606
917.826	14610
917.938	14473
918.049	14412
918.161	14446
918.272	14674
918.384	14617
918.495	14530
918.606	14393
918.717	14343
918.828	14328
918.939	14454
919.05	14278
919.161	14343
919.272	14111
919.383	14119
919.494	14412
919.604	14526
919.715	14317
919.826	14290
919.936	14240
920.047	14400
920.157	14324
920.267	14514
920.378	14393
920.488	14305
920.598	14374
920.708	14552
920.818	14457
920.928	14434
921.038	14533
921.148	14560
921.258	14317
921.368	14218
921.477	14130
921.587	14020
921.697	13822
921.806	13978
921.916	13925
922.025	13833
922.134	13765
922.244	13613
922.353	13879
922.462	13578
922.571	13499
922.68	13289
922.789	13293
922.898	13411
923.007	13324
923.116	13259
923.224	13282
923.333	13331
923.442	13259
923.55	13156
923.659	13209
923.767	13206
923.876	13069
923.984	13259
924.092	13046
924.201	13179
924.309	13088
924.417	13110
924.525	13099
924.633	13012
924.741	13841
924.849	12871
924.956	12985
925.064	12772
925.172	12700
925.279	12798
925.387	12757
925.494	12745
925.602	12916
925.709	12817
925.816	12707
925.924	12798
926.031	12764
926.138	12635
926.245	12814
926.352	12631
926.459	12757
926.566	12749
926.673	12673
926.779	12559
926.886	12490
926.993	12422
927.099	12273
927.206	12296
927.312	12251
927.419	12342
927.525	12353
927.631	12350
927.737	12201
927.843	12220
927.95	12057
928.056	12159
928.162	12281
928.267	12235
928.373	12738
928.479	12262
928.585	12011
928.69	12079
928.796	12133
928.901	12034
929.007	11927
929.112	12117
929.218	12003
929.323	11935
929.428	11942
929.533	12034
929.638	11870
929.743	11916
929.848	11954
929.953	11946
930.058	11840
930.163	11649
930.267	11630
930.372	11748
930.477	11600
930.581	11809
930.685	11684
930.79	11566
930.894	11448
930.998	11478
931.103	11623
931.207	11204
931.311	11045
931.415	11143
931.519	10824
931.623	10797
