Data from test_V78500241_1923.txt Node
Date: Fri Mar 25 15:55:07 CST 2022
User: usil
Spectrometer: V785-0024
Trigger mode: 0
Integration Time (sec): 4.000000E-1
Scans to average: 1
Nonlinearity correction enabled: false
Boxcar width: 0
Storing dark spectrum: false
XAxis mode: Wavelengths
Number of Pixels in Spectrum: 1024
>>>>>Begin Spectral Data<<<<<
801.071	28641
801.214	28653
801.356	28375
801.499	28360
801.641	28268
801.783	28318
801.926	28341
802.068	28192
802.211	28116
802.353	28055
802.496	28017
802.638	28051
802.78	28002
802.923	27960
803.065	27797
803.208	27759
803.35	27880
803.492	28272
803.635	28173
803.777	28029
803.919	28242
804.061	28550
804.204	28295
804.346	28036
804.488	28226
804.63	28303
804.773	28169
804.915	28219
805.057	28417
805.199	28101
805.341	28318
805.483	28367
805.626	28474
805.768	28200
805.91	28299
806.052	28352
806.194	28390
806.336	28478
806.478	28447
806.62	28306
806.762	28519
806.904	28687
807.046	28915
807.188	28771
807.33	28904
807.472	28915
807.614	28801
807.756	28824
807.898	28645
808.04	28679
808.182	28550
808.324	28801
808.465	28626
808.607	28888
808.749	29086
808.891	29151
809.033	29284
809.174	29064
809.316	28965
809.458	29052
809.6	28942
809.741	29151
809.883	29265
810.025	29315
810.166	29402
810.308	29250
810.45	29181
810.591	29269
810.733	29204
810.875	29151
811.016	29006
811.158	28942
811.299	29170
811.441	29181
811.582	29254
811.724	29060
811.865	29044
812.007	28961
812.148	29067
812.29	29117
812.431	29220
812.573	29395
812.714	29372
812.855	29551
812.997	29722
813.138	29897
813.279	29809
813.421	29520
813.562	29486
813.703	29444
813.845	29273
813.986	29041
814.127	28831
814.268	28778
814.41	28938
814.551	28729
814.692	28839
814.833	28725
814.974	28622
815.115	28672
815.256	28596
815.397	28489
815.539	28698
815.68	28512
815.821	28527
815.962	28531
816.103	28565
816.244	28512
816.385	28287
816.526	28306
816.666	28188
816.807	28124
816.948	28051
817.089	28124
817.23	27998
817.371	28090
817.512	27983
817.653	28097
817.793	27888
817.934	28093
818.075	28097
818.216	28040
818.356	27987
818.497	27842
818.638	27842
818.778	27869
818.919	27762
819.06	27842
819.2	28032
819.341	28048
819.481	28029
819.622	28181
819.762	28371
819.903	28348
820.043	28200
820.184	28139
820.324	28242
820.465	28188
820.605	28025
820.746	28101
820.886	28101
821.026	28177
821.167	28158
821.307	28154
821.447	28070
821.588	28112
821.728	27972
821.868	27599
822.008	27530
822.149	27492
822.289	27690
822.429	27287
822.569	27233
822.709	27302
822.849	27131
822.99	27104
823.13	27051
823.27	27074
823.41	26804
823.55	26746
823.69	26971
823.83	26910
823.97	26731
824.11	26617
824.25	26598
824.389	26720
824.529	26697
824.669	26720
824.809	26918
824.949	26765
825.089	26701
825.228	26636
825.368	26568
825.508	26609
825.648	26663
825.787	26644
825.927	26686
826.067	26644
826.206	26518
826.346	26503
826.485	26598
826.625	26632
826.765	26648
826.904	26575
827.044	26374
827.183	26412
827.323	26267
827.462	26290
827.601	26453
827.741	26278
827.88	26313
828.02	26161
828.159	26286
828.298	26362
828.437	26446
828.577	26096
828.716	26393
828.855	26161
828.994	26050
829.134	26024
829.273	25947
829.412	26043
829.551	25986
829.69	25947
829.829	26016
829.968	26020
830.107	26111
830.246	25906
830.385	26016
830.524	25860
830.663	25845
830.802	25677
830.941	25552
831.08	25559
831.219	25548
831.357	25704
831.496	25776
831.635	25635
831.774	25556
831.913	25635
832.051	25381
832.19	25270
832.329	25327
832.467	25312
832.606	25244
832.744	25228
832.883	25213
833.022	25217
833.16	25209
833.299	25362
833.437	25187
833.576	25354
833.714	25365
833.852	25453
833.991	25308
834.129	25419
834.267	25362
834.406	25232
834.544	25301
834.682	25297
834.821	25312
834.959	25468
835.097	25320
835.235	25335
835.373	25206
835.511	25377
835.65	25118
835.788	25240
835.926	25027
836.064	24905
836.202	24989
836.34	25069
836.478	25289
836.615	25175
836.753	25168
836.891	25206
837.029	25118
837.167	25156
837.305	25053
837.443	24939
837.58	24916
837.718	24947
837.856	24977
837.993	24954
838.131	24920
838.269	24935
838.406	24821
838.544	24753
838.681	24631
838.819	24620
838.956	24448
839.094	24467
839.231	24456
839.369	24700
839.506	24639
839.643	24707
839.781	24330
839.918	24429
840.055	24479
840.193	24384
840.33	24395
840.467	24346
840.604	24350
840.742	24616
840.879	24171
841.016	24369
841.153	24216
841.29	24441
841.427	24270
841.564	24323
841.701	24369
841.838	24239
841.975	24247
842.112	24228
842.249	24224
842.385	24091
842.522	24327
842.659	24197
842.796	24076
842.933	24072
843.069	23999
843.206	24098
843.343	24178
843.479	24060
843.616	24091
843.752	24007
843.889	23882
844.025	24041
844.162	23866
844.298	24018
844.435	23794
844.571	23790
844.708	23961
844.844	23999
844.98	24053
845.117	23916
845.253	23843
845.389	23718
845.525	23756
845.661	23657
845.798	23623
845.934	23589
846.07	23516
846.206	23608
846.342	23726
846.478	23547
846.614	23296
846.75	23280
846.886	23402
847.022	23261
847.158	23303
847.294	23193
847.429	23341
847.565	23197
847.701	23589
847.837	23029
847.972	23018
848.108	23162
848.244	23136
848.379	22923
848.515	22858
848.65	22869
848.786	23003
848.921	22831
849.057	23052
849.192	22976
849.328	22957
849.463	22824
849.598	22923
849.734	22687
849.869	22854
850.004	22698
850.14	22687
850.275	22771
850.41	22660
850.545	22702
850.68	22512
850.815	22664
850.95	22550
851.085	22713
851.22	22782
851.355	22557
851.49	22702
851.625	22603
851.76	22660
851.895	22538
852.03	22588
852.165	22637
852.299	22740
852.434	22733
852.569	22584
852.703	22683
852.838	22740
852.973	22782
853.107	22748
853.242	22721
853.376	22596
853.511	22348
853.645	22489
853.78	22523
853.914	22580
854.048	22512
854.183	22440
854.317	22588
854.451	22637
854.585	22516
854.72	22322
854.854	22588
854.988	22405
855.122	22470
855.256	22417
855.39	22542
855.524	22512
855.658	22561
855.792	22508
855.926	22527
856.06	22573
856.194	22554
856.327	22398
856.461	22512
856.595	22523
856.729	22516
856.862	22607
856.996	22592
857.13	22508
857.263	22504
857.397	22603
857.53	22512
857.664	22637
857.797	22519
857.931	22687
858.064	22474
858.197	22527
858.331	22478
858.464	22443
858.597	22352
858.731	22394
858.864	22390
858.997	22512
859.13	22535
859.263	22417
859.396	22557
859.529	22519
859.662	22512
859.795	22402
859.928	22424
860.061	22599
860.194	22812
860.327	22519
860.46	22599
860.592	22618
860.725	22660
860.858	22618
860.99	22417
861.123	22421
861.256	22500
861.388	22474
861.521	23258
861.653	22303
861.786	22329
861.918	22432
862.05	22489
862.183	22554
862.315	22398
862.447	22470
862.58	22459
862.712	22188
862.844	22147
862.976	22337
863.108	22276
863.24	22710
863.372	22253
863.504	22120
863.636	22162
863.768	22272
863.9	22249
864.032	22223
864.164	22185
864.296	22200
864.428	22295
864.559	22265
864.691	22341
864.823	22169
864.954	22219
865.086	22143
865.217	22112
865.349	21956
865.48	22093
865.612	22147
865.743	22154
865.875	22029
866.006	21972
866.137	22055
866.269	22109
866.4	22078
866.531	21956
866.662	21865
866.793	21865
866.924	22002
867.055	21915
867.186	22029
867.317	21922
867.448	21842
867.579	22048
867.71	21816
867.841	22086
867.972	21994
868.103	21865
868.233	21964
868.364	21975
868.495	22135
868.625	22303
868.756	22333
868.886	22242
869.017	22166
869.147	22402
869.278	22325
869.408	22177
869.539	22230
869.669	22329
869.799	22344
869.929	22405
870.06	22386
870.19	22565
870.32	22512
870.45	22588
870.58	22603
870.71	22679
870.84	22725
870.97	22634
871.1	22611
871.23	22767
871.36	22847
871.489	22698
871.619	22820
871.749	22816
871.879	22915
872.008	22919
872.138	22812
872.267	22881
872.397	22660
872.526	22611
872.656	22691
872.785	22637
872.915	22877
873.044	22896
873.173	22782
873.303	22946
873.432	22930
873.561	23044
873.69	22854
873.819	22858
873.948	22904
874.077	22771
874.206	22774
874.335	22915
874.464	22984
874.593	23200
874.722	23075
874.851	23090
874.979	23117
875.108	23102
875.237	22927
875.365	22809
875.494	23113
875.623	23090
875.751	22934
875.88	23185
876.008	23193
876.136	23216
876.265	23627
876.393	23634
876.521	23490
876.65	23600
876.778	23474
876.906	23265
877.034	23395
877.162	23383
877.29	23391
877.418	23539
877.546	23444
877.674	23391
877.802	23410
877.93	23474
878.058	23383
878.185	23368
878.313	23421
878.441	23345
878.568	23250
878.696	23277
878.824	23368
878.951	23566
879.079	23570
879.206	23623
879.333	23687
879.461	23493
879.588	23478
879.715	23608
879.842	23745
879.97	23429
880.097	23284
880.224	23109
880.351	23360
880.478	23128
880.605	23105
880.732	23220
880.859	23436
880.986	23121
881.112	23258
881.239	23079
881.366	22953
881.493	22972
881.619	22733
881.746	22869
881.872	22957
881.999	22805
882.125	22622
882.252	22698
882.378	22702
882.505	22900
882.631	22577
882.757	22500
882.883	22599
883.01	22557
883.136	22481
883.262	22344
883.388	22409
883.514	22455
883.64	22379
883.766	22394
883.892	22200
884.018	22272
884.143	22485
884.269	22382
884.395	22223
884.52	22128
884.646	22097
884.772	22120
884.897	21979
885.023	22086
885.148	22188
885.274	22253
885.399	22291
885.524	22116
885.65	22097
885.775	22120
885.9	21998
886.025	22181
886.15	22333
886.275	22078
886.4	21975
886.525	22063
886.65	22032
886.775	21983
886.9	22055
887.025	22299
887.149	22116
887.274	21850
887.399	21945
887.523	21781
887.648	21789
887.773	21873
887.897	21983
888.021	21983
888.146	21819
888.27	21926
888.395	21823
888.519	21892
888.643	21857
888.767	21869
888.891	21812
889.015	21606
889.139	21762
889.263	21705
889.387	21618
889.511	21934
889.635	21747
889.759	21606
889.883	21561
890.006	21614
890.13	21747
890.254	21633
890.377	21511
890.501	21351
890.624	21428
890.748	21496
890.871	21268
890.995	21211
891.118	21089
891.241	21123
891.364	21154
891.488	21294
891.611	21211
891.734	21317
891.857	21123
891.98	21116
892.103	21252
892.226	21279
892.349	21074
892.471	21001
892.594	21081
892.717	21146
892.839	21096
892.962	21127
893.085	21188
893.207	21207
893.33	21028
893.452	20906
893.575	21043
893.697	21028
893.819	21135
893.941	21233
894.064	21294
894.186	20899
894.308	21070
894.43	21169
894.552	21252
894.674	21043
894.796	21058
894.918	21131
895.04	21043
895.161	21214
895.283	21081
895.405	20933
895.526	21081
895.648	20902
895.769	21047
895.891	21096
896.012	21180
896.134	21192
896.255	21127
896.376	21005
896.498	20956
896.619	21112
896.74	21070
896.861	21131
896.982	21431
897.103	21435
897.224	21336
897.345	21249
897.466	21252
897.587	21252
897.708	21443
897.828	21245
897.949	21287
898.07	21089
898.19	21298
898.311	21256
898.431	21230
898.552	21237
898.672	21363
898.792	21386
898.913	21321
899.033	21180
899.153	21195
899.273	21066
899.393	21009
899.513	21024
899.633	20944
899.753	21100
899.873	20883
899.993	21093
900.113	20815
900.232	21017
900.352	20975
900.472	20883
900.591	20781
900.711	20796
900.83	20689
900.95	20834
901.069	20819
901.189	20720
901.308	20450
901.427	20351
901.546	20377
901.665	20191
901.784	20301
901.904	20229
902.023	20084
902.141	19734
902.26	19852
902.379	19883
902.498	19772
902.617	19769
902.735	19936
902.854	19803
902.973	19753
903.091	19411
903.21	19430
903.328	19632
903.446	19419
903.565	19244
903.683	19278
903.801	19270
903.919	19244
904.038	19232
904.156	19004
904.274	18989
904.392	19091
904.51	19069
904.627	18886
904.745	19053
904.863	19046
904.981	18890
905.098	18688
905.216	18715
905.334	18753
905.451	18738
905.569	18715
905.686	18764
905.803	18627
905.921	18422
906.038	18703
906.155	18490
906.272	18254
906.389	18239
906.506	18281
906.623	18289
906.74	18220
906.857	18030
906.974	18136
907.091	18205
907.208	18372
907.324	18235
907.441	18114
907.557	18011
907.674	18034
907.79	17931
907.907	17885
908.023	17973
908.139	17889
908.256	17866
908.372	17897
908.488	17832
908.604	17745
908.72	17623
908.836	17680
908.952	17646
909.068	17665
909.184	17748
909.3	17596
909.415	17661
909.531	17577
909.647	17402
909.762	17436
909.878	17311
909.993	17406
910.108	17258
910.224	17395
910.339	17345
910.454	17265
910.57	17128
910.685	17128
910.8	17318
910.915	17242
911.03	17086
911.145	17079
911.259	16873
911.374	16786
911.489	16763
911.604	16831
911.718	16687
911.833	16694
911.947	16565
912.062	16584
912.176	16744
912.291	16691
912.405	16675
912.519	16911
912.633	16790
912.748	16641
912.862	16660
912.976	16588
913.09	16394
913.204	16443
913.318	16519
913.431	16550
913.545	16516
913.659	16558
913.772	16398
913.886	16272
914	16211
914.113	16310
914.226	16386
914.34	16310
914.453	16109
914.566	16154
914.68	16120
914.793	16063
914.906	15991
915.019	15755
915.132	15850
915.245	15987
915.358	15918
915.47	15895
915.583	15922
915.696	15835
915.809	15922
915.921	16067
916.034	15800
916.146	15690
916.259	15732
916.371	15903
916.483	15762
916.595	15732
916.708	15644
916.82	15637
916.932	15545
917.044	15564
917.156	15519
917.268	15500
917.38	15492
917.491	15435
917.603	15477
917.715	15545
917.826	15492
917.938	15447
918.049	15233
918.161	15428
918.272	15629
918.384	15507
918.495	15378
918.606	15237
918.717	15245
918.828	15306
918.939	15127
919.05	15051
919.161	15081
919.272	14925
919.383	15005
919.494	15195
919.604	15393
919.715	15138
919.826	15249
919.936	15089
920.047	15283
920.157	15233
920.267	15401
920.378	15070
920.488	15119
920.598	15256
920.708	15431
920.818	15226
920.928	15306
921.038	15447
921.148	15287
921.258	15108
921.368	15028
921.477	15005
921.587	14925
921.697	14762
921.806	14944
921.916	14777
922.025	14606
922.134	14507
922.244	14571
922.353	14610
922.462	14450
922.571	14381
922.68	14244
922.789	14206
922.898	14176
923.007	14073
923.116	14252
923.224	14225
923.333	14115
923.442	14157
923.55	13967
923.659	14187
923.767	14027
923.876	13947
923.984	14031
924.092	13833
924.201	13974
924.309	13837
924.417	13883
924.525	13879
924.633	13909
924.741	14769
924.849	13655
924.956	13704
925.064	13632
925.172	13590
925.279	13613
925.387	13628
925.494	13643
925.602	13731
925.709	13643
925.816	13457
925.924	13537
926.031	13586
926.138	13533
926.245	13468
926.352	13362
926.459	13563
926.566	13571
926.673	13483
926.779	13282
926.886	13266
926.993	13175
927.099	13076
927.206	13061
927.312	13152
927.419	13110
927.525	13103
927.631	13171
927.737	13046
927.843	13046
927.95	12806
928.056	12916
928.162	12954
928.267	13015
928.373	13506
928.479	13004
928.585	12707
928.69	12878
928.796	12916
928.901	12787
929.007	12582
929.112	12856
929.218	12802
929.323	12669
929.428	12700
929.533	12863
929.638	12593
929.743	12593
929.848	12635
929.953	12559
930.058	12467
930.163	12323
930.267	12304
930.372	12551
930.477	12273
930.581	12494
930.685	12353
930.79	12220
930.894	12239
930.998	12152
931.103	12319
931.207	11980
931.311	11786
931.415	11741
931.519	11528
931.623	11547
