Data from test_V78500241_2005.txt Node
Date: Fri Mar 25 15:55:41 CST 2022
User: usil
Spectrometer: V785-0024
Trigger mode: 0
Integration Time (sec): 4.000000E-1
Scans to average: 1
Nonlinearity correction enabled: false
Boxcar width: 0
Storing dark spectrum: false
XAxis mode: Wavelengths
Number of Pixels in Spectrum: 1024
>>>>>Begin Spectral Data<<<<<
801.071	28740
801.214	28694
801.356	28375
801.499	28440
801.641	28303
801.783	28139
801.926	28322
802.068	28226
802.211	28139
802.353	28158
802.496	28082
802.638	27987
802.78	27945
802.923	27949
803.065	27911
803.208	27930
803.35	28002
803.492	27998
803.635	28192
803.777	28200
803.919	28082
804.061	28561
804.204	28169
804.346	28032
804.488	28211
804.63	28234
804.773	28261
804.915	28310
805.057	28234
805.199	28215
805.341	28295
805.483	28306
805.626	28371
805.768	28322
805.91	28284
806.052	28287
806.194	28310
806.336	28443
806.478	28360
806.62	28375
806.762	28603
806.904	28641
807.046	28900
807.188	28984
807.33	28637
807.472	28858
807.614	28812
807.756	28790
807.898	28725
808.04	28622
808.182	28694
808.324	28596
808.465	28759
808.607	28961
808.749	29079
808.891	29090
809.033	29048
809.174	29132
809.316	29102
809.458	29098
809.6	29025
809.741	29212
809.883	29223
810.025	29345
810.166	29337
810.308	29425
810.45	29299
810.591	29326
810.733	29075
810.875	29094
811.016	28930
811.158	28930
811.299	29083
811.441	29105
811.582	29311
811.724	29143
811.865	28934
812.007	29018
812.148	29018
812.29	29181
812.431	29200
812.573	29524
812.714	29455
812.855	29684
812.997	29699
813.138	29931
813.279	29630
813.421	29615
813.562	29444
813.703	29372
813.845	29280
813.986	29029
814.127	28736
814.268	28729
814.41	28900
814.551	28733
814.692	28771
814.833	28763
814.974	28687
815.115	28687
815.256	28713
815.397	28744
815.539	28637
815.68	28565
815.821	28474
815.962	28580
816.103	28504
816.244	28440
816.385	28371
816.526	28341
816.666	28196
816.807	28124
816.948	28150
817.089	28200
817.23	28158
817.371	28070
817.512	28029
817.653	28070
817.793	28036
817.934	28177
818.075	28059
818.216	28093
818.356	28021
818.497	27964
818.638	27770
818.778	27778
818.919	27797
819.06	27781
819.2	28040
819.341	28086
819.481	28090
819.622	28200
819.762	28447
819.903	28382
820.043	28276
820.184	28215
820.324	28230
820.465	28272
820.605	28238
820.746	28306
820.886	28128
821.026	28200
821.167	28090
821.307	28139
821.447	28223
821.588	28116
821.728	27911
821.868	27739
822.008	27519
822.149	27530
822.289	27485
822.429	27374
822.569	27298
822.709	27313
822.849	27093
822.99	26998
823.13	27024
823.27	26940
823.41	26819
823.55	26811
823.69	26994
823.83	26861
823.97	26796
824.11	26781
824.25	26670
824.389	26488
824.529	26670
824.669	26720
824.809	26796
824.949	26811
825.089	26887
825.228	26899
825.368	26663
825.508	26636
825.648	26625
825.787	26632
825.927	26602
826.067	26621
826.206	26629
826.346	26750
826.485	26701
826.625	26545
826.765	26746
826.904	26636
827.044	26328
827.183	26256
827.323	26305
827.462	26385
827.601	26176
827.741	26286
827.88	26404
828.02	26252
828.159	26290
828.298	26244
828.437	26301
828.577	26206
828.716	26214
828.855	26275
828.994	25989
829.134	26096
829.273	26130
829.412	25932
829.551	25966
829.69	26100
829.829	26157
829.968	26157
830.107	26122
830.246	26088
830.385	25917
830.524	25887
830.663	25818
830.802	25769
830.941	25578
831.08	25582
831.219	25765
831.357	25586
831.496	25807
831.635	25639
831.774	25499
831.913	25590
832.051	25343
832.19	25590
832.329	25506
832.467	25126
832.606	25354
832.744	25301
832.883	25251
833.022	25278
833.16	25301
833.299	25289
833.437	25327
833.576	25362
833.714	25377
833.852	25415
833.991	25377
834.129	25419
834.267	25346
834.406	25266
834.544	25396
834.682	25499
834.821	25289
834.959	25487
835.097	25354
835.235	25441
835.373	25320
835.511	25392
835.65	25141
835.788	25171
835.926	25198
836.064	25114
836.202	25050
836.34	25187
836.478	25350
836.615	25000
836.753	25133
836.891	25285
837.029	25072
837.167	25099
837.305	24947
837.443	25183
837.58	24890
837.718	25088
837.856	25072
837.993	24882
838.131	24951
838.269	24817
838.406	24894
838.544	24802
838.681	24673
838.819	24578
838.956	24437
839.094	24395
839.231	24452
839.369	24608
839.506	24962
839.643	24745
839.781	24441
839.918	24445
840.055	24426
840.193	24330
840.33	24388
840.467	24403
840.604	24502
840.742	24681
840.879	24228
841.016	24292
841.153	24330
841.29	24456
841.427	24357
841.564	24338
841.701	24342
841.838	24296
841.975	24384
842.112	24224
842.249	24148
842.385	24194
842.522	24467
842.659	24178
842.796	24114
842.933	24209
843.069	24015
843.206	24038
843.343	24110
843.479	24110
843.616	24095
843.752	23988
843.889	23927
844.025	23988
844.162	24034
844.298	23996
844.435	23847
844.571	23904
844.708	23980
844.844	23908
844.98	23969
845.117	23939
845.253	23756
845.389	23756
845.525	23847
845.661	23718
845.798	23577
845.934	23665
846.07	23554
846.206	23653
846.342	23718
846.478	23611
846.614	23440
846.75	23239
846.886	23349
847.022	23474
847.158	23353
847.294	23395
847.429	23463
847.565	23318
847.701	23554
847.837	22953
847.972	23147
848.108	23227
848.244	23170
848.379	22869
848.515	23044
848.65	22965
848.786	22957
848.921	23033
849.057	23117
849.192	23029
849.328	23098
849.463	22869
849.598	22820
849.734	22771
849.869	22850
850.004	22679
850.14	22721
850.275	22630
850.41	22622
850.545	22729
850.68	22763
850.815	22641
850.95	22790
851.085	22843
851.22	22835
851.355	22626
851.49	22668
851.625	22622
851.76	22797
851.895	22637
852.03	22569
852.165	22740
852.299	22664
852.434	22752
852.569	22641
852.703	22866
852.838	22809
852.973	22824
853.107	22736
853.242	22675
853.376	22550
853.511	22436
853.645	22417
853.78	22630
853.914	22462
854.048	22462
854.183	22535
854.317	22523
854.451	22854
854.585	22516
854.72	22596
854.854	22694
854.988	22409
855.122	22519
855.256	22382
855.39	22542
855.524	22596
855.658	22497
855.792	22664
855.926	22538
856.06	22656
856.194	22675
856.327	22550
856.461	22531
856.595	22557
856.729	22432
856.862	22710
856.996	22649
857.13	22649
857.263	22664
857.397	22565
857.53	22516
857.664	22535
857.797	22637
857.931	22550
858.064	22516
858.197	22637
858.331	22603
858.464	22417
858.597	22508
858.731	22481
858.864	22592
858.997	22489
859.13	22413
859.263	22455
859.396	22592
859.529	22379
859.662	22512
859.795	22462
859.928	22542
860.061	22618
860.194	22733
860.327	22512
860.46	22656
860.592	22645
860.725	22557
860.858	22664
860.99	22554
861.123	22447
861.256	22436
861.388	22535
861.521	23337
861.653	22519
861.786	22211
861.918	22253
862.05	22280
862.183	22481
862.315	22379
862.447	22546
862.58	22428
862.712	22314
862.844	22150
862.976	22310
863.108	22375
863.24	22622
863.372	22230
863.504	22230
863.636	22169
863.768	22230
863.9	22188
864.032	22185
864.164	22261
864.296	22211
864.428	22322
864.559	22219
864.691	22363
864.823	22234
864.954	22131
865.086	22276
865.217	22139
865.349	22093
865.48	22120
865.612	22029
865.743	22268
865.875	22147
866.006	22188
866.137	22090
866.269	22036
866.4	21960
866.531	21964
866.662	21994
866.793	22040
866.924	22006
867.055	22010
867.186	22158
867.317	21964
867.448	21819
867.579	21975
867.71	21850
867.841	22021
867.972	22097
868.103	22116
868.233	22063
868.364	22040
868.495	22112
868.625	22200
868.756	22280
868.886	22109
869.017	22215
869.147	22394
869.278	22402
869.408	22242
869.539	22272
869.669	22379
869.799	22382
869.929	22440
870.06	22402
870.19	22717
870.32	22554
870.45	22634
870.58	22748
870.71	22729
870.84	22847
870.97	22778
871.1	22786
871.23	22816
871.36	22976
871.489	22733
871.619	22706
871.749	22965
871.879	22904
872.008	22984
872.138	22965
872.267	22843
872.397	22805
872.526	22596
872.656	22748
872.785	22687
872.915	22744
873.044	23006
873.173	22999
873.303	22831
873.432	22904
873.561	22987
873.69	22965
873.819	22854
873.948	22927
874.077	22930
874.206	22801
874.335	22824
874.464	23033
874.593	23136
874.722	23075
874.851	23151
874.979	23166
875.108	23140
875.237	23098
875.365	23060
875.494	23033
875.623	23079
875.751	23121
875.88	23162
876.008	23151
876.136	23246
876.265	23486
876.393	23615
876.521	23539
876.65	23497
876.778	23551
876.906	23402
877.034	23429
877.162	23482
877.29	23406
877.418	23414
877.546	23410
877.674	23478
877.802	23410
877.93	23493
878.058	23322
878.185	23356
878.313	23471
878.441	23391
878.568	23246
878.696	23372
878.824	23516
878.951	23455
879.079	23718
879.206	23756
879.333	23653
879.461	23417
879.588	23566
879.715	23604
879.842	23718
879.97	23509
880.097	23227
880.224	23303
880.351	23433
880.478	23334
880.605	23284
880.732	23292
880.859	23486
880.986	23258
881.112	23250
881.239	23269
881.366	23071
881.493	23014
881.619	22717
881.746	22793
881.872	22923
881.999	22748
882.125	22649
882.252	22991
882.378	22831
882.505	22824
882.631	22561
882.757	22538
882.883	22592
883.01	22436
883.136	22489
883.262	22341
883.388	22284
883.514	22512
883.64	22588
883.766	22318
883.892	22337
884.018	22348
884.143	22417
884.269	22527
884.395	22162
884.52	22097
884.646	22090
884.772	21991
884.897	22002
885.023	22154
885.148	22249
885.274	22166
885.399	22185
885.524	22200
885.65	22147
885.775	22112
885.9	22101
886.025	22219
886.15	22287
886.275	22086
886.4	21998
886.525	22101
886.65	22143
886.775	22070
886.9	22295
887.025	22303
887.149	22200
887.274	21884
887.399	21907
887.523	21926
887.648	21770
887.773	21831
887.897	22048
888.021	21838
888.146	21838
888.27	22036
888.395	21972
888.519	21979
888.643	21873
888.767	21979
888.891	21884
889.015	21743
889.139	21682
889.263	21561
889.387	21789
889.511	21907
889.635	21945
889.759	21736
889.883	21766
890.006	21728
890.13	21865
890.254	21618
890.377	21679
890.501	21386
890.624	21340
890.748	21500
890.871	21329
890.995	21264
891.118	21192
891.241	21298
891.364	21256
891.488	21408
891.611	21176
891.734	21279
891.857	21386
891.98	21173
892.103	21233
892.226	21104
892.349	21218
892.471	20967
892.594	21268
892.717	21135
892.839	21146
892.962	21230
893.085	21104
893.207	21116
893.33	21028
893.452	20998
893.575	21237
893.697	21157
893.819	21154
893.941	21233
894.064	21218
894.186	21081
894.308	21119
894.43	21184
894.552	21275
894.674	21138
894.796	21005
894.918	21032
895.04	21123
895.161	21169
895.283	21051
895.405	21032
895.526	21154
895.648	21077
895.769	21017
895.891	21043
896.012	21169
896.134	21154
896.255	21051
896.376	21062
896.498	21131
896.619	21173
896.74	20986
896.861	21173
896.982	21439
897.103	21576
897.224	21344
897.345	21279
897.466	21188
897.587	21230
897.708	21355
897.828	21405
897.949	21237
898.07	21119
898.19	21138
898.311	21401
898.431	21241
898.552	21230
898.672	21317
898.792	21222
898.913	21447
899.033	21184
899.153	21047
899.273	20986
899.393	21005
899.513	21020
899.633	21104
899.753	21051
899.873	21051
899.993	20963
900.113	20979
900.232	21089
900.352	20944
900.472	20762
900.591	20724
900.711	20826
900.83	20773
900.95	20963
901.069	20746
901.189	20541
901.308	20419
901.427	20336
901.546	20415
901.665	20301
901.784	20415
901.904	20153
902.023	20024
902.141	19833
902.26	19928
902.379	19868
902.498	19932
902.617	19712
902.735	19879
902.854	19947
902.973	19723
903.091	19537
903.21	19483
903.328	19483
903.446	19327
903.565	19381
903.683	19324
903.801	19160
903.919	19266
904.038	19194
904.156	19080
904.274	19194
904.392	19168
904.51	19107
904.627	19023
904.745	19126
904.863	19171
904.981	18859
905.098	18650
905.216	18726
905.334	18768
905.451	18863
905.569	18661
905.686	18829
905.803	18760
905.921	18585
906.038	18635
906.155	18547
906.272	18452
906.389	18418
906.506	18273
906.623	18235
906.74	18216
906.857	18155
906.974	18197
907.091	18410
907.208	18311
907.324	18296
907.441	18178
907.557	18049
907.674	17916
907.79	17958
907.907	18030
908.023	18045
908.139	18114
908.256	17992
908.372	17771
908.488	17802
908.604	17634
908.72	17733
908.836	17653
908.952	17649
909.068	17741
909.184	17756
909.3	17722
909.415	17573
909.531	17703
909.647	17391
909.762	17322
909.878	17326
909.993	17379
910.108	17337
910.224	17242
910.339	17364
910.454	17246
910.57	17166
910.685	17204
910.8	17368
910.915	17170
911.03	17189
911.145	16984
911.259	16965
911.374	16881
911.489	16904
911.604	16915
911.718	16660
911.833	16725
911.947	16626
912.062	16649
912.176	16725
912.291	16748
912.405	16607
912.519	16862
912.633	16816
912.748	16744
912.862	16641
912.976	16550
913.09	16493
913.204	16481
913.318	16519
913.431	16478
913.545	16645
913.659	16611
913.772	16390
913.886	16295
914	16234
914.113	16436
914.226	16462
914.34	16276
914.453	16196
914.566	16337
914.68	16246
914.793	16124
914.906	15941
915.019	15861
915.132	15865
915.245	15812
915.358	15975
915.47	15873
915.583	15918
915.696	15899
915.809	16082
915.921	16029
916.034	15869
916.146	15880
916.259	15736
916.371	15873
916.483	15884
916.595	15648
916.708	15728
916.82	15637
916.932	15644
917.044	15656
917.156	15595
917.268	15462
917.38	15568
917.491	15504
917.603	15580
917.715	15610
917.826	15637
917.938	15492
918.049	15336
918.161	15469
918.272	15599
918.384	15561
918.495	15439
918.606	15207
918.717	15188
918.828	15298
918.939	15313
919.05	15138
919.161	15173
919.272	14963
919.383	15112
919.494	15260
919.604	15420
919.715	15245
919.826	15138
919.936	15161
920.047	15256
920.157	15157
920.267	15386
920.378	15268
920.488	15104
920.598	15336
920.708	15397
920.818	15272
920.928	15332
921.038	15393
921.148	15393
921.258	15157
921.368	15081
921.477	14933
921.587	14823
921.697	14815
921.806	14918
921.916	14800
922.025	14541
922.134	14503
922.244	14549
922.353	14492
922.462	14457
922.571	14347
922.68	14229
922.789	14134
922.898	14240
923.007	14153
923.116	14237
923.224	14172
923.333	14016
923.442	14073
923.55	13989
923.659	14027
923.767	14084
923.876	13955
923.984	14073
924.092	13894
924.201	13986
924.309	13951
924.417	13936
924.525	13826
924.633	13936
924.741	14556
924.849	13689
924.956	13765
925.064	13632
925.172	13502
925.279	13548
925.387	13582
925.494	13521
925.602	13613
925.709	13567
925.816	13392
925.924	13483
926.031	13540
926.138	13472
926.245	13537
926.352	13377
926.459	13510
926.566	13514
926.673	13422
926.779	13320
926.886	13259
926.993	13110
927.099	13103
927.206	13088
927.312	13008
927.419	13110
927.525	13069
927.631	13149
927.737	13072
927.843	12905
927.95	12882
928.056	12852
928.162	12947
928.267	12970
928.373	13613
928.479	12962
928.585	12791
928.69	12852
928.796	12920
928.901	12719
929.007	12681
929.112	12798
929.218	12787
929.323	12677
929.428	12669
929.533	12791
929.638	12502
929.743	12639
929.848	12616
929.953	12570
930.058	12494
930.163	12357
930.267	12384
930.372	12369
930.477	12311
930.581	12498
930.685	12277
930.79	12262
930.894	12243
930.998	12167
931.103	12281
931.207	11851
931.311	11847
931.415	11764
931.519	11615
931.623	11474
