Data from test_V78500241_2340.txt Node
Date: Fri Mar 25 15:58:00 CST 2022
User: usil
Spectrometer: V785-0024
Trigger mode: 0
Integration Time (sec): 4.000000E-1
Scans to average: 1
Nonlinearity correction enabled: false
Boxcar width: 0
Storing dark spectrum: false
XAxis mode: Wavelengths
Number of Pixels in Spectrum: 1024
>>>>>Begin Spectral Data<<<<<
801.071	28660
801.214	28626
801.356	28337
801.499	28238
801.641	28223
801.783	28131
801.926	28234
802.068	28230
802.211	28173
802.353	28109
802.496	27960
802.638	27922
802.78	27861
802.923	27797
803.065	27732
803.208	27770
803.35	27819
803.492	28078
803.635	27956
803.777	27941
803.919	28059
804.061	28322
804.204	28120
804.346	28090
804.488	27968
804.63	28013
804.773	28070
804.915	28242
805.057	28204
805.199	28135
805.341	28272
805.483	28272
805.626	28226
805.768	28284
805.91	28215
806.052	28276
806.194	28158
806.336	28409
806.478	28379
806.62	28303
806.762	28405
806.904	28451
807.046	28694
807.188	28755
807.33	28778
807.472	28816
807.614	28626
807.756	28793
807.898	28592
808.04	28497
808.182	28493
808.324	28653
808.465	28801
808.607	28736
808.749	28888
808.891	29052
809.033	29094
809.174	28923
809.316	29037
809.458	28877
809.6	28976
809.741	29086
809.883	29037
810.025	29250
810.166	29265
810.308	29132
810.45	29140
810.591	29094
810.733	29121
810.875	28946
811.016	28949
811.158	28900
811.299	29018
811.441	29155
811.582	28984
811.724	28953
811.865	28892
812.007	28991
812.148	29033
812.29	28972
812.431	29315
812.573	29360
812.714	29402
812.855	29577
812.997	29551
813.138	29551
813.279	29570
813.421	29528
813.562	29368
813.703	29398
813.845	29181
813.986	28877
814.127	28873
814.268	28592
814.41	28679
814.551	28702
814.692	28691
814.833	28615
814.974	28668
815.115	28615
815.256	28508
815.397	28531
815.539	28504
815.68	28512
815.821	28447
815.962	28512
816.103	28577
816.244	28363
816.385	28242
816.526	28303
816.666	28112
816.807	27987
816.948	28017
817.089	27918
817.23	28078
817.371	27903
817.512	28059
817.653	27987
817.793	27873
817.934	27861
818.075	27983
818.216	27865
818.356	27972
818.497	28002
818.638	27686
818.778	27880
818.919	27739
819.06	27736
819.2	27850
819.341	28093
819.481	28105
819.622	27972
819.762	28348
819.903	28284
820.043	28150
820.184	28204
820.324	28090
820.465	28097
820.605	28192
820.746	28112
820.886	27888
821.026	27998
821.167	28147
821.307	27998
821.447	28040
821.588	27854
821.728	27747
821.868	27557
822.008	27511
822.149	27553
822.289	27306
822.429	27116
822.569	26990
822.709	27135
822.849	26887
822.99	26891
823.13	26906
823.27	26883
823.41	26880
823.55	26724
823.69	26864
823.83	26712
823.97	26800
824.11	26533
824.25	26518
824.389	26613
824.529	26674
824.669	26560
824.809	26769
824.949	26777
825.089	26663
825.228	26598
825.368	26320
825.508	26476
825.648	26507
825.787	26495
825.927	26552
826.067	26347
826.206	26511
826.346	26507
826.485	26530
826.625	26552
826.765	26533
826.904	26541
827.044	26202
827.183	26324
827.323	26267
827.462	26233
827.601	26309
827.741	26073
827.88	26339
828.02	26077
828.159	26328
828.298	26191
828.437	26271
828.577	26176
828.716	26214
828.855	26134
828.994	25955
829.134	25921
829.273	25887
829.412	25887
829.551	25982
829.69	25826
829.829	25921
829.968	25936
830.107	25955
830.246	26035
830.385	25811
830.524	25723
830.663	25594
830.802	25620
830.941	25525
831.08	25472
831.219	25681
831.357	25506
831.496	25712
831.635	25506
831.774	25377
831.913	25346
832.051	25274
832.19	25164
832.329	25301
832.467	25175
832.606	25179
832.744	25175
832.883	25118
833.022	25236
833.16	24924
833.299	25301
833.437	25114
833.576	25293
833.714	25236
833.852	25225
833.991	25343
834.129	25240
834.267	25312
834.406	25304
834.544	25308
834.682	25217
834.821	25183
834.959	25400
835.097	25031
835.235	25129
835.373	25251
835.511	25198
835.65	25004
835.788	25084
835.926	24916
836.064	24924
836.202	24897
836.34	25126
836.478	25076
836.615	25004
836.753	25004
836.891	25168
837.029	25072
837.167	25012
837.305	24970
837.443	24916
837.58	24878
837.718	24837
837.856	24837
837.993	24810
838.131	24810
838.269	24703
838.406	24833
838.544	24817
838.681	24479
838.819	24479
838.956	24163
839.094	24403
839.231	24521
839.369	24555
839.506	24757
839.643	24578
839.781	24369
839.918	24323
840.055	24369
840.193	24270
840.33	24300
840.467	24327
840.604	24281
840.742	24547
840.879	24091
841.016	24285
841.153	24087
841.29	24399
841.427	24121
841.564	24350
841.701	24182
841.838	24216
841.975	24163
842.112	24289
842.249	24053
842.385	24007
842.522	24213
842.659	24068
842.796	24053
842.933	24110
843.069	23958
843.206	24003
843.343	23939
843.479	24053
843.616	24148
843.752	23859
843.889	23931
844.025	24068
844.162	23824
844.298	23927
844.435	23737
844.571	23680
844.708	23764
844.844	23958
844.98	23912
845.117	23950
845.253	23707
845.389	23638
845.525	23729
845.661	23676
845.798	23512
845.934	23543
846.07	23558
846.206	23615
846.342	23691
846.478	23474
846.614	23364
846.75	23010
846.886	23235
847.022	23258
847.158	23197
847.294	23204
847.429	23239
847.565	23204
847.701	23512
847.837	22961
847.972	23022
848.108	23113
848.244	23094
848.379	22869
848.515	22839
848.65	22786
848.786	22812
848.921	22862
849.057	22816
849.192	22987
849.328	22847
849.463	22873
849.598	22736
849.734	22744
849.869	22744
850.004	22634
850.14	22573
850.275	22641
850.41	22500
850.545	22675
850.68	22634
850.815	22660
850.95	22535
851.085	22759
851.22	22649
851.355	22557
851.49	22546
851.625	22523
851.76	22542
851.895	22493
852.03	22664
852.165	22615
852.299	22573
852.434	22717
852.569	22679
852.703	22603
852.838	22717
852.973	22771
853.107	22778
853.242	22565
853.376	22424
853.511	22413
853.645	22405
853.78	22573
853.914	22462
854.048	22474
854.183	22405
854.317	22561
854.451	22512
854.585	22394
854.72	22428
854.854	22527
854.988	22398
855.122	22428
855.256	22261
855.39	22508
855.524	22356
855.658	22455
855.792	22466
855.926	22413
856.06	22531
856.194	22565
856.327	22333
856.461	22382
856.595	22344
856.729	22246
856.862	22481
856.996	22451
857.13	22462
857.263	22508
857.397	22470
857.53	22382
857.664	22386
857.797	22500
857.931	22584
858.064	22493
858.197	22569
858.331	22367
858.464	22337
858.597	22352
858.731	22348
858.864	22360
858.997	22455
859.13	22466
859.263	22371
859.396	22436
859.529	22417
859.662	22322
859.795	22303
859.928	22306
860.061	22447
860.194	22736
860.327	22470
860.46	22428
860.592	22542
860.725	22592
860.858	22626
860.99	22523
861.123	22402
861.256	22409
861.388	22409
861.521	23151
861.653	22325
861.786	22230
861.918	22234
862.05	22196
862.183	22287
862.315	22299
862.447	22459
862.58	22382
862.712	22166
862.844	21960
862.976	22211
863.108	22124
863.24	22637
863.372	22090
863.504	22101
863.636	22154
863.768	22105
863.9	22067
864.032	22078
864.164	22032
864.296	22166
864.428	22310
864.559	22246
864.691	22192
864.823	22131
864.954	22150
865.086	22013
865.217	22105
865.349	21949
865.48	22006
865.612	22032
865.743	22158
865.875	22006
866.006	21926
866.137	21907
866.269	22097
866.4	22002
866.531	21991
866.662	21918
866.793	21816
866.924	21987
867.055	21968
867.186	21918
867.317	21998
867.448	21766
867.579	21892
867.71	21720
867.841	21751
867.972	21918
868.103	21831
868.233	21953
868.364	21979
868.495	21953
868.625	22109
868.756	22322
868.886	22109
869.017	22128
869.147	22261
869.278	22207
869.408	22158
869.539	22139
869.669	22249
869.799	22261
869.929	22246
870.06	22382
870.19	22382
870.32	22261
870.45	22573
870.58	22607
870.71	22626
870.84	22668
870.97	22508
871.1	22504
871.23	22672
871.36	22847
871.489	22584
871.619	22831
871.749	22679
871.879	22778
872.008	22968
872.138	22835
872.267	22672
872.397	22599
872.526	22706
872.656	22535
872.785	22493
872.915	22733
873.044	22812
873.173	22713
873.303	22873
873.432	22915
873.561	22919
873.69	22786
873.819	22759
873.948	22847
874.077	22774
874.206	22740
874.335	22790
874.464	22877
874.593	22991
874.722	22927
874.851	23010
874.979	23041
875.108	23128
875.237	22961
875.365	22866
875.494	23029
875.623	23060
875.751	22885
875.88	23071
876.008	23025
876.136	23254
876.265	23433
876.393	23486
876.521	23455
876.65	23497
876.778	23391
876.906	23387
877.034	23292
877.162	23455
877.29	23299
877.418	23490
877.546	23368
877.674	23315
877.802	23307
877.93	23421
878.058	23353
878.185	23071
878.313	23356
878.441	23170
878.568	23288
878.696	23269
878.824	23395
878.951	23307
879.079	23493
879.206	23516
879.333	23577
879.461	23391
879.588	23417
879.715	23440
879.842	23619
879.97	23349
880.097	23071
880.224	23178
880.351	23220
880.478	23086
880.605	23105
880.732	23189
880.859	23440
880.986	23181
881.112	23143
881.239	23170
881.366	22991
881.493	22923
881.619	22668
881.746	22881
881.872	22831
881.999	22733
882.125	22649
882.252	22774
882.378	22656
882.505	22782
882.631	22455
882.757	22443
882.883	22443
883.01	22451
883.136	22371
883.262	22394
883.388	22246
883.514	22303
883.64	22459
883.766	22215
883.892	22154
884.018	22143
884.143	22424
884.269	22363
884.395	22109
884.52	22070
884.646	21956
884.772	21899
884.897	21964
885.023	22139
885.148	22021
885.274	22082
885.399	22128
885.524	22082
885.65	22025
885.775	22002
885.9	21979
886.025	22036
886.15	22124
886.275	21884
886.4	21956
886.525	22017
886.65	21922
886.775	22036
886.9	21934
887.025	22147
887.149	22002
887.274	21705
887.399	21819
887.523	21854
887.648	21774
887.773	21679
887.897	21838
888.021	21743
888.146	21804
888.27	21937
888.395	21831
888.519	21739
888.643	21827
888.767	21918
888.891	21663
889.015	21587
889.139	21675
889.263	21511
889.387	21610
889.511	21774
889.635	21743
889.759	21504
889.883	21583
890.006	21637
890.13	21690
890.254	21504
890.377	21439
890.501	21336
890.624	21218
890.748	21401
890.871	21260
890.995	21047
891.118	21108
891.241	21245
891.364	21062
891.488	21249
891.611	21123
891.734	21058
891.857	21123
891.98	21161
892.103	21199
892.226	21074
892.349	21085
892.471	20823
892.594	21032
892.717	21081
892.839	21070
892.962	21112
893.085	21009
893.207	21085
893.33	20914
893.452	20941
893.575	20937
893.697	20967
893.819	21123
893.941	21226
894.064	21096
894.186	21005
894.308	20937
894.43	21116
894.552	21249
894.674	20990
894.796	20815
894.918	20826
895.04	20956
895.161	21047
895.283	21005
895.405	21032
895.526	20967
895.648	20994
895.769	21047
895.891	21074
896.012	21032
896.134	20941
896.255	20929
896.376	20967
896.498	21062
896.619	21138
896.74	20933
896.861	20956
896.982	21386
897.103	21355
897.224	21272
897.345	21214
897.466	21165
897.587	21214
897.708	21367
897.828	21169
897.949	21123
898.07	21062
898.19	21081
898.311	21214
898.431	21051
898.552	21195
898.672	21241
898.792	21336
898.913	21298
899.033	21119
899.153	20975
899.273	20929
899.393	20967
899.513	21058
899.633	21047
899.753	20925
899.873	20914
899.993	20967
900.113	20906
900.232	20895
900.352	20887
900.472	20796
900.591	20712
900.711	20785
900.83	20644
900.95	20785
901.069	20792
901.189	20674
901.308	20351
901.427	20282
901.546	20252
901.665	20332
901.784	20252
901.904	20202
902.023	20001
902.141	19909
902.26	19856
902.379	19860
902.498	19791
902.617	19742
902.735	19807
902.854	19674
902.973	19708
903.091	19476
903.21	19567
903.328	19400
903.446	19365
903.565	19270
903.683	19202
903.801	19126
903.919	19217
904.038	19145
904.156	19038
904.274	19221
904.392	18977
904.51	19000
904.627	19023
904.745	18985
904.863	19046
904.981	18798
905.098	18623
905.216	18604
905.334	18635
905.451	18684
905.569	18623
905.686	18681
905.803	18623
905.921	18441
906.038	18589
906.155	18433
906.272	18270
906.389	18357
906.506	18239
906.623	18167
906.74	18209
906.857	18095
906.974	18076
907.091	18213
907.208	18258
907.324	18152
907.441	18167
907.557	17901
907.674	17916
907.79	17821
907.907	17897
908.023	18007
908.139	17923
908.256	17752
908.372	17786
908.488	17703
908.604	17672
908.72	17532
908.836	17520
908.952	17478
909.068	17611
909.184	17710
909.3	17691
909.415	17585
909.531	17566
909.647	17402
909.762	17402
909.878	17303
909.993	17368
910.108	17212
910.224	17258
910.339	17223
910.454	17166
910.57	17060
910.685	17121
910.8	17337
910.915	17242
911.03	17006
911.145	16919
911.259	16843
911.374	16831
911.489	16733
911.604	16771
911.718	16611
911.833	16531
911.947	16573
912.062	16481
912.176	16691
912.291	16573
912.405	16706
912.519	16755
912.633	16828
912.748	16672
912.862	16577
912.976	16413
913.09	16371
913.204	16413
913.318	16329
913.431	16573
913.545	16386
913.659	16550
913.772	16371
913.886	16253
914	16181
914.113	16348
914.226	16333
914.34	16443
914.453	16143
914.566	16265
914.68	16139
914.793	16040
914.906	15854
915.019	15778
915.132	15789
915.245	15705
915.358	15793
915.47	15823
915.583	15762
915.696	15854
915.809	15854
915.921	15983
916.034	15686
916.146	15709
916.259	15629
916.371	15774
916.483	15679
916.595	15652
916.708	15595
916.82	15557
916.932	15622
917.044	15591
917.156	15519
917.268	15496
917.38	15428
917.491	15412
917.603	15469
917.715	15496
917.826	15450
917.938	15389
918.049	15268
918.161	15439
918.272	15542
918.384	15473
918.495	15389
918.606	15211
918.717	15123
918.828	15192
918.939	15154
919.05	15074
919.161	15165
919.272	14880
919.383	14971
919.494	15043
919.604	15428
919.715	15218
919.826	15005
919.936	15135
920.047	15199
920.157	15104
920.267	15325
920.378	15150
920.488	14963
920.598	15192
920.708	15340
920.818	15138
920.928	15241
921.038	15416
921.148	15367
921.258	15051
921.368	14956
921.477	14883
921.587	14743
921.697	14739
921.806	14902
921.916	14678
922.025	14507
922.134	14461
922.244	14423
922.353	14549
922.462	14282
922.571	14244
922.68	14176
922.789	14206
922.898	14130
923.007	14111
923.116	14180
923.224	14149
923.333	14020
923.442	14027
923.55	13967
923.659	13940
923.767	13906
923.876	13894
923.984	13944
924.092	13841
924.201	13826
924.309	13845
924.417	13803
924.525	13772
924.633	13780
924.741	14682
924.849	13525
924.956	13628
925.064	13537
925.172	13514
925.279	13506
925.387	13518
925.494	13578
925.602	13559
925.709	13499
925.816	13403
925.924	13396
926.031	13552
926.138	13483
926.245	13457
926.352	13320
926.459	13445
926.566	13559
926.673	13362
926.779	13263
926.886	13190
926.993	13019
927.099	13095
927.206	12985
927.312	12981
927.419	13072
927.525	12996
927.631	13091
927.737	12913
927.843	12848
927.95	12802
928.056	12821
928.162	12840
928.267	12954
928.373	13460
928.479	12897
928.585	12734
928.69	12894
928.796	12848
928.901	12722
929.007	12547
929.112	12795
929.218	12703
929.323	12627
929.428	12521
929.533	12608
929.638	12437
929.743	12528
929.848	12544
929.953	12418
930.058	12422
930.163	12216
930.267	12308
930.372	12391
930.477	12232
930.581	12346
930.685	12205
930.79	12159
930.894	12167
930.998	12136
931.103	12148
931.207	11836
931.311	11809
931.415	11684
931.519	11551
931.623	11471
