Data from test_V78500241_3207.txt Node
Date: Fri Mar 25 16:04:01 CST 2022
User: usil
Spectrometer: V785-0024
Trigger mode: 0
Integration Time (sec): 4.000000E-1
Scans to average: 1
Nonlinearity correction enabled: false
Boxcar width: 0
Storing dark spectrum: false
XAxis mode: Wavelengths
Number of Pixels in Spectrum: 1024
>>>>>Begin Spectral Data<<<<<
801.071	28599
801.214	28710
801.356	28375
801.499	28367
801.641	28322
801.783	28158
801.926	28382
802.068	28333
802.211	28226
802.353	28139
802.496	27835
802.638	27918
802.78	27926
802.923	27873
803.065	27835
803.208	27941
803.35	27934
803.492	28112
803.635	28162
803.777	28097
803.919	28158
804.061	28683
804.204	28257
804.346	28158
804.488	28105
804.63	28192
804.773	28219
804.915	28166
805.057	28382
805.199	28128
805.341	28322
805.483	28333
805.626	28348
805.768	28169
805.91	28508
806.052	28337
806.194	28306
806.336	28440
806.478	28360
806.62	28470
806.762	28455
806.904	28656
807.046	28869
807.188	28809
807.33	28839
807.472	28839
807.614	28752
807.756	28847
807.898	28630
808.04	28706
808.182	28413
808.324	28618
808.465	28786
808.607	28900
808.749	29090
808.891	29197
809.033	29223
809.174	29124
809.316	29014
809.458	29113
809.6	29071
809.741	29174
809.883	29143
810.025	29269
810.166	29292
810.308	29375
810.45	29231
810.591	29299
810.733	29193
810.875	29029
811.016	29041
811.158	28968
811.299	29098
811.441	29181
811.582	29353
811.724	29098
811.865	29128
812.007	29132
812.148	29041
812.29	29258
812.431	29189
812.573	29463
812.714	29547
812.855	29680
812.997	29733
813.138	29847
813.279	29775
813.421	29710
813.562	29349
813.703	29360
813.845	29398
813.986	29018
814.127	28877
814.268	28873
814.41	28812
814.551	28793
814.692	28771
814.833	28809
814.974	28744
815.115	28862
815.256	28683
815.397	28672
815.539	28717
815.68	28596
815.821	28679
815.962	28584
816.103	28565
816.244	28421
816.385	28413
816.526	28443
816.666	28139
816.807	27960
816.948	28048
817.089	28261
817.23	28051
817.371	28032
817.512	28090
817.653	28078
817.793	28070
817.934	28036
818.075	28025
818.216	27960
818.356	28063
818.497	28006
818.638	27857
818.778	27656
818.919	27873
819.06	27812
819.2	27907
819.341	28078
819.481	28196
819.622	28116
819.762	28577
819.903	28390
820.043	28322
820.184	28344
820.324	28234
820.465	28230
820.605	28303
820.746	28086
820.886	28120
821.026	28207
821.167	28158
821.307	28139
821.447	28162
821.588	27998
821.728	27972
821.868	27850
822.008	27538
822.149	27576
822.289	27580
822.429	27252
822.569	27287
822.709	27294
822.849	27096
822.99	27077
823.13	27051
823.27	27020
823.41	26864
823.55	26834
823.69	26937
823.83	27001
823.97	27024
824.11	26678
824.25	26765
824.389	26800
824.529	26754
824.669	26823
824.809	26864
824.949	26758
825.089	26948
825.228	26826
825.368	26655
825.508	26632
825.648	26606
825.787	26533
825.927	26682
826.067	26727
826.206	26598
826.346	26625
826.485	26750
826.625	26583
826.765	26689
826.904	26693
827.044	26503
827.183	26381
827.323	26290
827.462	26427
827.601	26377
827.741	26309
827.88	26476
828.02	26176
828.159	26320
828.298	26434
828.437	26404
828.577	26301
828.716	26473
828.855	26286
828.994	26096
829.134	25989
829.273	26103
829.412	25913
829.551	26043
829.69	25864
829.829	26001
829.968	25986
830.107	26115
830.246	25955
830.385	25936
830.524	25959
830.663	25719
830.802	25761
830.941	25556
831.08	25620
831.219	25666
831.357	25635
831.496	25772
831.635	25605
831.774	25476
831.913	25468
832.051	25464
832.19	25339
832.329	25407
832.467	25301
832.606	25255
832.744	25217
832.883	25301
833.022	25316
833.16	25343
833.299	25316
833.437	25365
833.576	25312
833.714	25354
833.852	25483
833.991	25449
834.129	25354
834.267	25487
834.406	25422
834.544	25460
834.682	25240
834.821	25346
834.959	25476
835.097	25244
835.235	25464
835.373	25263
835.511	25381
835.65	25228
835.788	25327
835.926	25228
836.064	25175
836.202	25034
836.34	25228
836.478	25285
836.615	25095
836.753	25206
836.891	25339
837.029	25194
837.167	25133
837.305	25012
837.443	24992
837.58	25122
837.718	25209
837.856	24985
837.993	25038
838.131	24973
838.269	24837
838.406	25031
838.544	24776
838.681	24707
838.819	24783
838.956	24517
839.094	24437
839.231	24597
839.369	24684
839.506	24764
839.643	24551
839.781	24475
839.918	24365
840.055	24505
840.193	24422
840.33	24327
840.467	24285
840.604	24445
840.742	24608
840.879	24197
841.016	24292
841.153	24273
841.29	24475
841.427	24502
841.564	24456
841.701	24410
841.838	24285
841.975	24365
842.112	24213
842.249	24136
842.385	24072
842.522	24380
842.659	24213
842.796	23996
842.933	24129
843.069	24030
843.206	24182
843.343	24148
843.479	24159
843.616	24235
843.752	23996
843.889	23988
844.025	24190
844.162	23805
844.298	24095
844.435	23847
844.571	23946
844.708	23980
844.844	24015
844.98	24239
845.117	23980
845.253	23809
845.389	23668
845.525	23779
845.661	23794
845.798	23592
845.934	23790
846.07	23581
846.206	23608
846.342	23783
846.478	23661
846.614	23490
846.75	23292
846.886	23334
847.022	23452
847.158	23277
847.294	23402
847.429	23318
847.565	23379
847.701	23657
847.837	23143
847.972	22892
848.108	23189
848.244	23239
848.379	23022
848.515	22987
848.65	22961
848.786	23067
848.921	22980
849.057	23102
849.192	23086
849.328	22984
849.463	22828
849.598	23006
849.734	22725
849.869	22911
850.004	22763
850.14	22824
850.275	22812
850.41	22504
850.545	22729
850.68	22645
850.815	22805
850.95	22816
851.085	22923
851.22	22866
851.355	22771
851.49	22729
851.625	22679
851.76	22710
851.895	22626
852.03	22672
852.165	22824
852.299	22854
852.434	22869
852.569	22736
852.703	22820
852.838	22736
852.973	22828
853.107	22862
853.242	22702
853.376	22561
853.511	22379
853.645	22466
853.78	22493
853.914	22561
854.048	22546
854.183	22462
854.317	22497
854.451	22847
854.585	22554
854.72	22554
854.854	22618
854.988	22470
855.122	22459
855.256	22382
855.39	22546
855.524	22622
855.658	22527
855.792	22500
855.926	22584
856.06	22630
856.194	22668
856.327	22485
856.461	22470
856.595	22603
856.729	22565
856.862	22694
856.996	22672
857.13	22554
857.263	22535
857.397	22763
857.53	22500
857.664	22550
857.797	22527
857.931	22630
858.064	22554
858.197	22561
858.331	22580
858.464	22557
858.597	22333
858.731	22489
858.864	22535
858.997	22394
859.13	22592
859.263	22527
859.396	22694
859.529	22508
859.662	22512
859.795	22443
859.928	22512
860.061	22683
860.194	22675
860.327	22535
860.46	22535
860.592	22729
860.725	22645
860.858	22622
860.99	22546
861.123	22432
861.256	22538
861.388	22557
861.521	23223
861.653	22375
861.786	22306
861.918	22413
862.05	22382
862.183	22390
862.315	22531
862.447	22622
862.58	22459
862.712	22211
862.844	22177
862.976	22386
863.108	22306
863.24	22653
863.372	22131
863.504	22219
863.636	22291
863.768	22344
863.9	22238
864.032	22147
864.164	22207
864.296	22242
864.428	22352
864.559	22318
864.691	22352
864.823	22246
864.954	22211
865.086	22276
865.217	22173
865.349	22105
865.48	22150
865.612	22135
865.743	22230
865.875	22242
866.006	22029
866.137	22131
866.269	22112
866.4	22139
866.531	21994
866.662	22010
866.793	22051
866.924	22086
867.055	22029
867.186	22063
867.317	22109
867.448	22078
867.579	22021
867.71	21987
867.841	21972
867.972	22032
868.103	22070
868.233	22093
868.364	22128
868.495	22181
868.625	22272
868.756	22447
868.886	22166
869.017	22371
869.147	22367
869.278	22360
869.408	22188
869.539	22257
869.669	22409
869.799	22314
869.929	22318
870.06	22371
870.19	22519
870.32	22550
870.45	22588
870.58	22706
870.71	22793
870.84	22790
870.97	22744
871.1	22744
871.23	22786
871.36	22919
871.489	22805
871.619	22915
871.749	22847
871.879	22873
872.008	22999
872.138	22885
872.267	22854
872.397	22790
872.526	22881
872.656	22755
872.785	22611
872.915	23014
873.044	22915
873.173	23041
873.303	23003
873.432	22873
873.561	22984
873.69	22862
873.819	22946
873.948	23037
874.077	22927
874.206	22957
874.335	22953
874.464	23159
874.593	23102
874.722	23109
874.851	23155
874.979	23227
875.108	23159
875.237	23060
875.365	23113
875.494	23071
875.623	23227
875.751	23197
875.88	23166
876.008	23200
876.136	23235
876.265	23520
876.393	23687
876.521	23657
876.65	23627
876.778	23531
876.906	23547
877.034	23452
877.162	23417
877.29	23356
877.418	23551
877.546	23531
877.674	23452
877.802	23459
877.93	23497
878.058	23334
878.185	23265
878.313	23391
878.441	23471
878.568	23322
878.696	23402
878.824	23448
878.951	23558
879.079	23497
879.206	23802
879.333	23543
879.461	23520
879.588	23554
879.715	23630
879.842	23760
879.97	23585
880.097	23410
880.224	23341
880.351	23261
880.478	23414
880.605	23307
880.732	23414
880.859	23547
880.986	23326
881.112	23303
881.239	23284
881.366	22972
881.493	22968
881.619	22774
881.746	22961
881.872	22881
881.999	22980
882.125	22812
882.252	22820
882.378	22801
882.505	22915
882.631	22763
882.757	22618
882.883	22618
883.01	22455
883.136	22466
883.262	22424
883.388	22428
883.514	22668
883.64	22622
883.766	22428
883.892	22265
884.018	22158
884.143	22348
884.269	22531
884.395	22322
884.52	22166
884.646	22158
884.772	22112
884.897	22040
885.023	22196
885.148	22253
885.274	22265
885.399	22253
885.524	22207
885.65	22162
885.775	22306
885.9	22173
886.025	22196
886.15	22169
886.275	22169
886.4	22067
886.525	22166
886.65	22082
886.775	22097
886.9	22276
887.025	22363
887.149	22067
887.274	21998
887.399	22029
887.523	21964
887.648	21918
887.773	21945
887.897	21975
888.021	21922
888.146	21911
888.27	21945
888.395	22070
888.519	21907
888.643	21972
888.767	21793
888.891	21816
889.015	21679
889.139	21808
889.263	21808
889.387	21850
889.511	21998
889.635	21876
889.759	21778
889.883	21797
890.006	21842
890.13	21781
890.254	21641
890.377	21682
890.501	21443
890.624	21447
890.748	21511
890.871	21420
890.995	21222
891.118	21237
891.241	21207
891.364	21222
891.488	21351
891.611	21245
891.734	21302
891.857	21378
891.98	21291
892.103	21199
892.226	21211
892.349	21207
892.471	21058
892.594	21252
892.717	21188
892.839	21116
892.962	21218
893.085	21268
893.207	21256
893.33	21036
893.452	21066
893.575	21230
893.697	21100
893.819	21321
893.941	21363
894.064	21359
894.186	21066
894.308	21017
894.43	21188
894.552	21275
894.674	21256
894.796	21081
894.918	21233
895.04	20967
895.161	21291
895.283	21310
895.405	20960
895.526	21123
895.648	21096
895.769	21058
895.891	21154
896.012	21214
896.134	21150
896.255	21131
896.376	21203
896.498	21085
896.619	21123
896.74	21058
896.861	21119
896.982	21450
897.103	21553
897.224	21359
897.345	21291
897.466	21272
897.587	21363
897.708	21428
897.828	21272
897.949	21173
898.07	21154
898.19	21199
898.311	21393
898.431	21203
898.552	21340
898.672	21325
898.792	21523
898.913	21397
899.033	21188
899.153	21131
899.273	21009
899.393	21055
899.513	21043
899.633	21123
899.753	20990
899.873	20979
899.993	21024
900.113	20971
900.232	21047
900.352	20899
900.472	20857
900.591	20754
900.711	20960
900.83	20727
900.95	20925
901.069	21036
901.189	20682
901.308	20476
901.427	20370
901.546	20408
901.665	20320
901.784	20347
901.904	20309
902.023	20100
902.141	19902
902.26	19864
902.379	19864
902.498	19822
902.617	19856
902.735	20020
902.854	19776
902.973	19772
903.091	19578
903.21	19556
903.328	19624
903.446	19567
903.565	19373
903.683	19308
903.801	19213
903.919	19206
904.038	19270
904.156	19019
904.274	19213
904.392	19194
904.51	19114
904.627	19133
904.745	19072
904.863	19164
904.981	18856
905.098	18692
905.216	18837
905.334	18878
905.451	18700
905.569	18745
905.686	18825
905.803	18814
905.921	18559
906.038	18604
906.155	18658
906.272	18445
906.389	18448
906.506	18445
906.623	18323
906.74	18228
906.857	18258
906.974	18262
907.091	18452
907.208	18422
907.324	18239
907.441	18197
907.557	17984
907.674	18079
907.79	17901
907.907	18007
908.023	18041
908.139	17931
908.256	17954
908.372	17927
908.488	17828
908.604	17703
908.72	17710
908.836	17714
908.952	17691
909.068	17764
909.184	17893
909.3	17767
909.415	17703
909.531	17676
909.647	17436
909.762	17543
909.878	17398
909.993	17429
910.108	17334
910.224	17372
910.339	17417
910.454	17307
910.57	17318
910.685	17208
910.8	17398
910.915	17421
911.03	17246
911.145	17113
911.259	17098
911.374	17056
911.489	16839
911.604	16778
911.718	16786
911.833	16767
911.947	16725
912.062	16542
912.176	16767
912.291	16698
912.405	16694
912.519	16976
912.633	16938
912.748	16740
912.862	16774
912.976	16558
913.09	16470
913.204	16512
913.318	16485
913.431	16725
913.545	16679
913.659	16660
913.772	16500
913.886	16367
914	16185
914.113	16447
914.226	16535
914.34	16344
914.453	16166
914.566	16291
914.68	16211
914.793	16188
914.906	15960
915.019	15842
915.132	15884
915.245	15911
915.358	16029
915.47	15854
915.583	15846
915.696	15945
915.809	16082
915.921	15998
916.034	15835
916.146	15819
916.259	15831
916.371	15854
916.483	15892
916.595	15751
916.708	15694
916.82	15698
916.932	15690
917.044	15736
917.156	15652
917.268	15553
917.38	15633
917.491	15428
917.603	15667
917.715	15606
917.826	15580
917.938	15523
918.049	15348
918.161	15428
918.272	15568
918.384	15625
918.495	15420
918.606	15256
918.717	15237
918.828	15329
918.939	15268
919.05	15233
919.161	15252
919.272	15020
919.383	15104
919.494	15306
919.604	15428
919.715	15268
919.826	15161
919.936	15135
920.047	15268
920.157	15195
920.267	15336
920.378	15256
920.488	15230
920.598	15382
920.708	15549
920.818	15386
920.928	15336
921.038	15469
921.148	15405
921.258	15237
921.368	15154
921.477	14902
921.587	14933
921.697	14785
921.806	14921
921.916	14781
922.025	14560
922.134	14541
922.244	14560
922.353	14590
922.462	14469
922.571	14275
922.68	14240
922.789	14267
922.898	14263
923.007	14183
923.116	14233
923.224	14191
923.333	14149
923.442	14107
923.55	14016
923.659	13974
923.767	14134
923.876	13890
923.984	14027
924.092	13936
924.201	13974
924.309	13951
924.417	13936
924.525	13837
924.633	13898
924.741	14537
924.849	13708
924.956	13807
925.064	13738
925.172	13460
925.279	13567
925.387	13559
925.494	13480
925.602	13734
925.709	13769
925.816	13506
925.924	13521
926.031	13658
926.138	13559
926.245	13540
926.352	13449
926.459	13556
926.566	13643
926.673	13377
926.779	13373
926.886	13445
926.993	13156
927.099	13240
927.206	13137
927.312	13084
927.419	13152
927.525	13114
927.631	13164
927.737	13061
927.843	13027
927.95	12867
928.056	13008
928.162	12890
928.267	12962
928.373	13586
928.479	13031
928.585	12779
928.69	12924
928.796	12958
928.901	12817
929.007	12681
929.112	12772
929.218	12776
929.323	12719
929.428	12612
929.533	12772
929.638	12563
929.743	12612
929.848	12642
929.953	12593
930.058	12532
930.163	12372
930.267	12376
930.372	12471
930.477	12327
930.581	12452
930.685	12399
930.79	12133
930.894	12220
930.998	12144
931.103	12330
931.207	11942
931.311	11847
931.415	11794
931.519	11608
931.623	11608
