Data from test_V78500241_376.txt Node
Date: Fri Mar 25 15:44:24 CST 2022
User: usil
Spectrometer: V785-0024
Trigger mode: 0
Integration Time (sec): 4.000000E-1
Scans to average: 1
Nonlinearity correction enabled: false
Boxcar width: 0
Storing dark spectrum: false
XAxis mode: Wavelengths
Number of Pixels in Spectrum: 1024
>>>>>Begin Spectral Data<<<<<
801.071	29646
801.214	29642
801.356	29311
801.499	29341
801.641	29200
801.783	29216
801.926	29364
802.068	29235
802.211	29166
802.353	29029
802.496	28949
802.638	28900
802.78	28957
802.923	28778
803.065	28755
803.208	28881
803.35	28831
803.492	29010
803.635	29136
803.777	28934
803.919	29185
804.061	29391
804.204	29212
804.346	29056
804.488	28896
804.63	29124
804.773	28805
804.915	29067
805.057	29071
805.199	28972
805.341	29174
805.483	29056
805.626	29117
805.768	29071
805.91	28987
806.052	29208
806.194	29128
806.336	29379
806.478	29284
806.62	29178
806.762	29330
806.904	29596
807.046	29764
807.188	29710
807.33	29611
807.472	29790
807.614	29634
807.756	29646
807.898	29577
808.04	29410
808.182	29364
808.324	29482
808.465	29482
808.607	29649
808.749	29767
808.891	29920
809.033	29950
809.174	29878
809.316	29931
809.458	29908
809.6	29855
809.741	29901
809.883	29996
810.025	30205
810.166	30232
810.308	30121
810.45	30144
810.591	30110
810.733	29901
810.875	29665
811.016	29615
811.158	29897
811.299	29897
811.441	30068
811.582	30076
811.724	29893
811.865	29794
812.007	29866
812.148	29790
812.29	29813
812.431	30007
812.573	30167
812.714	30407
812.855	30532
812.997	30361
813.138	30528
813.279	30547
813.421	30372
813.562	30296
813.703	30159
813.845	30064
813.986	29771
814.127	29585
814.268	29551
814.41	29539
814.551	29474
814.692	29562
814.833	29608
814.974	29375
815.115	29608
815.256	29421
815.397	29368
815.539	29524
815.68	29311
815.821	29353
815.962	29246
816.103	29197
816.244	29326
816.385	29223
816.526	28987
816.666	28896
816.807	28774
816.948	28854
817.089	28953
817.23	28869
817.371	28809
817.512	28713
817.653	28831
817.793	28713
817.934	28797
818.075	28862
818.216	28752
818.356	28733
818.497	28653
818.638	28409
818.778	28542
818.919	28493
819.06	28535
819.2	28592
819.341	28668
819.481	28706
819.622	28915
819.762	29083
819.903	28919
820.043	28900
820.184	28793
820.324	28927
820.465	28980
820.605	28919
820.746	28843
820.886	28752
821.026	28694
821.167	28888
821.307	28892
821.447	28729
821.588	28634
821.728	28649
821.868	28306
822.008	28131
822.149	28074
822.289	28139
822.429	27808
822.569	27816
822.709	27914
822.849	27652
822.99	27644
823.13	27576
823.27	27614
823.41	27587
823.55	27370
823.69	27439
823.83	27454
823.97	27393
824.11	27287
824.25	27245
824.389	27306
824.529	27355
824.669	27165
824.809	27530
824.949	27447
825.089	27397
825.228	27332
825.368	27138
825.508	27146
825.648	27218
825.787	27127
825.927	27127
826.067	27032
826.206	27062
826.346	27176
826.485	27176
826.625	27047
826.765	27321
826.904	27142
827.044	26998
827.183	26971
827.323	26956
827.462	26807
827.601	26617
827.741	26815
827.88	26830
828.02	26583
828.159	26739
828.298	26838
828.437	26910
828.577	26815
828.716	26952
828.855	26769
828.994	26427
829.134	26655
829.273	26526
829.412	26450
829.551	26408
829.69	26583
829.829	26480
829.968	26602
830.107	26530
830.246	26431
830.385	26549
830.524	26381
830.663	26286
830.802	26126
830.941	26073
831.08	26126
831.219	26092
831.357	26092
831.496	26248
831.635	26008
831.774	26096
831.913	25963
832.051	25795
832.19	26008
832.329	25883
832.467	25772
832.606	25734
832.744	25639
832.883	25670
833.022	25704
833.16	25723
833.299	25738
833.437	25746
833.576	25727
833.714	25780
833.852	25875
833.991	25845
834.129	25696
834.267	25795
834.406	25788
834.544	25769
834.682	25685
834.821	25674
834.959	25780
835.097	25689
835.235	25738
835.373	25613
835.511	25643
835.65	25537
835.788	25514
835.926	25365
836.064	25373
836.202	25259
836.34	25434
836.478	25620
836.615	25426
836.753	25559
836.891	25567
837.029	25582
837.167	25407
837.305	25384
837.443	25354
837.58	25438
837.718	25419
837.856	25426
837.993	25228
838.131	25430
838.269	25137
838.406	25297
838.544	25091
838.681	25027
838.819	24939
838.956	24871
839.094	24821
839.231	24856
839.369	24962
839.506	25088
839.643	25046
839.781	24764
839.918	24890
840.055	24738
840.193	24722
840.33	24738
840.467	24589
840.604	24810
840.742	24897
840.879	24494
841.016	24700
841.153	24498
841.29	24764
841.427	24486
841.564	24692
841.701	24661
841.838	24684
841.975	24551
842.112	24479
842.249	24475
842.385	24429
842.522	24563
842.659	24460
842.796	24353
842.933	24372
843.069	24369
843.206	24228
843.343	24513
843.479	24513
843.616	24311
843.752	24251
843.889	24178
844.025	24292
844.162	24087
844.298	24327
844.435	24163
844.571	24159
844.708	24106
844.844	24254
844.98	24171
845.117	24117
845.253	24083
845.389	23973
845.525	23954
845.661	23882
845.798	23847
845.934	23870
846.07	23771
846.206	23767
846.342	24064
846.478	23786
846.614	23703
846.75	23566
846.886	23585
847.022	23528
847.158	23554
847.294	23524
847.429	23497
847.565	23554
847.701	23805
847.837	23296
847.972	23220
848.108	23318
848.244	23334
848.379	23193
848.515	23155
848.65	23098
848.786	23124
848.921	23200
849.057	23197
849.192	23220
849.328	23193
849.463	23159
849.598	23071
849.734	22961
849.869	22972
850.004	22904
850.14	22923
850.275	22869
850.41	22839
850.545	22767
850.68	22866
850.815	22919
850.95	22858
851.085	23113
851.22	22816
851.355	22869
851.49	22869
851.625	22759
851.76	22797
851.895	22774
852.03	22759
852.165	22885
852.299	22869
852.434	22938
852.569	22942
852.703	22854
852.838	22957
852.973	22972
853.107	22987
853.242	22759
853.376	22691
853.511	22504
853.645	22516
853.78	22763
853.914	22694
854.048	22592
854.183	22645
854.317	22664
854.451	22801
854.585	22736
854.72	22675
854.854	22706
854.988	22531
855.122	22634
855.256	22561
855.39	22641
855.524	22588
855.658	22573
855.792	22759
855.926	22725
856.06	22664
856.194	22778
856.327	22706
856.461	22672
856.595	22596
856.729	22615
856.862	22790
856.996	22615
857.13	22725
857.263	22679
857.397	22611
857.53	22675
857.664	22645
857.797	22744
857.931	22691
858.064	22588
858.197	22660
858.331	22592
858.464	22455
858.597	22592
858.731	22508
858.864	22637
858.997	22474
859.13	22615
859.263	22649
859.396	22653
859.529	22550
859.662	22573
859.795	22557
859.928	22641
860.061	22828
860.194	22843
860.327	22691
860.46	22820
860.592	22790
860.725	22767
860.858	22672
860.99	22592
861.123	22580
861.256	22694
861.388	22649
861.521	23223
861.653	22523
861.786	22440
861.918	22546
862.05	22500
862.183	22554
862.315	22679
862.447	22550
862.58	22523
862.712	22348
862.844	22200
862.976	22341
863.108	22329
863.24	22725
863.372	22329
863.504	22109
863.636	22428
863.768	22348
863.9	22363
864.032	22238
864.164	22284
864.296	22318
864.428	22344
864.559	22371
864.691	22360
864.823	22112
864.954	22314
865.086	22109
865.217	22067
865.349	22101
865.48	22147
865.612	22238
865.743	22379
865.875	22253
866.006	22211
866.137	22276
866.269	22207
866.4	22078
866.531	22109
866.662	22169
866.793	22048
866.924	22177
867.055	22219
867.186	22131
867.317	22082
867.448	21876
867.579	22006
867.71	22002
867.841	21930
867.972	22109
868.103	22017
868.233	22055
868.364	22078
868.495	22219
868.625	22223
868.756	22272
868.886	22131
869.017	22367
869.147	22386
869.278	22276
869.408	22386
869.539	22382
869.669	22371
869.799	22421
869.929	22428
870.06	22398
870.19	22691
870.32	22672
870.45	22786
870.58	22687
870.71	22820
870.84	22801
870.97	22634
871.1	22725
871.23	22824
871.36	22877
871.489	22919
871.619	22927
871.749	22824
871.879	22843
872.008	23022
872.138	22908
872.267	22946
872.397	22854
872.526	22736
872.656	22744
872.785	22713
872.915	22961
873.044	23086
873.173	22866
873.303	22877
873.432	22957
873.561	22976
873.69	22862
873.819	22930
873.948	23025
874.077	22900
874.206	22877
874.335	22801
874.464	22949
874.593	23136
874.722	23052
874.851	23029
874.979	23117
875.108	23235
875.237	23162
875.365	23098
875.494	23151
875.623	23265
875.751	23117
875.88	23105
876.008	23417
876.136	23288
876.265	23566
876.393	23672
876.521	23600
876.65	23570
876.778	23528
876.906	23524
877.034	23398
877.162	23524
877.29	23296
877.418	23551
877.546	23551
877.674	23531
877.802	23615
877.93	23410
878.058	23497
878.185	23334
878.313	23376
878.441	23467
878.568	23296
878.696	23406
878.824	23566
878.951	23520
879.079	23707
879.206	23703
879.333	23592
879.461	23592
879.588	23554
879.715	23566
879.842	23657
879.97	23512
880.097	23372
880.224	23330
880.351	23410
880.478	23364
880.605	23265
880.732	23246
880.859	23566
880.986	23299
881.112	23315
881.239	23121
881.366	23143
881.493	23094
881.619	22869
881.746	22930
881.872	22881
881.999	22805
882.125	22889
882.252	23006
882.378	22816
882.505	22927
882.631	22824
882.757	22660
882.883	22713
883.01	22653
883.136	22542
883.262	22413
883.388	22470
883.514	22557
883.64	22531
883.766	22462
883.892	22356
884.018	22493
884.143	22531
884.269	22615
884.395	22356
884.52	22131
884.646	22135
884.772	22131
884.897	22067
885.023	22219
885.148	22150
885.274	22207
885.399	22310
885.524	22128
885.65	22215
885.775	22192
885.9	22078
886.025	22291
886.15	22200
886.275	22158
886.4	21994
886.525	22013
886.65	22093
886.775	22074
886.9	22219
887.025	22276
887.149	22177
887.274	21983
887.399	21979
887.523	21926
887.648	21865
887.773	21838
887.897	22029
888.021	21994
888.146	21778
888.27	21994
888.395	22059
888.519	21937
888.643	21941
888.767	21975
888.891	21911
889.015	21774
889.139	21785
889.263	21831
889.387	21854
889.511	21888
889.635	21869
889.759	21724
889.883	21679
890.006	21679
890.13	21663
890.254	21557
890.377	21595
890.501	21488
890.624	21412
890.748	21454
890.871	21443
890.995	21252
891.118	21214
891.241	21272
891.364	21230
891.488	21378
891.611	21256
891.734	21119
891.857	21363
891.98	21332
892.103	21287
892.226	21317
892.349	21093
892.471	20994
892.594	21184
892.717	21199
892.839	21173
892.962	21252
893.085	21355
893.207	21123
893.33	20937
893.452	21047
893.575	21233
893.697	21085
893.819	21298
893.941	21351
894.064	21169
894.186	21081
894.308	20963
894.43	21135
894.552	21252
894.674	21199
894.796	21036
894.918	21100
895.04	21055
895.161	21176
895.283	21096
895.405	21085
895.526	21017
895.648	21066
895.769	21070
895.891	21161
896.012	21135
896.134	21260
896.255	21184
896.376	21222
896.498	21150
896.619	21214
896.74	21146
896.861	21173
896.982	21458
897.103	21644
897.224	21450
897.345	21313
897.466	21317
897.587	21306
897.708	21431
897.828	21374
897.949	21310
898.07	21085
898.19	21180
898.311	21336
898.431	21203
898.552	21313
898.672	21317
898.792	21382
898.913	21287
899.033	21180
899.153	21176
899.273	20925
899.393	21093
899.513	21024
899.633	21142
899.753	21024
899.873	20925
899.993	20941
900.113	20960
900.232	20975
900.352	21032
900.472	20872
900.591	20861
900.711	20868
900.83	20830
900.95	20887
901.069	20891
901.189	20724
901.308	20488
901.427	20336
901.546	20389
901.665	20374
901.784	20377
901.904	20240
902.023	20058
902.141	19936
902.26	19849
902.379	19989
902.498	19830
902.617	19761
902.735	19947
902.854	19780
902.973	19875
903.091	19525
903.21	19430
903.328	19415
903.446	19369
903.565	19304
903.683	19415
903.801	19221
903.919	19198
904.038	19339
904.156	19110
904.274	19160
904.392	19065
904.51	19103
904.627	19050
904.745	19118
904.863	19118
904.981	18814
905.098	18707
905.216	18802
905.334	18821
905.451	18703
905.569	18681
905.686	18677
905.803	18726
905.921	18448
906.038	18608
906.155	18498
906.272	18429
906.389	18460
906.506	18186
906.623	18376
906.74	18251
906.857	18133
906.974	18167
907.091	18365
907.208	18361
907.324	18205
907.441	18140
907.557	18015
907.674	18087
907.79	17882
907.907	17824
908.023	17920
908.139	17863
908.256	17855
908.372	17840
908.488	17802
908.604	17619
908.72	17596
908.836	17668
908.952	17642
909.068	17657
909.184	17798
909.3	17672
909.415	17764
909.531	17710
909.647	17417
909.762	17273
909.878	17353
909.993	17337
910.108	17345
910.224	17204
910.339	17265
910.454	17273
910.57	17166
910.685	17079
910.8	17395
910.915	17269
911.03	17174
911.145	16908
911.259	16938
911.374	16938
911.489	16790
911.604	16801
911.718	16611
911.833	16630
911.947	16580
912.062	16413
912.176	16656
912.291	16721
912.405	16675
912.519	16854
912.633	16782
912.748	16767
912.862	16573
912.976	16436
913.09	16367
913.204	16440
913.318	16443
913.431	16504
913.545	16512
913.659	16626
913.772	16402
913.886	16318
914	16204
914.113	16265
914.226	16295
914.34	16188
914.453	16177
914.566	16253
914.68	16067
914.793	16093
914.906	15857
915.019	15869
915.132	15747
915.245	15804
915.358	15899
915.47	15816
915.583	15812
915.696	15804
915.809	15934
915.921	16017
916.034	15793
916.146	15713
916.259	15675
916.371	15759
916.483	15724
916.595	15724
916.708	15542
916.82	15633
916.932	15530
917.044	15629
917.156	15496
917.268	15466
917.38	15412
917.491	15378
917.603	15492
917.715	15504
917.826	15507
917.938	15378
918.049	15214
918.161	15424
918.272	15469
918.384	15435
918.495	15374
918.606	15188
918.717	15123
918.828	15279
918.939	15241
919.05	15055
919.161	15108
919.272	14914
919.383	15062
919.494	15195
919.604	15382
919.715	15108
919.826	15070
919.936	15013
920.047	15230
920.157	15116
920.267	15195
920.378	15119
920.488	15169
920.598	15321
920.708	15458
920.818	15260
920.928	15180
921.038	15374
921.148	15340
921.258	15051
921.368	15017
921.477	14777
921.587	14849
921.697	14773
921.806	14830
921.916	14705
922.025	14560
922.134	14339
922.244	14434
922.353	14450
922.462	14389
922.571	14206
922.68	14050
922.789	13955
922.898	14119
923.007	13944
923.116	14043
923.224	14054
923.333	14069
923.442	13883
923.55	13883
923.659	14020
923.767	13959
923.876	13852
923.984	13936
924.092	13696
924.201	13791
924.309	13689
924.417	13795
924.525	13704
924.633	13750
924.741	14450
924.849	13487
924.956	13624
925.064	13651
925.172	13411
925.279	13460
925.387	13548
925.494	13384
925.602	13647
925.709	13559
925.816	13373
925.924	13453
926.031	13460
926.138	13339
926.245	13373
926.352	13362
926.459	13411
926.566	13362
926.673	13384
926.779	13221
926.886	13259
926.993	13031
927.099	13031
927.206	12951
927.312	12962
927.419	12973
927.525	12962
927.631	13076
927.737	13000
927.843	12810
927.95	12764
928.056	12817
928.162	12817
928.267	12817
928.373	13472
928.479	12924
928.585	12635
928.69	12772
928.796	12802
928.901	12715
929.007	12486
929.112	12563
929.218	12597
929.323	12585
929.428	12620
929.533	12711
929.638	12460
929.743	12418
929.848	12528
929.953	12445
930.058	12342
930.163	12205
930.267	12209
930.372	12429
930.477	12167
930.581	12365
930.685	12228
930.79	12049
930.894	12110
930.998	12022
931.103	12251
931.207	11771
931.311	11805
931.415	11668
931.519	11474
931.623	11448
