Data from test_V78500241_506.txt Node
Date: Fri Mar 25 15:45:18 CST 2022
User: usil
Spectrometer: V785-0024
Trigger mode: 0
Integration Time (sec): 4.000000E-1
Scans to average: 1
Nonlinearity correction enabled: false
Boxcar width: 0
Storing dark spectrum: false
XAxis mode: Wavelengths
Number of Pixels in Spectrum: 1024
>>>>>Begin Spectral Data<<<<<
801.071	27667
801.214	27557
801.356	27397
801.499	27207
801.641	27119
801.783	27043
801.926	27131
802.068	26956
802.211	26944
802.353	26918
802.496	26769
802.638	26636
802.78	26575
802.923	26625
803.065	26602
803.208	26750
803.35	26655
803.492	26705
803.635	26864
803.777	26629
803.919	26845
804.061	27085
804.204	26834
804.346	26773
804.488	26682
804.63	26735
804.773	26754
804.915	26880
805.057	26868
805.199	26792
805.341	26815
805.483	26902
805.626	27081
805.768	26769
805.91	26918
806.052	27047
806.194	26857
806.336	27169
806.478	27017
806.62	26910
806.762	27062
806.904	27100
807.046	27500
807.188	27454
807.33	27355
807.472	27496
807.614	27249
807.756	27203
807.898	27245
808.04	27123
808.182	27036
808.324	27237
808.465	27302
808.607	27583
808.749	27637
808.891	27644
809.033	27736
809.174	27580
809.316	27652
809.458	27694
809.6	27587
809.741	27778
809.883	27671
810.025	27804
810.166	27743
810.308	27865
810.45	27869
810.591	27831
810.733	27629
810.875	27572
811.016	27488
811.158	27481
811.299	27587
811.441	27804
811.582	27774
811.724	27622
811.865	27462
812.007	27576
812.148	27564
812.29	27595
812.431	27865
812.573	27964
812.714	28032
812.855	28101
812.997	28280
813.138	28443
813.279	28314
813.421	28173
813.562	28158
813.703	27934
813.845	27633
813.986	27622
814.127	27424
814.268	27294
814.41	27500
814.551	27321
814.692	27344
814.833	27195
814.974	27138
815.115	27397
815.256	27051
815.397	27138
815.539	27211
815.68	27081
815.821	27024
815.962	27013
816.103	27074
816.244	26849
816.385	26880
816.526	26796
816.666	26659
816.807	26541
816.948	26476
817.089	26636
817.23	26583
817.371	26568
817.512	26488
817.653	26457
817.793	26442
817.934	26609
818.075	26564
818.216	26522
818.356	26476
818.497	26495
818.638	26206
818.778	26282
818.919	26282
819.06	26351
819.2	26389
819.341	26408
819.481	26480
819.622	26530
819.762	26746
819.903	26811
820.043	26659
820.184	26708
820.324	26609
820.465	26712
820.605	26765
820.746	26682
820.886	26377
821.026	26655
821.167	26575
821.307	26587
821.447	26575
821.588	26393
821.728	26484
821.868	26115
822.008	26103
822.149	26054
822.289	26065
822.429	25974
822.569	25746
822.709	25529
822.849	25548
822.99	25464
823.13	25354
823.27	25438
823.41	25354
823.55	25266
823.69	25362
823.83	25266
823.97	25221
824.11	25164
824.25	24973
824.389	25069
824.529	25396
824.669	25110
824.809	25179
824.949	25293
825.089	25278
825.228	25270
825.368	25038
825.508	24981
825.648	24871
825.787	25217
825.927	24966
826.067	24951
826.206	25107
826.346	25126
826.485	24962
826.625	25080
826.765	25107
826.904	24928
827.044	24798
827.183	24688
827.323	24677
827.462	24715
827.601	24760
827.741	24745
827.88	24730
828.02	24631
828.159	24650
828.298	24726
828.437	24875
828.577	24585
828.716	24920
828.855	24623
828.994	24414
829.134	24525
829.273	24502
829.412	24361
829.551	24266
829.69	24346
829.829	24486
829.968	24483
830.107	24479
830.246	24479
830.385	24342
830.524	24254
830.663	24296
830.802	24182
830.941	24098
831.08	24038
831.219	24076
831.357	24163
831.496	24243
831.635	24072
831.774	23904
831.913	23760
832.051	23904
832.19	23847
832.329	23714
832.467	23699
832.606	23695
832.744	23691
832.883	23710
833.022	23707
833.16	23531
833.299	23657
833.437	23699
833.576	23756
833.714	23745
833.852	23893
833.991	23870
834.129	23805
834.267	23908
834.406	23783
834.544	23733
834.682	23893
834.821	23680
834.959	24015
835.097	23661
835.235	23771
835.373	23786
835.511	23775
835.65	23570
835.788	23638
835.926	23429
836.064	23444
836.202	23482
836.34	23573
836.478	23729
836.615	23668
836.753	23627
836.891	23729
837.029	23539
837.167	23520
837.305	23410
837.443	23425
837.58	23486
837.718	23490
837.856	23467
837.993	23360
838.131	23303
838.269	23212
838.406	23383
838.544	23204
838.681	23067
838.819	22953
838.956	22946
839.094	22919
839.231	22995
839.369	23083
839.506	23208
839.643	23117
839.781	22850
839.918	22885
840.055	22919
840.193	22850
840.33	22843
840.467	22881
840.604	22824
840.742	23094
840.879	22713
841.016	22831
841.153	22755
841.29	22927
841.427	22812
841.564	22812
841.701	22755
841.838	22805
841.975	22710
842.112	22748
842.249	22721
842.385	22672
842.522	22793
842.659	22596
842.796	22550
842.933	22508
843.069	22481
843.206	22557
843.343	22516
843.479	22630
843.616	22687
843.752	22360
843.889	22207
844.025	22424
844.162	22417
844.298	22470
844.435	22280
844.571	22360
844.708	22440
844.844	22440
844.98	22375
845.117	22485
845.253	22219
845.389	22204
845.525	22238
845.661	22196
845.798	22173
845.934	22158
846.07	22120
846.206	22128
846.342	22280
846.478	22070
846.614	21873
846.75	21865
846.886	21724
847.022	21922
847.158	21835
847.294	21797
847.429	21854
847.565	21728
847.701	22029
847.837	21488
847.972	21583
848.108	21561
848.244	21778
848.379	21447
848.515	21329
848.65	21435
848.786	21351
848.921	21321
849.057	21526
849.192	21405
849.328	21481
849.463	21439
849.598	21412
849.734	21291
849.869	21226
850.004	21161
850.14	21329
850.275	21085
850.41	21017
850.545	21180
850.68	21135
850.815	21146
850.95	21138
851.085	21363
851.22	21176
851.355	21123
851.49	21131
851.625	21074
851.76	21017
851.895	21142
852.03	21055
852.165	21199
852.299	21195
852.434	21245
852.569	21108
852.703	21119
852.838	21093
852.973	21218
853.107	21211
853.242	21051
853.376	20918
853.511	20895
853.645	20967
853.78	21089
853.914	20960
854.048	20914
854.183	20979
854.317	20998
854.451	21218
854.585	21077
854.72	20891
854.854	21089
854.988	20944
855.122	20994
855.256	20796
855.39	20956
855.524	20967
855.658	20899
855.792	20998
855.926	20933
856.06	21085
856.194	21013
856.327	21074
856.461	20902
856.595	20944
856.729	20914
856.862	21096
856.996	21108
857.13	21089
857.263	21123
857.397	21089
857.53	20952
857.664	20990
857.797	21013
857.931	21085
858.064	20929
858.197	21020
858.331	20895
858.464	21047
858.597	20918
858.731	20982
858.864	20952
858.997	20842
859.13	20864
859.263	21081
859.396	21055
859.529	20956
859.662	20918
859.795	20975
859.928	20979
860.061	21214
860.194	21188
860.327	21051
860.46	21062
860.592	21237
860.725	21226
860.858	21127
860.99	20956
861.123	20933
861.256	20838
861.388	20880
861.521	21610
861.653	20956
861.786	20800
861.918	20921
862.05	20891
862.183	20914
862.315	20861
862.447	20986
862.58	20929
862.712	20777
862.844	20621
862.976	20785
863.108	20842
863.24	21211
863.372	20663
863.504	20701
863.636	20823
863.768	20796
863.9	20629
864.032	20552
864.164	20682
864.296	20746
864.428	20781
864.559	20693
864.691	20689
864.823	20769
864.954	20655
865.086	20716
865.217	20556
865.349	20545
865.48	20667
865.612	20575
865.743	20796
865.875	20644
866.006	20488
866.137	20442
866.269	20629
866.4	20686
866.531	20488
866.662	20427
866.793	20590
866.924	20484
867.055	20617
867.186	20492
867.317	20514
867.448	20537
867.579	20450
867.71	20457
867.841	20503
867.972	20415
868.103	20457
868.233	20507
868.364	20393
868.495	20682
868.625	20777
868.756	21013
868.886	20735
869.017	20716
869.147	20982
869.278	20826
869.408	20739
869.539	20727
869.669	20830
869.799	20800
869.929	21005
870.06	20891
870.19	21032
870.32	21058
870.45	21245
870.58	21161
870.71	21268
870.84	21157
870.97	21123
871.1	21047
871.23	21382
871.36	21348
871.489	21291
871.619	21393
871.749	21374
871.879	21424
872.008	21397
872.138	21363
872.267	21302
872.397	21188
872.526	21203
872.656	21173
872.785	21180
872.915	21454
873.044	21488
873.173	21534
873.303	21355
873.432	21526
873.561	21504
873.69	21233
873.819	21370
873.948	21526
874.077	21283
874.206	21329
874.335	21439
874.464	21530
874.593	21800
874.722	21583
874.851	21762
874.979	21648
875.108	21713
875.237	21618
875.365	21523
875.494	21713
875.623	21774
875.751	21485
875.88	21660
876.008	21648
876.136	21861
876.265	21895
876.393	22139
876.521	22021
876.65	22265
876.778	22013
876.906	21892
877.034	22010
877.162	21911
877.29	21953
877.418	22051
877.546	21994
877.674	21994
877.802	21922
877.93	21899
878.058	21918
878.185	21873
878.313	21956
878.441	21937
878.568	21743
878.696	21873
878.824	21991
878.951	22128
879.079	22253
879.206	22265
879.333	22154
879.461	22006
879.588	22173
879.715	22120
879.842	22234
879.97	22017
880.097	21793
880.224	21785
880.351	21846
880.478	21755
880.605	21728
880.732	21857
880.859	22051
880.986	21778
881.112	21846
881.239	21622
881.366	21564
881.493	21519
881.619	21275
881.746	21302
881.872	21435
881.999	21329
882.125	21275
882.252	21462
882.378	21458
882.505	21504
882.631	21256
882.757	21032
882.883	21188
883.01	21157
883.136	21066
883.262	20971
883.388	20967
883.514	21047
883.64	21108
883.766	20872
883.892	20876
884.018	20762
884.143	21074
884.269	21051
884.395	20864
884.52	20716
884.646	20823
884.772	20678
884.897	20594
885.023	20640
885.148	20819
885.274	20902
885.399	20785
885.524	20769
885.65	20765
885.775	20731
885.9	20716
886.025	20880
886.15	20746
886.275	20720
886.4	20739
886.525	20701
886.65	20598
886.775	20590
886.9	20800
887.025	20914
887.149	20663
887.274	20461
887.399	20556
887.523	20526
887.648	20590
887.773	20549
887.897	20484
888.021	20522
888.146	20366
888.27	20560
888.395	20446
888.519	20594
888.643	20533
888.767	20629
888.891	20423
889.015	20267
889.139	20358
889.263	20248
889.387	20336
889.511	20518
889.635	20434
889.759	20328
889.883	20263
890.006	20267
890.13	20385
890.254	20301
890.377	20298
890.501	20111
890.624	20073
890.748	20138
890.871	19940
890.995	19852
891.118	19871
891.241	19887
891.364	19913
891.488	19955
891.611	19913
891.734	19997
891.857	19986
891.98	19852
892.103	19898
892.226	19875
892.349	19719
892.471	19696
892.594	19757
892.717	19898
892.839	19677
892.962	19731
893.085	19868
893.207	19731
893.33	19662
893.452	19704
893.575	19833
893.697	19750
893.819	19974
893.941	20084
894.064	19974
894.186	19811
894.308	19753
894.43	19883
894.552	20016
894.674	19845
894.796	19674
894.918	19772
895.04	19723
895.161	19860
895.283	19936
895.405	19689
895.526	19700
895.648	19750
895.769	19868
895.891	19795
896.012	19830
896.134	19871
896.255	19841
896.376	19845
896.498	19696
896.619	19696
896.74	19719
896.861	19887
896.982	20202
897.103	20271
897.224	20145
897.345	20024
897.466	20020
897.587	20077
897.708	20115
897.828	20092
897.949	19959
898.07	19963
898.19	19974
898.311	20122
898.431	19967
898.552	20001
898.672	20020
898.792	20183
898.913	19955
899.033	19871
899.153	19780
899.273	19715
899.393	19795
899.513	19742
899.633	19909
899.753	19822
899.873	19750
899.993	19772
900.113	19670
900.232	19780
900.352	19658
900.472	19643
900.591	19590
900.711	19605
900.83	19476
900.95	19666
901.069	19643
901.189	19514
901.308	19148
901.427	19012
901.546	19137
901.665	19122
901.784	19240
901.904	19004
902.023	18973
902.141	18726
902.26	18673
902.379	18776
902.498	18726
902.617	18563
902.735	18635
902.854	18608
902.973	18597
903.091	18342
903.21	18346
903.328	18342
903.446	18399
903.565	18220
903.683	18106
903.801	18060
903.919	18079
904.038	17984
904.156	17969
904.274	18038
904.392	17901
904.51	17802
904.627	17889
904.745	17961
904.863	18007
904.981	17676
905.098	17516
905.216	17505
905.334	17638
905.451	17703
905.569	17543
905.686	17562
905.803	17630
905.921	17360
906.038	17379
906.155	17505
906.272	17326
906.389	17330
906.506	17086
906.623	17261
906.74	17204
906.857	16946
906.974	16995
907.091	17204
907.208	17197
907.324	17052
907.441	17048
907.557	16763
907.674	16862
907.79	16752
907.907	16854
908.023	16824
908.139	16889
908.256	16790
908.372	16854
908.488	16698
908.604	16653
908.72	16421
908.836	16561
908.952	16542
909.068	16554
909.184	16641
909.3	16474
909.415	16698
909.531	16615
909.647	16363
909.762	16291
909.878	16242
909.993	16284
910.108	16234
910.224	16223
910.339	16226
910.454	16158
910.57	16188
910.685	16097
910.8	16242
910.915	16185
911.03	16116
911.145	15899
911.259	15998
911.374	15918
911.489	15835
911.604	15682
911.718	15625
911.833	15682
911.947	15477
912.062	15439
912.176	15553
912.291	15717
912.405	15652
912.519	15918
912.633	15774
912.748	15622
912.862	15603
912.976	15473
913.09	15313
913.204	15344
913.318	15523
913.431	15523
913.545	15629
913.659	15538
913.772	15401
913.886	15252
914	15184
914.113	15306
914.226	15359
914.34	15382
914.453	15055
914.566	15256
914.68	15165
914.793	15184
914.906	14883
915.019	14887
915.132	14777
915.245	14800
915.358	14868
915.47	14826
915.583	14773
915.696	14887
915.809	15039
915.921	14891
916.034	14807
916.146	14750
916.259	14697
916.371	14902
916.483	14853
916.595	14613
916.708	14762
916.82	14743
916.932	14716
917.044	14708
917.156	14655
917.268	14465
917.38	14625
917.491	14492
917.603	14469
917.715	14545
917.826	14537
917.938	14408
918.049	14328
918.161	14488
918.272	14579
918.384	14670
918.495	14454
918.606	14317
918.717	14191
918.828	14275
918.939	14294
919.05	14130
919.161	14248
919.272	14145
919.383	14149
919.494	14317
919.604	14495
919.715	14252
919.826	14130
919.936	14180
920.047	14290
920.157	14256
920.267	14492
920.378	14237
920.488	14172
920.598	14579
920.708	14598
920.818	14419
920.928	14396
921.038	14556
921.148	14469
921.258	14229
921.368	14096
921.477	14001
921.587	13955
921.697	13833
921.806	13932
921.916	13887
922.025	13719
922.134	13772
922.244	13632
922.353	13674
922.462	13586
922.571	13407
922.68	13278
922.789	13316
922.898	13263
923.007	13202
923.116	13346
923.224	13331
923.333	13301
923.442	13198
923.55	13133
923.659	13156
923.767	13160
923.876	13069
923.984	13042
924.092	13141
924.201	13069
924.309	13038
924.417	13019
924.525	12954
924.633	12962
924.741	13708
924.849	12825
924.956	12993
925.064	12779
925.172	12616
925.279	12795
925.387	12692
925.494	12734
925.602	12928
925.709	12783
925.816	12597
925.924	12650
926.031	12821
926.138	12749
926.245	12749
926.352	12593
926.459	12700
926.566	12745
926.673	12608
926.779	12513
926.886	12479
926.993	12334
927.099	12342
927.206	12239
927.312	12296
927.419	12292
927.525	12308
927.631	12323
927.737	12224
927.843	12136
927.95	11992
928.056	12129
928.162	12114
928.267	12186
928.373	12825
928.479	12197
928.585	11988
928.69	12068
928.796	12110
928.901	11996
929.007	11863
929.112	11942
929.218	11916
929.323	11904
929.428	11843
929.533	11996
929.638	11737
929.743	11798
929.848	11855
929.953	11802
930.058	11718
930.163	11611
930.267	11528
930.372	11665
930.477	11436
930.581	11821
930.685	11497
930.79	11455
930.894	11520
930.998	11421
931.103	11627
931.207	11181
931.311	11045
931.415	11018
931.519	10850
931.623	10843
