Data from test_V78500241_835.txt Node
Date: Fri Mar 25 15:47:35 CST 2022
User: usil
Spectrometer: V785-0024
Trigger mode: 0
Integration Time (sec): 4.000000E-1
Scans to average: 1
Nonlinearity correction enabled: false
Boxcar width: 0
Storing dark spectrum: false
XAxis mode: Wavelengths
Number of Pixels in Spectrum: 1024
>>>>>Begin Spectral Data<<<<<
801.071	27275
801.214	27192
801.356	26883
801.499	26876
801.641	26785
801.783	26853
801.926	26773
802.068	26731
802.211	26686
802.353	26530
802.496	26545
802.638	26438
802.78	26423
802.923	26347
803.065	26343
803.208	26248
803.35	26469
803.492	26552
803.635	26530
803.777	26461
803.919	26495
804.061	26826
804.204	26640
804.346	26514
804.488	26400
804.63	26495
804.773	26492
804.915	26552
805.057	26545
805.199	26511
805.341	26541
805.483	26693
805.626	26522
805.768	26488
805.91	26701
806.052	26746
806.194	26499
806.336	26834
806.478	26602
806.62	26636
806.762	26777
806.904	26830
807.046	27119
807.188	27070
807.33	26963
807.472	27043
807.614	26918
807.756	26990
807.898	26982
808.04	26800
808.182	26788
808.324	26914
808.465	26971
808.607	27154
808.749	27199
808.891	27378
809.033	27458
809.174	27359
809.316	27241
809.458	27310
809.6	27138
809.741	27344
809.883	27473
810.025	27648
810.166	27656
810.308	27534
810.45	27469
810.591	27393
810.733	27268
810.875	27142
811.016	27195
811.158	27123
811.299	27435
811.441	27462
811.582	27473
811.724	27096
811.865	27218
812.007	27241
812.148	27207
812.29	27180
812.431	27424
812.573	27504
812.714	27686
812.855	27732
812.997	27819
813.138	27930
813.279	27880
813.421	27781
813.562	27705
813.703	27530
813.845	27545
813.986	27245
814.127	26933
814.268	26960
814.41	26990
814.551	26777
814.692	26826
814.833	26807
814.974	26781
815.115	26956
815.256	26796
815.397	26625
815.539	26712
815.68	26663
815.821	26674
815.962	26739
816.103	26762
816.244	26598
816.385	26396
816.526	26518
816.666	26263
816.807	26183
816.948	26305
817.089	26366
817.23	26244
817.371	26214
817.512	26229
817.653	26271
817.793	26130
817.934	26191
818.075	26248
818.216	26111
818.356	26046
818.497	26005
818.638	25845
818.778	25906
818.919	25841
819.06	25871
819.2	26024
819.341	26138
819.481	26142
819.622	26317
819.762	26594
819.903	26423
820.043	26400
820.184	26355
820.324	26210
820.465	26358
820.605	26328
820.746	26298
820.886	26119
821.026	26221
821.167	26157
821.307	26336
821.447	26100
821.588	26077
821.728	26054
821.868	25826
822.008	25704
822.149	25571
822.289	25578
822.429	25392
822.569	25365
822.709	25274
822.849	25190
822.99	25187
823.13	25175
823.27	25088
823.41	24916
823.55	24947
823.69	24913
823.83	24924
823.97	24829
824.11	24798
824.25	24726
824.389	24829
824.529	24897
824.669	24829
824.809	24871
824.949	24909
825.089	24844
825.228	24772
825.368	24532
825.508	24661
825.648	24764
825.787	24821
825.927	24566
826.067	24681
826.206	24582
826.346	24741
826.485	24650
826.625	24601
826.765	24764
826.904	24593
827.044	24418
827.183	24391
827.323	24292
827.462	24418
827.601	24281
827.741	24334
827.88	24369
828.02	24292
828.159	24388
828.298	24350
828.437	24429
828.577	24308
828.716	24410
828.855	24228
828.994	24129
829.134	24205
829.273	24144
829.412	24163
829.551	24011
829.69	24178
829.829	24049
829.968	24079
830.107	24129
830.246	24110
830.385	23954
830.524	24163
830.663	23870
830.802	23783
830.941	23699
831.08	23570
831.219	23707
831.357	23760
831.496	23946
831.635	23771
831.774	23551
831.913	23558
832.051	23493
832.19	23383
832.329	23379
832.467	23212
832.606	23372
832.744	23311
832.883	23322
833.022	23356
833.16	23280
833.299	23345
833.437	23387
833.576	23448
833.714	23353
833.852	23379
833.991	23497
834.129	23417
834.267	23376
834.406	23379
834.544	23391
834.682	23311
834.821	23337
834.959	23516
835.097	23512
835.235	23471
835.373	23318
835.511	23368
835.65	23151
835.788	23269
835.926	23212
836.064	22995
836.202	23174
836.34	23178
836.478	23353
836.615	23037
836.753	23185
836.891	23220
837.029	23265
837.167	23056
837.305	23086
837.443	23193
837.58	23166
837.718	23124
837.856	23178
837.993	22949
838.131	23155
838.269	22999
838.406	23083
838.544	22972
838.681	22797
838.819	22717
838.956	22615
839.094	22497
839.231	22542
839.369	22637
839.506	23022
839.643	22896
839.781	22592
839.918	22497
840.055	22645
840.193	22531
840.33	22519
840.467	22618
840.604	22554
840.742	22752
840.879	22333
841.016	22386
841.153	22386
841.29	22607
841.427	22432
841.564	22656
841.701	22436
841.838	22265
841.975	22409
842.112	22405
842.249	22246
842.385	22333
842.522	22379
842.659	22261
842.796	22230
842.933	22261
843.069	22238
843.206	22181
843.343	22303
843.479	22234
843.616	22215
843.752	22002
843.889	22086
844.025	22086
844.162	21899
844.298	22196
844.435	21975
844.571	21903
844.708	22070
844.844	22226
844.98	22074
845.117	22158
845.253	22002
845.389	21918
845.525	21895
845.661	21880
845.798	21781
845.934	21800
846.07	21724
846.206	21743
846.342	21926
846.478	21789
846.614	21553
846.75	21481
846.886	21553
847.022	21614
847.158	21557
847.294	21599
847.429	21618
847.565	21416
847.701	21720
847.837	21218
847.972	21195
848.108	21264
848.244	21393
848.379	21123
848.515	21074
848.65	20982
848.786	20986
848.921	21055
849.057	21230
849.192	21222
849.328	21138
849.463	21005
849.598	21039
849.734	21001
849.869	20914
850.004	20872
850.14	20849
850.275	20758
850.41	20716
850.545	20785
850.68	20826
850.815	20853
850.95	20792
851.085	21039
851.22	20845
851.355	20883
851.49	20823
851.625	20842
851.76	20929
851.895	20785
852.03	20682
852.165	20826
852.299	20845
852.434	20811
852.569	20944
852.703	20845
852.838	20979
852.973	20921
853.107	20967
853.242	20815
853.376	20701
853.511	20571
853.645	20636
853.78	20819
853.914	20762
854.048	20590
854.183	20648
854.317	20720
854.451	20906
854.585	20682
854.72	20731
854.854	20594
854.988	20632
855.122	20667
855.256	20522
855.39	20731
855.524	20720
855.658	20602
855.792	20682
855.926	20712
856.06	20689
856.194	20800
856.327	20674
856.461	20587
856.595	20613
856.729	20762
856.862	20857
856.996	20712
857.13	20754
857.263	20830
857.397	20826
857.53	20674
857.664	20807
857.797	20826
857.931	20712
858.064	20606
858.197	20712
858.331	20648
858.464	20533
858.597	20598
858.731	20579
858.864	20644
858.997	20716
859.13	20739
859.263	20720
859.396	20826
859.529	20564
859.662	20682
859.795	20693
859.928	20606
860.061	20921
860.194	20933
860.327	20735
860.46	20606
860.592	20830
860.725	20880
860.858	20773
860.99	20632
861.123	20621
861.256	20636
861.388	20674
861.521	21306
861.653	20629
861.786	20564
861.918	20480
862.05	20492
862.183	20731
862.315	20621
862.447	20724
862.58	20621
862.712	20492
862.844	20305
862.976	20366
863.108	20476
863.24	20944
863.372	20408
863.504	20298
863.636	20446
863.768	20419
863.9	20400
864.032	20237
864.164	20336
864.296	20400
864.428	20438
864.559	20568
864.691	20480
864.823	20324
864.954	20324
865.086	20434
865.217	20400
865.349	20191
865.48	20214
865.612	20320
865.743	20385
865.875	20381
866.006	20275
866.137	20267
866.269	20309
866.4	20263
866.531	20320
866.662	20267
866.793	20233
866.924	20290
867.055	20225
867.186	20298
867.317	20301
867.448	20233
867.579	20240
867.71	20130
867.841	20130
867.972	20259
868.103	20290
868.233	20294
868.364	20168
868.495	20278
868.625	20511
868.756	20503
868.886	20332
869.017	20400
869.147	20568
869.278	20678
869.408	20533
869.539	20484
869.669	20465
869.799	20674
869.929	20674
870.06	20552
870.19	20777
870.32	20773
870.45	20830
870.58	20826
870.71	20944
870.84	21036
870.97	20986
871.1	20880
871.23	21001
871.36	21161
871.489	20948
871.619	21017
871.749	21062
871.879	21222
872.008	21176
872.138	21043
872.267	21138
872.397	20971
872.526	20887
872.656	20883
872.785	20902
872.915	21112
873.044	21173
873.173	21169
873.303	21199
873.432	21135
873.561	21176
873.69	21256
873.819	21214
873.948	21260
874.077	20937
874.206	21043
874.335	21154
874.464	21173
874.593	21336
874.722	21355
874.851	21416
874.979	21313
875.108	21431
875.237	21241
875.365	21211
875.494	21287
875.623	21294
875.751	21218
875.88	21408
876.008	21458
876.136	21538
876.265	21865
876.393	21945
876.521	21778
876.65	21797
876.778	21724
876.906	21747
877.034	21637
877.162	21709
877.29	21751
877.418	21648
877.546	21648
877.674	21663
877.802	21743
877.93	21694
878.058	21682
878.185	21625
878.313	21515
878.441	21656
878.568	21629
878.696	21671
878.824	21717
878.951	21736
879.079	21915
879.206	21949
879.333	21831
879.461	21774
879.588	21812
879.715	21895
879.842	21987
879.97	21762
880.097	21507
880.224	21496
880.351	21507
880.478	21587
880.605	21564
880.732	21447
880.859	21739
880.986	21458
881.112	21534
881.239	21443
881.366	21085
881.493	21161
881.619	21157
881.746	21169
881.872	21020
881.999	21150
882.125	21051
882.252	21085
882.378	21165
882.505	21131
882.631	21043
882.757	20876
882.883	20948
883.01	20845
883.136	20765
883.262	20602
883.388	20651
883.514	20785
883.64	20792
883.766	20754
883.892	20526
884.018	20609
884.143	20830
884.269	20792
884.395	20503
884.52	20473
884.646	20602
884.772	20377
884.897	20415
885.023	20518
885.148	20549
885.274	20571
885.399	20514
885.524	20427
885.65	20461
885.775	20518
885.9	20377
886.025	20587
886.15	20583
886.275	20465
886.4	20317
886.525	20488
886.65	20454
886.775	20389
886.9	20568
887.025	20606
887.149	20362
887.274	20233
887.399	20088
887.523	20225
887.648	20237
887.773	20130
887.897	20313
888.021	20267
888.146	20172
888.27	20438
888.395	20396
888.519	20240
888.643	20229
888.767	20237
888.891	20142
889.015	20161
889.139	20058
889.263	20077
889.387	20206
889.511	20298
889.635	20149
889.759	20001
889.883	19947
890.006	20035
890.13	20138
890.254	19852
890.377	20077
890.501	19803
890.624	19803
890.748	19898
890.871	19666
890.995	19586
891.118	19616
891.241	19643
891.364	19597
891.488	19719
891.611	19624
891.734	19639
891.857	19674
891.98	19472
892.103	19731
892.226	19540
892.349	19578
892.471	19369
892.594	19483
892.717	19548
892.839	19559
892.962	19605
893.085	19677
893.207	19506
893.33	19468
893.452	19434
893.575	19590
893.697	19590
893.819	19693
893.941	19731
894.064	19651
894.186	19430
894.308	19464
894.43	19715
894.552	19575
894.674	19586
894.796	19369
894.918	19533
895.04	19491
895.161	19559
895.283	19582
895.405	19438
895.526	19502
895.648	19491
895.769	19487
895.891	19430
896.012	19601
896.134	19556
896.255	19609
896.376	19460
896.498	19693
896.619	19540
896.74	19628
896.861	19624
896.982	19826
897.103	19913
897.224	19753
897.345	19753
897.466	19685
897.587	19666
897.708	19875
897.828	19811
897.949	19731
898.07	19681
898.19	19746
898.311	19852
898.431	19734
898.552	19799
898.672	19791
898.792	19871
898.913	19704
899.033	19544
899.153	19521
899.273	19491
899.393	19537
899.513	19655
899.633	19559
899.753	19601
899.873	19556
899.993	19571
900.113	19411
900.232	19590
900.352	19518
900.472	19396
900.591	19308
900.711	19403
900.83	19411
900.95	19400
901.069	19457
901.189	19247
901.308	18996
901.427	18970
901.546	18932
901.665	19034
901.784	18920
901.904	18825
902.023	18658
902.141	18475
902.26	18521
902.379	18589
902.498	18407
902.617	18380
902.735	18414
902.854	18399
902.973	18308
903.091	18178
903.21	18110
903.328	18171
903.446	17973
903.565	17988
903.683	17980
903.801	17870
903.919	17908
904.038	17878
904.156	17695
904.274	17790
904.392	17756
904.51	17676
904.627	17737
904.745	17824
904.863	17699
904.981	17425
905.098	17455
905.216	17341
905.334	17444
905.451	17337
905.569	17330
905.686	17417
905.803	17410
905.921	17200
906.038	17379
906.155	17159
906.272	17113
906.389	17105
906.506	16881
906.623	16946
906.74	16824
906.857	16915
906.974	16915
907.091	17041
907.208	16972
907.324	16854
907.441	16797
907.557	16797
907.674	16603
907.79	16687
907.907	16656
908.023	16672
908.139	16675
908.256	16592
908.372	16615
908.488	16466
908.604	16398
908.72	16440
908.836	16402
908.952	16253
909.068	16348
909.184	16512
909.3	16402
909.415	16337
909.531	16246
909.647	16139
909.762	16112
909.878	16040
909.993	16090
910.108	16063
910.224	15918
910.339	16010
910.454	15903
910.57	16013
910.685	15854
910.8	16097
910.915	15987
911.03	15854
911.145	15751
911.259	15633
911.374	15656
911.489	15618
911.604	15526
911.718	15500
911.833	15439
911.947	15351
912.062	15256
912.176	15428
912.291	15431
912.405	15485
912.519	15545
912.633	15538
912.748	15462
912.862	15348
912.976	15275
913.09	15173
913.204	15272
913.318	15355
913.431	15245
913.545	15195
913.659	15351
913.772	15077
913.886	15074
914	15066
914.113	15123
914.226	15112
914.34	15009
914.453	14914
914.566	15150
914.68	14975
914.793	14937
914.906	14807
915.019	14693
915.132	14602
915.245	14731
915.358	14705
915.47	14689
915.583	14708
915.696	14606
915.809	14689
915.921	14792
916.034	14617
916.146	14602
916.259	14678
916.371	14587
916.483	14552
916.595	14492
916.708	14560
916.82	14545
916.932	14469
917.044	14415
917.156	14408
917.268	14347
917.38	14366
917.491	14305
917.603	14366
917.715	14286
917.826	14438
917.938	14309
918.049	14256
918.161	14240
918.272	14446
918.384	14328
918.495	14256
918.606	14153
918.717	13986
918.828	14138
918.939	14157
919.05	13963
919.161	14107
919.272	13967
919.383	13963
919.494	14115
919.604	14263
919.715	14195
919.826	14024
919.936	14081
920.047	14115
920.157	14058
920.267	14324
920.378	14081
920.488	14062
920.598	14301
920.708	14427
920.818	14244
920.928	14225
921.038	14336
921.148	14339
921.258	14039
921.368	13932
921.477	13780
921.587	13807
921.697	13731
921.806	13894
921.916	13700
922.025	13559
922.134	13457
922.244	13449
922.353	13544
922.462	13403
922.571	13270
922.68	13232
922.789	13050
922.898	13046
923.007	13091
923.116	13122
923.224	13118
923.333	13050
923.442	13031
923.55	12886
923.659	12989
923.767	13008
923.876	12943
923.984	13053
924.092	12814
924.201	12897
924.309	12848
924.417	12901
924.525	12875
924.633	12791
924.741	13742
924.849	12559
924.956	12677
925.064	12593
925.172	12448
925.279	12616
925.387	12597
925.494	12540
925.602	12696
925.709	12639
925.816	12528
925.924	12551
926.031	12597
926.138	12475
926.245	12540
926.352	12414
926.459	12589
926.566	12612
926.673	12464
926.779	12376
926.886	12433
926.993	12175
927.099	12175
927.206	12087
927.312	12136
927.419	12175
927.525	12159
927.631	12148
927.737	12034
927.843	12011
927.95	11916
928.056	11916
928.162	11923
928.267	12041
928.373	12692
928.479	12133
928.585	11813
928.69	11969
928.796	11939
928.901	11851
929.007	11619
929.112	11847
929.218	11882
929.323	11790
929.428	11729
929.533	11885
929.638	11676
929.743	11748
929.848	11748
929.953	11748
930.058	11497
930.163	11421
930.267	11471
930.372	11535
930.477	11376
930.581	11596
930.685	11452
930.79	11311
930.894	11364
930.998	11269
931.103	11429
931.207	10968
931.311	11045
931.415	10904
931.519	10733
931.623	10630
