Data from test_V78500241_1341.txt Node
Date: Fri Mar 25 15:51:05 CST 2022
User: usil
Spectrometer: V785-0024
Trigger mode: 0
Integration Time (sec): 4.000000E-1
Scans to average: 1
Nonlinearity correction enabled: false
Boxcar width: 0
Storing dark spectrum: false
XAxis mode: Wavelengths
Number of Pixels in Spectrum: 1024
>>>>>Begin Spectral Data<<<<<
801.071	28158
801.214	27937
801.356	27987
801.499	27865
801.641	27641
801.783	27717
801.926	27671
802.068	27762
802.211	27614
802.353	27496
802.496	27332
802.638	27431
802.78	27332
802.923	27310
803.065	27306
803.208	27332
803.35	27306
803.492	27511
803.635	27500
803.777	27439
803.919	27447
804.061	27968
804.204	27530
804.346	27553
804.488	27447
804.63	27580
804.773	27283
804.915	27542
805.057	27747
805.199	27519
805.341	27481
805.483	27785
805.626	27713
805.768	27580
805.91	27705
806.052	27842
806.194	27663
806.336	27838
806.478	27789
806.62	27720
806.762	27907
806.904	27895
807.046	28185
807.188	28158
807.33	28185
807.472	28287
807.614	28158
807.756	28158
807.898	28010
808.04	27998
808.182	27911
808.324	27968
808.465	28032
808.607	28101
808.749	28375
808.891	28382
809.033	28379
809.174	28360
809.316	28276
809.458	28143
809.6	28242
809.741	28577
809.883	28451
810.025	28748
810.166	28653
810.308	28660
810.45	28531
810.591	28569
810.733	28405
810.875	28341
811.016	28185
811.158	28280
811.299	28428
811.441	28428
811.582	28660
811.724	28310
811.865	28322
812.007	28272
812.148	28226
812.29	28295
812.431	28481
812.573	28630
812.714	28607
812.855	28908
812.997	28995
813.138	29113
813.279	28991
813.421	28740
813.562	28908
813.703	28588
813.845	28577
813.986	28284
814.127	28226
814.268	28143
814.41	28059
814.551	27934
814.692	28135
814.833	27994
814.974	28051
815.115	28128
815.256	27911
815.397	27899
815.539	27899
815.68	27812
815.821	27892
815.962	28010
816.103	27774
816.244	27759
816.385	27652
816.526	27473
816.666	27389
816.807	27237
816.948	27485
817.089	27420
817.23	27340
817.371	27405
817.512	27348
817.653	27374
817.793	27169
817.934	27218
818.075	27291
818.216	27420
818.356	27336
818.497	27188
818.638	27085
818.778	27028
818.919	27085
819.06	27173
819.2	27245
819.341	27214
819.481	27447
819.622	27542
819.762	27698
819.903	27481
820.043	27469
820.184	27420
820.324	27329
820.465	27454
820.605	27496
820.746	27534
820.886	27256
821.026	27481
821.167	27458
821.307	27450
821.447	27283
821.588	27340
821.728	27169
821.868	26910
822.008	26853
822.149	26861
822.289	26777
822.429	26434
822.569	26545
822.709	26499
822.849	26408
822.99	26374
823.13	26434
823.27	26282
823.41	26122
823.55	26084
823.69	26100
823.83	26145
823.97	26073
824.11	25944
824.25	25909
824.389	26016
824.529	25986
824.669	26005
824.809	26084
824.949	26149
825.089	26039
825.228	25982
825.368	25750
825.508	25852
825.648	25689
825.787	26024
825.927	25970
826.067	25898
826.206	25734
826.346	25944
826.485	25894
826.625	25753
826.765	25966
826.904	25856
827.044	25620
827.183	25597
827.323	25514
827.462	25563
827.601	25544
827.741	25419
827.88	25731
828.02	25472
828.159	25419
828.298	25628
828.437	25620
828.577	25499
828.716	25704
828.855	25525
828.994	25217
829.134	25316
829.273	25312
829.412	25255
829.551	25145
829.69	25304
829.829	25232
829.968	25403
830.107	25312
830.246	25251
830.385	25141
830.524	25175
830.663	25194
830.802	25004
830.941	24810
831.08	24779
831.219	24817
831.357	24867
831.496	25000
831.635	24947
831.774	24802
831.913	24772
832.051	24719
832.19	24654
832.329	24715
832.467	24540
832.606	24540
832.744	24517
832.883	24578
833.022	24555
833.16	24620
833.299	24544
833.437	24471
833.576	24566
833.714	24563
833.852	24547
833.991	24635
834.129	24658
834.267	24593
834.406	24585
834.544	24696
834.682	24513
834.821	24551
834.959	24757
835.097	24563
835.235	24566
835.373	24578
835.511	24578
835.65	24490
835.788	24395
835.926	24372
836.064	24270
836.202	24220
836.34	24365
836.478	24494
836.615	24513
836.753	24422
836.891	24612
837.029	24475
837.167	24308
837.305	24262
837.443	24114
837.58	24251
837.718	24213
837.856	24247
837.993	24292
838.131	24311
838.269	24148
838.406	24190
838.544	23969
838.681	23893
838.819	23847
838.956	23756
839.094	23695
839.231	23809
839.369	23870
839.506	23999
839.643	24015
839.781	23718
839.918	23695
840.055	23817
840.193	23790
840.33	23539
840.467	23649
840.604	23699
840.742	23931
840.879	23531
841.016	23551
841.153	23558
841.29	23695
841.427	23535
841.564	23611
841.701	23653
841.838	23547
841.975	23493
842.112	23608
842.249	23547
842.385	23429
842.522	23627
842.659	23478
842.796	23353
842.933	23315
843.069	23254
843.206	23353
843.343	23368
843.479	23387
843.616	23284
843.752	23223
843.889	23204
844.025	23299
844.162	23121
844.298	23334
844.435	23197
844.571	23098
844.708	23200
844.844	23273
844.98	23242
845.117	23322
845.253	23223
845.389	23033
845.525	23071
845.661	23022
845.798	22995
845.934	22934
846.07	22900
846.206	22999
846.342	22972
846.478	22900
846.614	22744
846.75	22531
846.886	22569
847.022	22592
847.158	22626
847.294	22729
847.429	22542
847.565	22675
847.701	22828
847.837	22329
847.972	22246
848.108	22451
848.244	22356
848.379	22196
848.515	22234
848.65	22109
848.786	22337
848.921	22223
849.057	22196
849.192	22287
849.328	22322
849.463	22158
849.598	22093
849.734	22196
849.869	22067
850.004	21934
850.14	22021
850.275	21991
850.41	21892
850.545	21964
850.68	21979
850.815	21888
850.95	21930
851.085	22147
851.22	22051
851.355	21956
851.49	21915
851.625	21998
851.76	21907
851.895	21819
852.03	21827
852.165	21991
852.299	22070
852.434	21991
852.569	22010
852.703	21953
852.838	22017
852.973	22070
853.107	22120
853.242	21930
853.376	21762
853.511	21637
853.645	21774
853.78	21964
853.914	21915
854.048	21728
854.183	21831
854.317	21831
854.451	21949
854.585	21808
854.72	21759
854.854	21926
854.988	21804
855.122	21762
855.256	21663
855.39	21774
855.524	21819
855.658	21778
855.792	21895
855.926	21800
856.06	21873
856.194	21880
856.327	21789
856.461	21781
856.595	21812
856.729	21724
856.862	21838
856.996	21759
857.13	21759
857.263	21994
857.397	21915
857.53	21671
857.664	21880
857.797	21953
857.931	21892
858.064	21747
858.197	21831
858.331	21793
858.464	21793
858.597	21618
858.731	21717
858.864	21793
858.997	21694
859.13	21766
859.263	21823
859.396	21835
859.529	21762
859.662	21747
859.795	21720
859.928	21797
860.061	21945
860.194	21941
860.327	21652
860.46	21793
860.592	21857
860.725	21880
860.858	21880
860.99	21926
861.123	21762
861.256	21701
861.388	21713
861.521	22512
861.653	21774
861.786	21488
861.918	21686
862.05	21549
862.183	21778
862.315	21720
862.447	21804
862.58	21869
862.712	21408
862.844	21428
862.976	21389
863.108	21580
863.24	21930
863.372	21386
863.504	21568
863.636	21606
863.768	21450
863.9	21477
864.032	21420
864.164	21386
864.296	21473
864.428	21572
864.559	21587
864.691	21576
864.823	21507
864.954	21496
865.086	21405
865.217	21401
865.349	21332
865.48	21359
865.612	21401
865.743	21606
865.875	21420
866.006	21310
866.137	21332
866.269	21389
866.4	21382
866.531	21325
866.662	21241
866.793	21321
866.924	21291
867.055	21306
867.186	21302
867.317	21313
867.448	21146
867.579	21203
867.71	21230
867.841	21150
867.972	21355
868.103	21199
868.233	21294
868.364	21317
868.495	21431
868.625	21549
868.756	21732
868.886	21587
869.017	21538
869.147	21610
869.278	21633
869.408	21648
869.539	21458
869.669	21675
869.799	21587
869.929	21682
870.06	21690
870.19	21865
870.32	21831
870.45	21838
870.58	21903
870.71	22029
870.84	21998
870.97	22025
871.1	22002
871.23	22192
871.36	22162
871.489	22097
871.619	22044
871.749	22086
871.879	22192
872.008	22234
872.138	22109
872.267	22082
872.397	21960
872.526	21979
872.656	21907
872.785	21998
872.915	22192
873.044	22219
873.173	22181
873.303	22044
873.432	22398
873.561	22382
873.69	22143
873.819	22116
873.948	22261
874.077	22147
874.206	22173
874.335	22162
874.464	22211
874.593	22318
874.722	22371
874.851	22344
874.979	22497
875.108	22561
875.237	22451
875.365	22287
875.494	22329
875.623	22447
875.751	22394
875.88	22451
876.008	22519
876.136	22500
876.265	22717
876.393	22953
876.521	22733
876.65	22877
876.778	22713
876.906	22683
877.034	22672
877.162	22733
877.29	22637
877.418	22736
877.546	22877
877.674	22702
877.802	22713
877.93	22725
878.058	22748
878.185	22554
878.313	22683
878.441	22649
878.568	22546
878.696	22687
878.824	22812
878.951	22710
879.079	22896
879.206	23048
879.333	22801
879.461	22828
879.588	22892
879.715	22889
879.842	22915
879.97	22790
880.097	22694
880.224	22489
880.351	22702
880.478	22508
880.605	22409
880.732	22489
880.859	22866
880.986	22527
881.112	22485
881.239	22436
881.366	22371
881.493	22242
881.619	22143
881.746	22166
881.872	22105
881.999	21941
882.125	21911
882.252	22265
882.378	22010
882.505	22086
882.631	21911
882.757	22048
882.883	21861
883.01	21823
883.136	21633
883.262	21717
883.388	21705
883.514	21838
883.64	21876
883.766	21682
883.892	21564
884.018	21625
884.143	21785
884.269	21747
884.395	21557
884.52	21386
884.646	21473
884.772	21610
884.897	21374
885.023	21397
885.148	21629
885.274	21618
885.399	21393
885.524	21374
885.65	21378
885.775	21458
885.9	21492
886.025	21481
886.15	21523
886.275	21462
886.4	21329
886.525	21408
886.65	21332
886.775	21393
886.9	21511
887.025	21603
887.149	21439
887.274	21332
887.399	21416
887.523	21325
887.648	21131
887.773	21252
887.897	21256
888.021	21203
888.146	21100
888.27	21355
888.395	21405
888.519	21218
888.643	21211
888.767	21317
888.891	21047
889.015	20990
889.139	21119
889.263	21024
889.387	21108
889.511	21256
889.635	21081
889.759	21062
889.883	20937
890.006	20880
890.13	21123
890.254	20929
890.377	21020
890.501	20788
890.624	20739
890.748	20849
890.871	20632
890.995	20606
891.118	20404
891.241	20499
891.364	20590
891.488	20807
891.611	20488
891.734	20526
891.857	20678
891.98	20514
892.103	20579
892.226	20560
892.349	20484
892.471	20328
892.594	20583
892.717	20484
892.839	20434
892.962	20385
893.085	20511
893.207	20602
893.33	20393
893.452	20438
893.575	20431
893.697	20408
893.819	20564
893.941	20579
894.064	20556
894.186	20442
894.308	20328
894.43	20541
894.552	20480
894.674	20560
894.796	20320
894.918	20358
895.04	20446
895.161	20507
895.283	20465
895.405	20507
895.526	20545
895.648	20381
895.769	20518
895.891	20518
896.012	20560
896.134	20488
896.255	20469
896.376	20495
896.498	20522
896.619	20556
896.74	20549
896.861	20488
896.982	20754
897.103	20849
897.224	20853
897.345	20689
897.466	20564
897.587	20670
897.708	20853
897.828	20731
897.949	20708
898.07	20545
898.19	20625
898.311	20811
898.431	20701
898.552	20663
898.672	20655
898.792	20796
898.913	20754
899.033	20552
899.153	20492
899.273	20450
899.393	20377
899.513	20495
899.633	20450
899.753	20446
899.873	20370
899.993	20503
900.113	20317
900.232	20385
900.352	20438
900.472	20320
900.591	20180
900.711	20218
900.83	20183
900.95	20267
901.069	20301
901.189	20153
901.308	19936
901.427	19731
901.546	19708
901.665	19826
901.784	19826
901.904	19647
902.023	19605
902.141	19331
902.26	19282
902.379	19365
902.498	19320
902.617	19236
902.735	19373
902.854	19282
902.973	19194
903.091	19053
903.21	18890
903.328	19065
903.446	18882
903.565	18734
903.683	18703
903.801	18597
903.919	18639
904.038	18669
904.156	18437
904.274	18627
904.392	18540
904.51	18471
904.627	18570
904.745	18604
904.863	18578
904.981	18365
905.098	18308
905.216	18148
905.334	18194
905.451	18114
905.569	18224
905.686	18201
905.803	18209
905.921	17882
906.038	18034
906.155	17980
906.272	17927
906.389	17954
906.506	17767
906.623	17767
906.74	17760
906.857	17592
906.974	17764
907.091	17771
907.208	17794
907.324	17691
907.441	17764
907.557	17516
907.674	17444
907.79	17425
907.907	17277
908.023	17478
908.139	17543
908.256	17277
908.372	17315
908.488	17311
908.604	17235
908.72	17124
908.836	17143
908.952	17212
909.068	17239
909.184	17303
909.3	17098
909.415	17227
909.531	17094
909.647	16873
909.762	16869
909.878	16790
909.993	16797
910.108	16820
910.224	16755
910.339	16896
910.454	16691
910.57	16664
910.685	16546
910.8	16866
910.915	16763
911.03	16698
911.145	16443
911.259	16432
911.374	16409
911.489	16325
911.604	16390
911.718	16139
911.833	16280
911.947	16162
912.062	16158
912.176	16173
912.291	16204
912.405	16131
912.519	16299
912.633	16325
912.748	16268
912.862	16116
912.976	16071
913.09	15934
913.204	15960
913.318	15975
913.431	16131
913.545	16051
913.659	16025
913.772	15827
913.886	15717
914	15857
914.113	15918
914.226	15876
914.34	15880
914.453	15694
914.566	15793
914.68	15690
914.793	15568
914.906	15568
915.019	15443
915.132	15302
915.245	15393
915.358	15340
915.47	15412
915.583	15367
915.696	15393
915.809	15450
915.921	15511
916.034	15317
916.146	15279
916.259	15302
916.371	15397
916.483	15336
916.595	15173
916.708	15245
916.82	15199
916.932	15226
917.044	15074
917.156	15169
917.268	14990
917.38	15089
917.491	15024
917.603	15116
917.715	15032
917.826	15058
917.938	14979
918.049	14857
918.161	15036
918.272	15093
918.384	15089
918.495	14906
918.606	14811
918.717	14724
918.828	14838
918.939	14792
919.05	14781
919.161	14792
919.272	14457
919.383	14598
919.494	14785
919.604	14933
919.715	14849
919.826	14625
919.936	14731
920.047	14792
920.157	14807
920.267	14918
920.378	14758
920.488	14735
920.598	14956
920.708	14952
920.818	14788
920.928	14906
921.038	15093
921.148	14918
921.258	14727
921.368	14613
921.477	14530
921.587	14469
921.697	14271
921.806	14507
921.916	14427
922.025	14111
922.134	14168
922.244	14054
922.353	14149
922.462	14054
922.571	13871
922.68	13731
922.789	13769
922.898	13791
923.007	13734
923.116	13753
923.224	13769
923.333	13704
923.442	13567
923.55	13658
923.659	13632
923.767	13613
923.876	13537
923.984	13594
924.092	13491
924.201	13586
924.309	13468
924.417	13438
924.525	13506
924.633	13339
924.741	14263
924.849	13103
924.956	13331
925.064	13194
925.172	13031
925.279	13190
925.387	13171
925.494	13137
925.602	13327
925.709	13240
925.816	13107
925.924	13053
926.031	13217
926.138	13129
926.245	13114
926.352	13023
926.459	13129
926.566	13080
926.673	13008
926.779	12905
926.886	12951
926.993	12859
927.099	12795
927.206	12681
927.312	12642
927.419	12760
927.525	12639
927.631	12753
927.737	12719
927.843	12589
927.95	12464
928.056	12566
928.162	12536
928.267	12570
928.373	13270
928.479	12635
928.585	12429
928.69	12460
928.796	12532
928.901	12388
929.007	12235
929.112	12418
929.218	12407
929.323	12220
929.428	12270
929.533	12357
929.638	12201
929.743	12254
929.848	12205
929.953	12194
930.058	12053
930.163	11920
930.267	11893
930.372	11984
930.477	11931
930.581	12098
930.685	12019
930.79	11885
930.894	11904
930.998	11729
931.103	11927
931.207	11512
931.311	11425
931.415	11433
931.519	11280
931.623	11143
