Data from test_V78500241_2998.txt Node
Date: Fri Mar 25 16:02:34 CST 2022
User: usil
Spectrometer: V785-0024
Trigger mode: 0
Integration Time (sec): 4.000000E-1
Scans to average: 1
Nonlinearity correction enabled: false
Boxcar width: 0
Storing dark spectrum: false
XAxis mode: Wavelengths
Number of Pixels in Spectrum: 1024
>>>>>Begin Spectral Data<<<<<
801.071	28873
801.214	28763
801.356	28561
801.499	28611
801.641	28481
801.783	28447
801.926	28474
802.068	28360
802.211	28417
802.353	28234
802.496	28147
802.638	28200
802.78	27994
802.923	28150
803.065	27934
803.208	28093
803.35	28131
803.492	28360
803.635	28261
803.777	28177
803.919	28443
804.061	28645
804.204	28478
804.346	28333
804.488	28268
804.63	28379
804.773	28455
804.915	28367
805.057	28584
805.199	28344
805.341	28489
805.483	28523
805.626	28470
805.768	28394
805.91	28424
806.052	28713
806.194	28386
806.336	28736
806.478	28565
806.62	28588
806.762	28694
806.904	28904
807.046	28980
807.188	28984
807.33	28820
807.472	29109
807.614	28957
807.756	28980
807.898	28904
808.04	28736
808.182	28881
808.324	28786
808.465	28904
808.607	29067
808.749	29204
808.891	29341
809.033	29375
809.174	29284
809.316	29193
809.458	29277
809.6	29105
809.741	29421
809.883	29330
810.025	29547
810.166	29649
810.308	29570
810.45	29501
810.591	29444
810.733	29227
810.875	29250
811.016	29121
811.158	29044
811.299	29337
811.441	29353
811.582	29364
811.724	29227
811.865	29204
812.007	29170
812.148	29231
812.29	29372
812.431	29410
812.573	29535
812.714	29668
812.855	29866
812.997	29901
813.138	29931
813.279	29882
813.421	29680
813.562	29817
813.703	29570
813.845	29611
813.986	29216
814.127	29067
814.268	28942
814.41	28892
814.551	28938
814.692	29052
814.833	28961
814.974	28869
815.115	28953
815.256	28885
815.397	28866
815.539	28843
815.68	28805
815.821	28793
815.962	28782
816.103	28809
816.244	28618
816.385	28656
816.526	28649
816.666	28375
816.807	28261
816.948	28234
817.089	28447
817.23	28367
817.371	28265
817.512	28284
817.653	28242
817.793	28162
817.934	28253
818.075	28459
818.216	28257
818.356	28257
818.497	28173
818.638	28017
818.778	28143
818.919	28059
819.06	28105
819.2	28124
819.341	28223
819.481	28379
819.622	28462
819.762	28626
819.903	28504
820.043	28565
820.184	28466
820.324	28379
820.465	28546
820.605	28401
820.746	28352
820.886	28363
821.026	28287
821.167	28428
821.307	28523
821.447	28325
821.588	28375
821.728	28139
821.868	27964
822.008	27850
822.149	27785
822.289	27759
822.429	27564
822.569	27481
822.709	27408
822.849	27348
822.99	27306
823.13	27310
823.27	27203
823.41	27279
823.55	27104
823.69	27154
823.83	27066
823.97	27062
824.11	26845
824.25	26845
824.389	26883
824.529	27119
824.669	26914
824.809	27039
824.949	27043
825.089	27074
825.228	26986
825.368	26758
825.508	26842
825.648	26830
825.787	26853
825.927	26906
826.067	26826
826.206	26815
826.346	26910
826.485	26872
826.625	26796
826.765	26834
826.904	26960
827.044	26598
827.183	26621
827.323	26533
827.462	26609
827.601	26583
827.741	26594
827.88	26526
828.02	26507
828.159	26655
828.298	26552
828.437	26606
828.577	26484
828.716	26640
828.855	26537
828.994	26370
829.134	26237
829.273	26252
829.412	26225
829.551	26157
829.69	26210
829.829	26149
829.968	26252
830.107	26252
830.246	26259
830.385	26149
830.524	26153
830.663	25966
830.802	25982
830.941	25940
831.08	25803
831.219	25955
831.357	25864
831.496	26046
831.635	25830
831.774	25738
831.913	25632
832.051	25750
832.19	25635
832.329	25719
832.467	25529
832.606	25453
832.744	25464
832.883	25403
833.022	25365
833.16	25240
833.299	25575
833.437	25578
833.576	25567
833.714	25537
833.852	25632
833.991	25651
834.129	25597
834.267	25651
834.406	25620
834.544	25616
834.682	25571
834.821	25426
834.959	25837
835.097	25438
835.235	25582
835.373	25651
835.511	25548
835.65	25476
835.788	25419
835.926	25369
836.064	25217
836.202	25247
836.34	25479
836.478	25533
836.615	25358
836.753	25255
836.891	25518
837.029	25510
837.167	25358
837.305	25289
837.443	25362
837.58	25266
837.718	25324
837.856	25232
837.993	25164
838.131	25263
838.269	25190
838.406	25129
838.544	25061
838.681	24958
838.819	24901
838.956	24726
839.094	24635
839.231	24688
839.369	24798
839.506	25053
839.643	24875
839.781	24654
839.918	24601
840.055	24711
840.193	24703
840.33	24669
840.467	24631
840.604	24559
840.742	24852
840.879	24544
841.016	24669
841.153	24433
841.29	24646
841.427	24570
841.564	24582
841.701	24612
841.838	24612
841.975	24414
842.112	24509
842.249	24448
842.385	24361
842.522	24612
842.659	24486
842.796	24296
842.933	24357
843.069	24277
843.206	24327
843.343	24334
843.479	24300
843.616	24178
843.752	24167
843.889	24110
844.025	24220
844.162	24152
844.298	24136
844.435	23965
844.571	24152
844.708	24121
844.844	24391
844.98	24338
845.117	24144
845.253	24041
845.389	24018
845.525	24022
845.661	23897
845.798	23821
845.934	23973
846.07	23920
846.206	23824
846.342	23866
846.478	23847
846.614	23745
846.75	23372
846.886	23661
847.022	23805
847.158	23646
847.294	23600
847.429	23558
847.565	23501
847.701	23809
847.837	23395
847.972	23204
848.108	23425
848.244	23345
848.379	23299
848.515	23064
848.65	23033
848.786	23311
848.921	23189
849.057	23200
849.192	23220
849.328	23200
849.463	23197
849.598	23140
849.734	22991
849.869	23071
850.004	22968
850.14	22953
850.275	22866
850.41	22934
850.545	22778
850.68	23041
850.815	22889
850.95	22934
851.085	23010
851.22	23083
851.355	22968
851.49	22946
851.625	22881
851.76	22968
851.895	22698
852.03	22968
852.165	23033
852.299	23014
852.434	23098
852.569	22972
852.703	22896
852.838	22991
852.973	23029
853.107	23102
853.242	22915
853.376	22820
853.511	22641
853.645	22752
853.78	22774
853.914	22618
854.048	22748
854.183	22805
854.317	22710
854.451	22984
854.585	22793
854.72	22820
854.854	22831
854.988	22763
855.122	22733
855.256	22687
855.39	22702
855.524	22786
855.658	22877
855.792	22771
855.926	22805
856.06	22862
856.194	22748
856.327	22702
856.461	22752
856.595	22774
856.729	22713
856.862	22889
856.996	22889
857.13	22755
857.263	22793
857.397	22740
857.53	22755
857.664	22691
857.797	22923
857.931	22816
858.064	22923
858.197	22854
858.331	22843
858.464	22771
858.597	22668
858.731	22717
858.864	22717
858.997	22881
859.13	22816
859.263	22744
859.396	22744
859.529	22820
859.662	22691
859.795	22733
859.928	22831
860.061	22805
860.194	22949
860.327	22831
860.46	22698
860.592	22927
860.725	22942
860.858	22927
860.99	22900
861.123	22774
861.256	22748
861.388	22755
861.521	23505
861.653	22630
861.786	22546
861.918	22569
862.05	22615
862.183	22660
862.315	22653
862.447	22820
862.58	22664
862.712	22459
862.844	22478
862.976	22538
863.108	22565
863.24	22968
863.372	22535
863.504	22550
863.636	22493
863.768	22569
863.9	22508
864.032	22405
864.164	22527
864.296	22428
864.428	22592
864.559	22596
864.691	22535
864.823	22546
864.954	22451
865.086	22428
865.217	22386
865.349	22337
865.48	22253
865.612	22314
865.743	22557
865.875	22280
866.006	22284
866.137	22375
866.269	22147
866.4	22211
866.531	22272
866.662	22291
866.793	22261
866.924	22215
867.055	22303
867.186	22230
867.317	22329
867.448	22253
867.579	22169
867.71	22051
867.841	22219
867.972	22325
868.103	22154
868.233	22363
868.364	22348
868.495	22276
868.625	22432
868.756	22615
868.886	22447
869.017	22538
869.147	22519
869.278	22508
869.408	22508
869.539	22565
869.669	22615
869.799	22577
869.929	22672
870.06	22512
870.19	22862
870.32	22850
870.45	22953
870.58	22862
870.71	23022
870.84	23075
870.97	22972
871.1	22869
871.23	23105
871.36	23140
871.489	22999
871.619	23037
871.749	23170
871.879	23071
872.008	23242
872.138	23105
872.267	23071
872.397	23014
872.526	22942
872.656	22854
872.785	22938
872.915	23151
873.044	23231
873.173	23124
873.303	23136
873.432	23220
873.561	23239
873.69	23136
873.819	23014
873.948	23204
874.077	23090
874.206	23200
874.335	23132
874.464	23162
874.593	23246
874.722	23330
874.851	23444
874.979	23452
875.108	23265
875.237	23265
875.365	23220
875.494	23334
875.623	23440
875.751	23258
875.88	23364
876.008	23459
876.136	23520
876.265	23733
876.393	23988
876.521	23790
876.65	23813
876.778	23775
876.906	23623
877.034	23752
877.162	23642
877.29	23703
877.418	23760
877.546	23767
877.674	23520
877.802	23665
877.93	23661
878.058	23619
878.185	23608
878.313	23687
878.441	23608
878.568	23448
878.696	23687
878.824	23729
878.951	23832
879.079	23821
879.206	23984
879.333	23874
879.461	23733
879.588	23714
879.715	23843
879.842	23992
879.97	23733
880.097	23452
880.224	23596
880.351	23535
880.478	23505
880.605	23505
880.732	23497
880.859	23859
880.986	23665
881.112	23551
881.239	23349
881.366	23258
881.493	23212
881.619	23037
881.746	23212
881.872	23227
881.999	23064
882.125	23075
882.252	23140
882.378	22946
882.505	23071
882.631	22843
882.757	22896
882.883	22763
883.01	22748
883.136	22653
883.262	22626
883.388	22531
883.514	22736
883.64	22630
883.766	22668
883.892	22519
884.018	22588
884.143	22569
884.269	22755
884.395	22474
884.52	22325
884.646	22341
884.772	22318
884.897	22173
885.023	22451
885.148	22405
885.274	22569
885.399	22478
885.524	22424
885.65	22451
885.775	22371
885.9	22230
886.025	22436
886.15	22329
886.275	22284
886.4	22299
886.525	22440
886.65	22352
886.775	22284
886.9	22459
887.025	22470
887.149	22386
887.274	22154
887.399	22074
887.523	22150
887.648	22128
887.773	21998
887.897	22211
888.021	22234
888.146	22070
888.27	22166
888.395	22150
888.519	22109
888.643	22219
888.767	22124
888.891	22055
889.015	21922
889.139	22010
889.263	21911
889.387	21991
889.511	22067
889.635	22086
889.759	21816
889.883	21804
890.006	22025
890.13	22017
890.254	21846
890.377	21888
890.501	21580
890.624	21637
890.748	21515
890.871	21542
890.995	21485
891.118	21469
891.241	21553
891.364	21500
891.488	21511
891.611	21428
891.734	21443
891.857	21431
891.98	21431
892.103	21477
892.226	21428
892.349	21443
892.471	21306
892.594	21348
892.717	21408
892.839	21439
892.962	21382
893.085	21477
893.207	21233
893.33	21306
893.452	21207
893.575	21252
893.697	21245
893.819	21572
893.941	21603
894.064	21561
894.186	21370
894.308	21203
894.43	21431
894.552	21424
894.674	21397
894.796	21207
894.918	21279
895.04	21256
895.161	21294
895.283	21317
895.405	21192
895.526	21340
895.648	21329
895.769	21355
895.891	21355
896.012	21405
896.134	21431
896.255	21241
896.376	21272
896.498	21211
896.619	21332
896.74	21180
896.861	21466
896.982	21576
897.103	21854
897.224	21545
897.345	21515
897.466	21466
897.587	21401
897.708	21564
897.828	21606
897.949	21454
898.07	21260
898.19	21416
898.311	21511
898.431	21435
898.552	21564
898.672	21538
898.792	21587
898.913	21462
899.033	21424
899.153	21313
899.273	21222
899.393	21249
899.513	21325
899.633	21173
899.753	21287
899.873	21116
899.993	21382
900.113	21108
900.232	21245
900.352	21211
900.472	21184
900.591	20941
900.711	20963
900.83	20925
900.95	21036
901.069	21039
901.189	20918
901.308	20651
901.427	20339
901.546	20564
901.665	20670
901.784	20533
901.904	20419
902.023	20305
902.141	20164
902.26	20130
902.379	20100
902.498	20046
902.617	20024
902.735	20035
902.854	20073
902.973	19986
903.091	19765
903.21	19822
903.328	19795
903.446	19620
903.565	19468
903.683	19426
903.801	19529
903.919	19480
904.038	19438
904.156	19274
904.274	19407
904.392	19217
904.51	19206
904.627	19190
904.745	19327
904.863	19411
904.981	19080
905.098	18996
905.216	18905
905.334	19050
905.451	18935
905.569	18825
905.686	18924
905.803	18848
905.921	18722
906.038	18787
906.155	18665
906.272	18616
906.389	18608
906.506	18475
906.623	18384
906.74	18498
906.857	18357
906.974	18384
907.091	18498
907.208	18627
907.324	18509
907.441	18369
907.557	18098
907.674	18125
907.79	18144
907.907	18057
908.023	18205
908.139	18186
908.256	18072
908.372	18041
908.488	18098
908.604	17904
908.72	17809
908.836	17923
908.952	17836
909.068	17889
909.184	17958
909.3	17920
909.415	17992
909.531	17866
909.647	17497
909.762	17535
909.878	17493
909.993	17615
910.108	17581
910.224	17478
910.339	17532
910.454	17364
910.57	17379
910.685	17250
910.8	17501
910.915	17581
911.03	17292
911.145	17147
911.259	17166
911.374	17155
911.489	17060
911.604	17022
911.718	16873
911.833	16949
911.947	16729
912.062	16592
912.176	16930
912.291	16816
912.405	16824
912.519	17022
912.633	17124
912.748	16877
912.862	16816
912.976	16675
913.09	16675
913.204	16645
913.318	16687
913.431	16748
913.545	16733
913.659	16748
913.772	16740
913.886	16497
914	16440
914.113	16565
914.226	16588
914.34	16558
914.453	16295
914.566	16402
914.68	16363
914.793	16356
914.906	16101
915.019	16105
915.132	15949
915.245	15918
915.358	16048
915.47	16116
915.583	16040
915.696	16154
915.809	16139
915.921	16162
916.034	15941
916.146	15956
916.259	15945
916.371	16093
916.483	15960
916.595	15892
916.708	15835
916.82	15842
916.932	15827
917.044	15743
917.156	15774
917.268	15622
917.38	15667
917.491	15671
917.603	15553
917.715	15720
917.826	15762
917.938	15637
918.049	15500
918.161	15667
918.272	15717
918.384	15717
918.495	15580
918.606	15439
918.717	15370
918.828	15348
918.939	15386
919.05	15336
919.161	15408
919.272	15154
919.383	15222
919.494	15416
919.604	15564
919.715	15329
919.826	15336
919.936	15340
920.047	15428
920.157	15382
920.267	15553
920.378	15317
920.488	15180
920.598	15519
920.708	15618
920.818	15534
920.928	15466
921.038	15641
921.148	15545
921.258	15332
921.368	15313
921.477	15119
921.587	15123
921.697	15013
921.806	15009
921.916	14944
922.025	14834
922.134	14659
922.244	14549
922.353	14743
922.462	14606
922.571	14575
922.68	14389
922.789	14317
922.898	14400
923.007	14282
923.116	14343
923.224	14271
923.333	14282
923.442	14183
923.55	14157
923.659	14168
923.767	14187
923.876	14130
923.984	14172
924.092	14054
924.201	14123
924.309	14027
924.417	14096
924.525	14005
924.633	14001
924.741	14838
924.849	13757
924.956	13807
925.064	13776
925.172	13651
925.279	13715
925.387	13814
925.494	13750
925.602	13830
925.709	13658
925.816	13556
925.924	13727
926.031	13753
926.138	13609
926.245	13715
926.352	13521
926.459	13552
926.566	13666
926.673	13559
926.779	13460
926.886	13388
926.993	13251
927.099	13308
927.206	13247
927.312	13228
927.419	13304
927.525	13304
927.631	13297
927.737	13145
927.843	13050
927.95	13072
928.056	12973
928.162	13038
928.267	13126
928.373	13719
928.479	13141
928.585	12875
928.69	12954
928.796	13156
928.901	12935
929.007	12783
929.112	12844
929.218	12897
929.323	12768
929.428	12726
929.533	12844
929.638	12741
929.743	12692
929.848	12669
929.953	12620
930.058	12585
930.163	12426
930.267	12414
930.372	12509
930.477	12357
930.581	12681
930.685	12452
930.79	12277
930.894	12365
930.998	12201
931.103	12311
931.207	12117
931.311	11984
931.415	11912
931.519	11680
931.623	11646
