Data from test_V78500241_1372.txt Node
Date: Fri Mar 25 15:51:18 CST 2022
User: usil
Spectrometer: V785-0024
Trigger mode: 0
Integration Time (sec): 4.000000E-1
Scans to average: 1
Nonlinearity correction enabled: false
Boxcar width: 0
Storing dark spectrum: false
XAxis mode: Wavelengths
Number of Pixels in Spectrum: 1024
>>>>>Begin Spectral Data<<<<<
801.071	28207
801.214	28230
801.356	28093
801.499	27918
801.641	27720
801.783	27793
801.926	27956
802.068	28006
802.211	27812
802.353	27789
802.496	27538
802.638	27580
802.78	27511
802.923	27416
803.065	27336
803.208	27420
803.35	27523
803.492	27641
803.635	27709
803.777	27648
803.919	27720
804.061	27975
804.204	27816
804.346	27656
804.488	27690
804.63	27713
804.773	27553
804.915	27762
805.057	27895
805.199	27732
805.341	27781
805.483	27934
805.626	28139
805.768	27865
805.91	27774
806.052	27876
806.194	28025
806.336	28090
806.478	28051
806.62	27842
806.762	27991
806.904	28074
807.046	28443
807.188	28401
807.33	28200
807.472	28371
807.614	28158
807.756	28329
807.898	28188
808.04	28055
808.182	28325
808.324	28257
808.465	28219
808.607	28516
808.749	28493
808.891	28573
809.033	28820
809.174	28691
809.316	28771
809.458	28584
809.6	28485
809.741	28694
809.883	28710
810.025	28847
810.166	28888
810.308	28957
810.45	28736
810.591	28733
810.733	28634
810.875	28561
811.016	28447
811.158	28428
811.299	28653
811.441	28729
811.582	28725
811.724	28588
811.865	28470
812.007	28565
812.148	28569
812.29	28573
812.431	28672
812.573	28987
812.714	28896
812.855	29181
812.997	29067
813.138	29181
813.279	29322
813.421	29235
813.562	28980
813.703	28923
813.845	28873
813.986	28622
814.127	28246
814.268	28276
814.41	28325
814.551	28447
814.692	28405
814.833	28310
814.974	28169
815.115	28375
815.256	28120
815.397	28154
815.539	28097
815.68	28082
815.821	27960
815.962	28078
816.103	27975
816.244	27975
816.385	27922
816.526	27774
816.666	27819
816.807	27530
816.948	27671
817.089	27618
817.23	27671
817.371	27648
817.512	27667
817.653	27549
817.793	27443
817.934	27591
818.075	27690
818.216	27603
818.356	27591
818.497	27526
818.638	27325
818.778	27389
818.919	27192
819.06	27557
819.2	27481
819.341	27564
819.481	27504
819.622	27747
819.762	28002
819.903	27854
820.043	27857
820.184	27682
820.324	27755
820.465	27583
820.605	27842
820.746	27652
820.886	27515
821.026	27694
821.167	27667
821.307	27808
821.447	27599
821.588	27416
821.728	27477
821.868	27047
822.008	27024
822.149	27085
822.289	27104
822.429	26777
822.569	26667
822.709	26682
822.849	26640
822.99	26583
823.13	26503
823.27	26473
823.41	26404
823.55	26275
823.69	26328
823.83	26499
823.97	26229
824.11	26145
824.25	26248
824.389	26210
824.529	26263
824.669	26240
824.809	26347
824.949	26305
825.089	26313
825.228	26183
825.368	26008
825.508	26035
825.648	25993
825.787	26016
825.927	26298
826.067	26031
826.206	26176
826.346	26122
826.485	26100
826.625	26039
826.765	26233
826.904	26138
827.044	26039
827.183	25909
827.323	25788
827.462	25761
827.601	25677
827.741	25662
827.88	25788
828.02	25643
828.159	25750
828.298	25674
828.437	25879
828.577	25700
828.716	25898
828.855	25791
828.994	25487
829.134	25495
829.273	25635
829.412	25430
829.551	25449
829.69	25476
829.829	25453
829.968	25556
830.107	25540
830.246	25331
830.385	25384
830.524	25438
830.663	25308
830.802	25145
830.941	25069
831.08	25065
831.219	25202
831.357	25175
831.496	25278
831.635	25179
831.774	25072
831.913	24787
832.051	24894
832.19	24791
832.329	25000
832.467	24726
832.606	24730
832.744	24741
832.883	24806
833.022	24810
833.16	24867
833.299	24924
833.437	24791
833.576	24867
833.714	24833
833.852	24878
833.991	24951
834.129	24928
834.267	24878
834.406	24802
834.544	24924
834.682	24856
834.821	24787
834.959	24954
835.097	24802
835.235	24817
835.373	24806
835.511	24871
835.65	24684
835.788	24661
835.926	24635
836.064	24467
836.202	24544
836.34	24593
836.478	24639
836.615	24563
836.753	24707
836.891	24646
837.029	24669
837.167	24525
837.305	24464
837.443	24509
837.58	24536
837.718	24551
837.856	24608
837.993	24407
838.131	24399
838.269	24376
838.406	24429
838.544	24247
838.681	24125
838.819	24178
838.956	23961
839.094	23961
839.231	23969
839.369	24079
839.506	24266
839.643	24060
839.781	23901
839.918	23882
840.055	23927
840.193	23923
840.33	23767
840.467	23828
840.604	23973
840.742	24117
840.879	23680
841.016	23832
841.153	23653
841.29	23939
841.427	23878
841.564	23961
841.701	23935
841.838	23859
841.975	23684
842.112	23752
842.249	23615
842.385	23665
842.522	23901
842.659	23630
842.796	23566
842.933	23505
843.069	23490
843.206	23539
843.343	23611
843.479	23687
843.616	23596
843.752	23345
843.889	23349
844.025	23490
844.162	23318
844.298	23467
844.435	23364
844.571	23284
844.708	23372
844.844	23547
844.98	23604
845.117	23444
845.253	23341
845.389	23246
845.525	23197
845.661	23261
845.798	23052
845.934	23189
846.07	23056
846.206	23109
846.342	23258
846.478	23033
846.614	22911
846.75	22717
846.886	22816
847.022	22911
847.158	22953
847.294	22759
847.429	22946
847.565	22771
847.701	23025
847.837	22561
847.972	22588
848.108	22630
848.244	22691
848.379	22447
848.515	22485
848.65	22421
848.786	22440
848.921	22466
849.057	22573
849.192	22618
849.328	22554
849.463	22554
849.598	22417
849.734	22230
849.869	22280
850.004	22284
850.14	22287
850.275	22177
850.41	22166
850.545	22029
850.68	22150
850.815	22154
850.95	22223
851.085	22398
851.22	22318
851.355	22166
851.49	22120
851.625	22226
851.76	22219
851.895	22048
852.03	22135
852.165	22223
852.299	22204
852.434	22337
852.569	22166
852.703	22166
852.838	22257
852.973	22352
853.107	22295
853.242	22086
853.376	22086
853.511	21994
853.645	21968
853.78	22109
853.914	22055
854.048	22067
854.183	21994
854.317	21987
854.451	22242
854.585	22036
854.72	22082
854.854	22207
854.988	21968
855.122	21956
855.256	21956
855.39	22025
855.524	22059
855.658	22097
855.792	22021
855.926	22002
856.06	22017
856.194	22150
856.327	21994
856.461	21876
856.595	21975
856.729	21964
856.862	22090
856.996	22021
857.13	22109
857.263	22105
857.397	22120
857.53	21934
857.664	22013
857.797	22078
857.931	22150
858.064	22116
858.197	22051
858.331	22055
858.464	21960
858.597	21884
858.731	21915
858.864	21941
858.997	22013
859.13	21937
859.263	21994
859.396	22063
859.529	21972
859.662	21861
859.795	21899
859.928	22051
860.061	22143
860.194	22154
860.327	22139
860.46	22051
860.592	22070
860.725	22074
860.858	22059
860.99	22029
861.123	21941
861.256	22021
861.388	22059
861.521	22771
861.653	21968
861.786	21835
861.918	21816
862.05	21823
862.183	21876
862.315	22021
862.447	21979
862.58	21949
862.712	21739
862.844	21694
862.976	21827
863.108	21751
863.24	22135
863.372	21629
863.504	21595
863.636	21728
863.768	21774
863.9	21705
864.032	21637
864.164	21720
864.296	21732
864.428	21812
864.559	21736
864.691	21644
864.823	21614
864.954	21709
865.086	21709
865.217	21774
865.349	21526
865.48	21610
865.612	21610
865.743	21644
865.875	21652
866.006	21507
866.137	21614
866.269	21675
866.4	21587
866.531	21507
866.662	21416
866.793	21530
866.924	21488
867.055	21656
867.186	21545
867.317	21496
867.448	21496
867.579	21515
867.71	21393
867.841	21447
867.972	21519
868.103	21530
868.233	21542
868.364	21515
868.495	21599
868.625	21766
868.756	21915
868.886	21770
869.017	21701
869.147	21903
869.278	21842
869.408	21759
869.539	21671
869.669	21781
869.799	21892
869.929	21998
870.06	21983
870.19	22059
870.32	22048
870.45	21949
870.58	22253
870.71	22272
870.84	22238
870.97	22124
871.1	22238
871.23	22223
871.36	22413
871.489	22226
871.619	22322
871.749	22234
871.879	22322
872.008	22596
872.138	22272
872.267	22268
872.397	22249
872.526	22230
872.656	22188
872.785	22131
872.915	22352
873.044	22470
873.173	22310
873.303	22497
873.432	22344
873.561	22459
873.69	22474
873.819	22306
873.948	22360
874.077	22405
874.206	22272
874.335	22234
874.464	22523
874.593	22672
874.722	22557
874.851	22615
874.979	22550
875.108	22622
875.237	22557
875.365	22527
875.494	22561
875.623	22637
875.751	22573
875.88	22554
876.008	22675
876.136	22771
876.265	23014
876.393	23162
876.521	23041
876.65	23060
876.778	22900
876.906	23003
877.034	22961
877.162	22835
877.29	22877
877.418	22953
877.546	22927
877.674	22942
877.802	22904
877.93	22862
878.058	22957
878.185	22809
878.313	22797
878.441	22934
878.568	22736
878.696	22919
878.824	22835
878.951	23056
879.079	23094
879.206	23090
879.333	23128
879.461	22953
879.588	23060
879.715	23109
879.842	23280
879.97	22900
880.097	22748
880.224	22740
880.351	22649
880.478	22786
880.605	22828
880.732	22713
880.859	22885
880.986	22790
881.112	22752
881.239	22615
881.366	22565
881.493	22314
881.619	22211
881.746	22363
881.872	22352
881.999	22272
882.125	22242
882.252	22295
882.378	22371
882.505	22337
882.631	22158
882.757	22128
882.883	21994
883.01	21941
883.136	21968
883.262	21892
883.388	21819
883.514	22059
883.64	22112
883.766	21911
883.892	21797
884.018	21739
884.143	21937
884.269	21934
884.395	21732
884.52	21625
884.646	21698
884.772	21580
884.897	21538
885.023	21694
885.148	21709
885.274	21785
885.399	21618
885.524	21603
885.65	21606
885.775	21694
885.9	21614
886.025	21694
886.15	21766
886.275	21542
886.4	21526
886.525	21587
886.65	21530
886.775	21644
886.9	21732
887.025	21778
887.149	21561
887.274	21382
887.399	21462
887.523	21389
887.648	21340
887.773	21363
887.897	21424
888.021	21557
888.146	21310
888.27	21431
888.395	21549
888.519	21515
888.643	21447
888.767	21500
888.891	21351
889.015	21313
889.139	21165
889.263	21142
889.387	21329
889.511	21348
889.635	21294
889.759	21226
889.883	21108
890.006	21252
890.13	21233
890.254	21203
890.377	21165
890.501	20906
890.624	20948
890.748	20963
890.871	20861
890.995	20735
891.118	20579
891.241	20819
891.364	20724
891.488	20842
891.611	20807
891.734	20674
891.857	20842
891.98	20746
892.103	20845
892.226	20739
892.349	20758
892.471	20530
892.594	20724
892.717	20632
892.839	20644
892.962	20571
893.085	20648
893.207	20651
893.33	20533
893.452	20598
893.575	20686
893.697	20606
893.819	20777
893.941	20773
894.064	20826
894.186	20507
894.308	20526
894.43	20670
894.552	20830
894.674	20807
894.796	20613
894.918	20579
895.04	20556
895.161	20735
895.283	20720
895.405	20484
895.526	20636
895.648	20651
895.769	20667
895.891	20606
896.012	20659
896.134	20758
896.255	20632
896.376	20625
896.498	20678
896.619	20648
896.74	20670
896.861	20705
896.982	20921
897.103	21001
897.224	20956
897.345	20777
897.466	20773
897.587	20804
897.708	20948
897.828	20937
897.949	20796
898.07	20686
898.19	20838
898.311	21028
898.431	20842
898.552	20705
898.672	20956
898.792	20811
898.913	20899
899.033	20731
899.153	20686
899.273	20545
899.393	20526
899.513	20648
899.633	20632
899.753	20613
899.873	20682
899.993	20590
900.113	20495
900.232	20587
900.352	20522
900.472	20415
900.591	20225
900.711	20347
900.83	20377
900.95	20514
901.069	20347
901.189	20244
901.308	20020
901.427	19902
901.546	19951
901.665	19898
901.784	19830
901.904	19883
902.023	19803
902.141	19506
902.26	19487
902.379	19635
902.498	19495
902.617	19392
902.735	19457
902.854	19449
902.973	19365
903.091	19152
903.21	19046
903.328	19126
903.446	19012
903.565	18768
903.683	18856
903.801	18829
903.919	18760
904.038	18787
904.156	18730
904.274	18753
904.392	18658
904.51	18593
904.627	18745
904.745	18681
904.863	18909
904.981	18551
905.098	18380
905.216	18300
905.334	18445
905.451	18445
905.569	18304
905.686	18506
905.803	18308
905.921	18121
906.038	18239
906.155	18117
906.272	17999
906.389	18079
906.506	17874
906.623	17882
906.74	17783
906.857	17748
906.974	17802
907.091	18003
907.208	17958
907.324	17885
907.441	17767
907.557	17539
907.674	17596
907.79	17524
907.907	17535
908.023	17562
908.139	17566
908.256	17585
908.372	17532
908.488	17524
908.604	17307
908.72	17379
908.836	17322
908.952	17277
909.068	17280
909.184	17368
909.3	17296
909.415	17364
909.531	17288
909.647	16999
909.762	17147
909.878	16908
909.993	17090
910.108	16938
910.224	16980
910.339	16984
910.454	16889
910.57	16778
910.685	16729
910.8	17045
910.915	16976
911.03	16824
911.145	16694
911.259	16519
911.374	16535
911.489	16535
911.604	16489
911.718	16287
911.833	16363
911.947	16280
912.062	16265
912.176	16310
912.291	16363
912.405	16352
912.519	16516
912.633	16489
912.748	16417
912.862	16284
912.976	16188
913.09	15964
913.204	16067
913.318	16246
913.431	16162
913.545	16169
913.659	16196
913.772	16147
913.886	16036
914	15895
914.113	15979
914.226	16006
914.34	16082
914.453	15869
914.566	15941
914.68	15888
914.793	15759
914.906	15538
915.019	15515
915.132	15473
915.245	15534
915.358	15485
915.47	15542
915.583	15595
915.696	15488
915.809	15599
915.921	15564
916.034	15393
916.146	15462
916.259	15450
916.371	15462
916.483	15519
916.595	15382
916.708	15287
916.82	15291
916.932	15298
917.044	15325
917.156	15325
917.268	15146
917.38	15218
917.491	15135
917.603	15104
917.715	15272
917.826	15203
917.938	15047
918.049	14948
918.161	15047
918.272	15260
918.384	15169
918.495	15123
918.606	14910
918.717	14826
918.828	14914
918.939	14864
919.05	14838
919.161	14887
919.272	14644
919.383	14838
919.494	14918
919.604	15135
919.715	14906
919.826	14830
919.936	14845
920.047	14948
920.157	14895
920.267	15077
920.378	14842
920.488	14819
920.598	15070
920.708	15283
920.818	14990
920.928	15005
921.038	15085
921.148	15070
921.258	14792
921.368	14720
921.477	14689
921.587	14549
921.697	14488
921.806	14640
921.916	14389
922.025	14240
922.134	14229
922.244	14290
922.353	14305
922.462	14206
922.571	14065
922.68	13921
922.789	13970
922.898	13913
923.007	13689
923.116	13955
923.224	13925
923.333	13887
923.442	13776
923.55	13670
923.659	13791
923.767	13795
923.876	13582
923.984	13734
924.092	13655
924.201	13616
924.309	13620
924.417	13685
924.525	13529
924.633	13609
924.741	14476
924.849	13278
924.956	13525
925.064	13289
925.172	13152
925.279	13301
925.387	13384
925.494	13327
925.602	13441
925.709	13346
925.816	13156
925.924	13244
926.031	13343
926.138	13194
926.245	13232
926.352	13088
926.459	13255
926.566	13369
926.673	13149
926.779	12977
926.886	13057
926.993	12932
927.099	12859
927.206	12810
927.312	12673
927.419	12901
927.525	12817
927.631	12764
927.737	12719
927.843	12627
927.95	12506
928.056	12681
928.162	12722
928.267	12684
928.373	13346
928.479	12730
928.585	12448
928.69	12612
928.796	12650
928.901	12604
929.007	12350
929.112	12486
929.218	12483
929.323	12388
929.428	12414
929.533	12521
929.638	12308
929.743	12311
929.848	12346
929.953	12319
930.058	12205
930.163	12045
930.267	12022
930.372	12209
930.477	12041
930.581	12235
930.685	12079
930.79	11916
930.894	11977
930.998	11859
931.103	12053
931.207	11707
931.311	11543
931.415	11509
931.519	11318
931.623	11258
