Data from test_V78500241_1979.txt Node
Date: Fri Mar 25 15:55:30 CST 2022
User: usil
Spectrometer: V785-0024
Trigger mode: 0
Integration Time (sec): 4.000000E-1
Scans to average: 1
Nonlinearity correction enabled: false
Boxcar width: 0
Storing dark spectrum: false
XAxis mode: Wavelengths
Number of Pixels in Spectrum: 1024
>>>>>Begin Spectral Data<<<<<
801.071	27755
801.214	27747
801.356	27477
801.499	27386
801.641	27340
801.783	27370
801.926	27317
802.068	27435
802.211	27291
802.353	27157
802.496	27036
802.638	26975
802.78	26979
802.923	26975
803.065	26857
803.208	26807
803.35	26956
803.492	27058
803.635	27226
803.777	27089
803.919	27283
804.061	27496
804.204	27317
804.346	27074
804.488	27055
804.63	27218
804.773	27100
804.915	27199
805.057	27192
805.199	27108
805.341	27336
805.483	27363
805.626	27203
805.768	27249
805.91	27329
806.052	27302
806.194	27237
806.336	27424
806.478	27336
806.62	27298
806.762	27435
806.904	27606
807.046	27873
807.188	27690
807.33	27854
807.472	27789
807.614	27652
807.756	27739
807.898	27591
808.04	27511
808.182	27698
808.324	27599
808.465	27762
808.607	27880
808.749	28029
808.891	28032
809.033	28246
809.174	28284
809.316	27774
809.458	27941
809.6	27983
809.741	28078
809.883	28162
810.025	28341
810.166	28051
810.308	28215
810.45	28166
810.591	28078
810.733	27888
810.875	27785
811.016	27964
811.158	27854
811.299	28097
811.441	28120
811.582	28150
811.724	28059
811.865	27854
812.007	27899
812.148	27956
812.29	28021
812.431	28101
812.573	28253
812.714	28447
812.855	28417
812.997	28649
813.138	28641
813.279	28478
813.421	28485
813.562	28489
813.703	28215
813.845	28131
813.986	27823
814.127	27797
814.268	27625
814.41	27667
814.551	27599
814.692	27694
814.833	27530
814.974	27686
815.115	27652
815.256	27553
815.397	27469
815.539	27496
815.68	27462
815.821	27260
815.962	27336
816.103	27340
816.244	27298
816.385	27241
816.526	27268
816.666	26940
816.807	26979
816.948	26906
817.089	27108
817.23	26990
817.371	26838
817.512	26933
817.653	26785
817.793	26792
817.934	26861
818.075	26781
818.216	26918
818.356	26781
818.497	26750
818.638	26609
818.778	26720
818.919	26712
819.06	26651
819.2	26708
819.341	26979
819.481	26876
819.622	27112
819.762	27161
819.903	27180
820.043	27081
820.184	27081
820.324	26971
820.465	27085
820.605	26967
820.746	26921
820.886	27001
821.026	27081
821.167	26975
821.307	27180
821.447	26956
821.588	26754
821.728	26545
821.868	26556
822.008	26427
822.149	26446
822.289	26415
822.429	26176
822.569	26142
822.709	26081
822.849	26024
822.99	25955
823.13	25791
823.27	25921
823.41	25696
823.55	25681
823.69	25753
823.83	25723
823.97	25616
824.11	25419
824.25	25506
824.389	25567
824.529	25620
824.669	25499
824.809	25544
824.949	25556
825.089	25628
825.228	25495
825.368	25289
825.508	25327
825.648	25354
825.787	25392
825.927	25354
826.067	25339
826.206	25232
826.346	25396
826.485	25335
826.625	25339
826.765	25567
826.904	25571
827.044	25206
827.183	25209
827.323	25103
827.462	25190
827.601	25141
827.741	25118
827.88	25088
828.02	24939
828.159	25023
828.298	25206
828.437	25110
828.577	25061
828.716	25194
828.855	25008
828.994	24802
829.134	24863
829.273	24852
829.412	24719
829.551	24768
829.69	24825
829.829	24802
829.968	24886
830.107	24943
830.246	24692
830.385	24837
830.524	24715
830.663	24544
830.802	24521
830.941	24296
831.08	24361
831.219	24452
831.357	24422
831.496	24525
831.635	24372
831.774	24372
831.913	24281
832.051	24213
832.19	24148
832.329	24152
832.467	24171
832.606	24038
832.744	23954
832.883	24117
833.022	24049
833.16	24060
833.299	24174
833.437	24057
833.576	24159
833.714	24167
833.852	24129
833.991	24182
834.129	24220
834.267	24106
834.406	24251
834.544	24228
834.682	24087
834.821	24117
834.959	24243
835.097	23965
835.235	24121
835.373	24083
835.511	24072
835.65	23897
835.788	23999
835.926	23923
836.064	23847
836.202	23847
836.34	24015
836.478	23988
836.615	23939
836.753	23908
836.891	24041
837.029	23977
837.167	24018
837.305	23882
837.443	23855
837.58	23767
837.718	23855
837.856	23840
837.993	23722
838.131	23866
838.269	23551
838.406	23672
838.544	23570
838.681	23436
838.819	23444
838.956	23303
839.094	23174
839.231	23246
839.369	23440
839.506	23653
839.643	23353
839.781	23280
839.918	23303
840.055	23208
840.193	23277
840.33	23166
840.467	23258
840.604	23181
840.742	23307
840.879	22908
841.016	23014
841.153	23022
841.29	23220
841.427	23254
841.564	23181
841.701	23162
841.838	23033
841.975	22976
842.112	23117
842.249	23033
842.385	22949
842.522	23174
842.659	23033
842.796	22953
842.933	22946
843.069	22911
843.206	22915
843.343	23090
843.479	22919
843.616	22908
843.752	22710
843.889	22809
844.025	22809
844.162	22634
844.298	22809
844.435	22706
844.571	22630
844.708	22790
844.844	22908
844.98	22911
845.117	22854
845.253	22656
845.389	22516
845.525	22626
845.661	22698
845.798	22504
845.934	22656
846.07	22440
846.206	22417
846.342	22493
846.478	22348
846.614	22204
846.75	22036
846.886	22196
847.022	22246
847.158	22173
847.294	22158
847.429	22242
847.565	22185
847.701	22402
847.837	21968
847.972	21827
848.108	22040
848.244	22078
848.379	21850
848.515	21835
848.65	21739
848.786	21759
848.921	21759
849.057	21895
849.192	21998
849.328	21785
849.463	21686
849.598	21739
849.734	21610
849.869	21599
850.004	21564
850.14	21561
850.275	21515
850.41	21462
850.545	21488
850.68	21561
850.815	21599
850.95	21405
851.085	21720
851.22	21583
851.355	21538
851.49	21492
851.625	21576
851.76	21572
851.895	21416
852.03	21564
852.165	21568
852.299	21504
852.434	21637
852.569	21625
852.703	21523
852.838	21564
852.973	21732
853.107	21641
853.242	21545
853.376	21447
853.511	21272
853.645	21405
853.78	21370
853.914	21389
854.048	21157
854.183	21325
854.317	21344
854.451	21580
854.585	21298
854.72	21408
854.854	21450
854.988	21367
855.122	21294
855.256	21237
855.39	21287
855.524	21340
855.658	21466
855.792	21291
855.926	21393
856.06	21458
856.194	21469
856.327	21386
856.461	21252
856.595	21222
856.729	21420
856.862	21424
856.996	21378
857.13	21458
857.263	21439
857.397	21454
857.53	21279
857.664	21511
857.797	21458
857.931	21412
858.064	21336
858.197	21481
858.331	21370
858.464	21279
858.597	21203
858.731	21355
858.864	21176
858.997	21268
859.13	21401
859.263	21348
859.396	21363
859.529	21275
859.662	21329
859.795	21294
859.928	21351
860.061	21488
860.194	21603
860.327	21450
860.46	21439
860.592	21504
860.725	21481
860.858	21488
860.99	21420
861.123	21340
861.256	21317
861.388	21401
861.521	22055
861.653	21336
861.786	21146
861.918	21161
862.05	21173
862.183	21348
862.315	21195
862.447	21363
862.58	21245
862.712	21047
862.844	20933
862.976	21214
863.108	21195
863.24	21542
863.372	21188
863.504	20998
863.636	21074
863.768	21218
863.9	21112
864.032	20990
864.164	20914
864.296	21074
864.428	21245
864.559	21188
864.691	21226
864.823	21108
864.954	21142
865.086	21013
865.217	21077
865.349	20906
865.48	20880
865.612	20948
865.743	21005
865.875	21074
866.006	21028
866.137	20910
866.269	20994
866.4	20956
866.531	20823
866.662	20902
866.793	20952
866.924	20891
867.055	20967
867.186	20880
867.317	20811
867.448	20762
867.579	21024
867.71	20868
867.841	20826
867.972	20819
868.103	20902
868.233	20929
868.364	20796
868.495	20963
868.625	21058
868.756	21367
868.886	21157
869.017	21184
869.147	21252
869.278	21321
869.408	21176
869.539	21169
869.669	21192
869.799	21180
869.929	21393
870.06	21226
870.19	21428
870.32	21538
870.45	21534
870.58	21523
870.71	21610
870.84	21694
870.97	21618
871.1	21538
871.23	21709
871.36	21751
871.489	21629
871.619	21819
871.749	21739
871.879	21888
872.008	21861
872.138	21793
872.267	21812
872.397	21736
872.526	21587
872.656	21610
872.785	21652
872.915	21739
873.044	21903
873.173	21884
873.303	21831
873.432	21873
873.561	21789
873.69	21934
873.819	21861
873.948	21876
874.077	21876
874.206	21785
874.335	21907
874.464	21895
874.593	22097
874.722	21922
874.851	22051
874.979	22059
875.108	22177
875.237	22086
875.365	22032
875.494	21827
875.623	22257
875.751	22063
875.88	22120
876.008	22192
876.136	22261
876.265	22440
876.393	22588
876.521	22550
876.65	22390
876.778	22485
876.906	22356
877.034	22436
877.162	22447
877.29	22276
877.418	22466
877.546	22348
877.674	22325
877.802	22432
877.93	22352
878.058	22421
878.185	22215
878.313	22386
878.441	22451
878.568	22162
878.696	22223
878.824	22478
878.951	22455
879.079	22561
879.206	22713
879.333	22512
879.461	22417
879.588	22333
879.715	22675
879.842	22660
879.97	22428
880.097	22226
880.224	22120
880.351	22306
880.478	22192
880.605	22276
880.732	22150
880.859	22402
880.986	22150
881.112	22234
881.239	22051
881.366	21964
881.493	21823
881.619	21728
881.746	21865
881.872	21675
881.999	21747
882.125	21869
882.252	21835
882.378	21846
882.505	21968
882.631	21682
882.757	21477
882.883	21488
883.01	21568
883.136	21580
883.262	21481
883.388	21302
883.514	21420
883.64	21477
883.766	21401
883.892	21310
884.018	21321
884.143	21450
884.269	21553
884.395	21287
884.52	21085
884.646	21043
884.772	21108
884.897	21081
885.023	21112
885.148	21222
885.274	21203
885.399	21154
885.524	21241
885.65	21024
885.775	21116
885.9	21062
886.025	21135
886.15	21161
886.275	21135
886.4	21009
886.525	21074
886.65	20998
886.775	21028
886.9	21211
887.025	21344
887.149	20971
887.274	21009
887.399	20883
887.523	20918
887.648	20895
887.773	20769
887.897	20872
888.021	20944
888.146	20777
888.27	21028
888.395	20918
888.519	20792
888.643	20899
888.767	20906
888.891	20830
889.015	20773
889.139	20743
889.263	20655
889.387	20739
889.511	20872
889.635	20902
889.759	20705
889.883	20686
890.006	20792
890.13	20807
890.254	20670
890.377	20564
890.501	20518
890.624	20442
890.748	20507
890.871	20263
890.995	20317
891.118	20206
891.241	20347
891.364	20347
891.488	20549
891.611	20210
891.734	20278
891.857	20301
891.98	20149
892.103	20298
892.226	20187
892.349	20183
892.471	20069
892.594	20221
892.717	20115
892.839	20183
892.962	20122
893.085	20161
893.207	20119
893.33	19917
893.452	20073
893.575	20088
893.697	20164
893.819	20358
893.941	20370
894.064	20313
894.186	20119
894.308	20103
894.43	20218
894.552	20221
894.674	20210
894.796	20134
894.918	20008
895.04	20145
895.161	20183
895.283	20145
895.405	20111
895.526	20164
895.648	20157
895.769	20142
895.891	20301
896.012	20157
896.134	20225
896.255	20149
896.376	20149
896.498	20142
896.619	20122
896.74	20081
896.861	20252
896.982	20461
897.103	20727
897.224	20514
897.345	20366
897.466	20431
897.587	20473
897.708	20533
897.828	20317
897.949	20358
898.07	20282
898.19	20336
898.311	20457
898.431	20423
898.552	20396
898.672	20290
898.792	20404
898.913	20431
899.033	20286
899.153	20039
899.273	20191
899.393	20149
899.513	20176
899.633	20103
899.753	20172
899.873	20073
899.993	20168
900.113	20054
900.232	20122
900.352	20069
900.472	20115
900.591	20054
900.711	19967
900.83	19788
900.95	20012
901.069	19993
901.189	19849
901.308	19483
901.427	19502
901.546	19491
901.665	19502
901.784	19540
901.904	19377
902.023	19198
902.141	19046
902.26	19084
902.379	19198
902.498	18985
902.617	18970
902.735	19027
902.854	19031
902.973	18928
903.091	18635
903.21	18719
903.328	18677
903.446	18658
903.565	18517
903.683	18555
903.801	18407
903.919	18407
904.038	18403
904.156	18369
904.274	18361
904.392	18220
904.51	18140
904.627	18224
904.745	18281
904.863	18254
904.981	18030
905.098	17916
905.216	17920
905.334	17973
905.451	18015
905.569	17870
905.686	17988
905.803	17984
905.921	17752
906.038	17859
906.155	17779
906.272	17615
906.389	17608
906.506	17478
906.623	17436
906.74	17455
906.857	17330
906.974	17379
907.091	17516
907.208	17547
907.324	17566
907.441	17322
907.557	17223
907.674	17223
907.79	17075
907.907	17185
908.023	17239
908.139	17277
908.256	16995
908.372	17162
908.488	17006
908.604	16892
908.72	16835
908.836	16908
908.952	16885
909.068	16904
909.184	16934
909.3	16877
909.415	16892
909.531	16839
909.647	16615
909.762	16599
909.878	16630
909.993	16599
910.108	16531
910.224	16459
910.339	16474
910.454	16455
910.57	16470
910.685	16314
910.8	16508
910.915	16561
911.03	16367
911.145	16238
911.259	16219
911.374	16173
911.489	16158
911.604	16025
911.718	15857
911.833	15926
911.947	15846
912.062	15709
912.176	15926
912.291	15964
912.405	15865
912.519	16040
912.633	16196
912.748	15994
912.862	15899
912.976	15755
913.09	15618
913.204	15739
913.318	15717
913.431	15850
913.545	15850
913.659	15873
913.772	15717
913.886	15641
914	15618
914.113	15530
914.226	15705
914.34	15656
914.453	15515
914.566	15564
914.68	15363
914.793	15359
914.906	15135
915.019	15142
915.132	15127
915.245	15180
915.358	15146
915.47	15180
915.583	15047
915.696	15233
915.809	15294
915.921	15279
916.034	15051
916.146	15005
916.259	15062
916.371	15146
916.483	15089
916.595	14967
916.708	14910
916.82	14990
916.932	15039
917.044	14948
917.156	14883
917.268	14781
917.38	14823
917.491	14823
917.603	14807
917.715	14872
917.826	14861
917.938	14735
918.049	14621
918.161	14758
918.272	14921
918.384	14861
918.495	14781
918.606	14560
918.717	14473
918.828	14503
918.939	14579
919.05	14541
919.161	14556
919.272	14374
919.383	14370
919.494	14610
919.604	14727
919.715	14579
919.826	14434
919.936	14484
920.047	14606
920.157	14518
920.267	14842
920.378	14545
920.488	14412
920.598	14765
920.708	14906
920.818	14594
920.928	14617
921.038	14811
921.148	14769
921.258	14495
921.368	14282
921.477	14252
921.587	14263
921.697	14039
921.806	14282
921.916	14123
922.025	14008
922.134	13890
922.244	13822
922.353	13947
922.462	13761
922.571	13757
922.68	13552
922.789	13540
922.898	13495
923.007	13499
923.116	13605
923.224	13434
923.333	13521
923.442	13415
923.55	13327
923.659	13438
923.767	13487
923.876	13293
923.984	13495
924.092	13327
924.201	13335
924.309	13331
924.417	13320
924.525	13126
924.633	13232
924.741	14073
924.849	13057
924.956	13107
925.064	12981
925.172	12901
925.279	12909
925.387	13004
925.494	12901
925.602	13091
925.709	12993
925.816	12863
925.924	12875
926.031	13061
926.138	12935
926.245	12916
926.352	12882
926.459	12928
926.566	12943
926.673	12821
926.779	12719
926.886	12791
926.993	12570
927.099	12551
927.206	12486
927.312	12509
927.419	12483
927.525	12464
927.631	12452
927.737	12380
927.843	12395
927.95	12228
928.056	12300
928.162	12330
928.267	12365
928.373	12996
928.479	12292
928.585	12285
928.69	12330
928.796	12304
928.901	12228
929.007	12133
929.112	12167
929.218	12209
929.323	12175
929.428	12060
929.533	12129
929.638	11992
929.743	11920
929.848	12038
929.953	11958
930.058	11889
930.163	11817
930.267	11752
930.372	11946
930.477	11737
930.581	11923
930.685	11779
930.79	11684
930.894	11699
930.998	11619
931.103	11798
931.207	11379
931.311	11318
931.415	11170
931.519	11083
931.623	10972
