Data from test_V78500241_603.txt Node
Date: Fri Mar 25 15:45:58 CST 2022
User: usil
Spectrometer: V785-0024
Trigger mode: 0
Integration Time (sec): 4.000000E-1
Scans to average: 1
Nonlinearity correction enabled: false
Boxcar width: 0
Storing dark spectrum: false
XAxis mode: Wavelengths
Number of Pixels in Spectrum: 1024
>>>>>Begin Spectral Data<<<<<
801.071	27667
801.214	27625
801.356	27222
801.499	27363
801.641	27077
801.783	27112
801.926	27287
802.068	27093
802.211	26952
802.353	26967
802.496	26724
802.638	26792
802.78	26777
802.923	26629
803.065	26651
803.208	26640
803.35	26796
803.492	26785
803.635	27058
803.777	26792
803.919	26804
804.061	27085
804.204	27070
804.346	26830
804.488	26807
804.63	26804
804.773	26792
804.915	26819
805.057	26899
805.199	26845
805.341	26944
805.483	27020
805.626	27055
805.768	26861
805.91	26914
806.052	27039
806.194	27001
806.336	27203
806.478	26891
806.62	26937
806.762	27150
806.904	27256
807.046	27576
807.188	27515
807.33	27420
807.472	27564
807.614	27393
807.756	27443
807.898	27264
808.04	27112
808.182	27252
808.324	27218
808.465	27203
808.607	27481
808.749	27568
808.891	27736
809.033	27724
809.174	27720
809.316	27789
809.458	27644
809.6	27663
809.741	27701
809.883	27728
810.025	27907
810.166	27888
810.308	27869
810.45	27724
810.591	27854
810.733	27686
810.875	27587
811.016	27462
811.158	27496
811.299	27823
811.441	28040
811.582	27842
811.724	27759
811.865	27587
812.007	27595
812.148	27625
812.29	27511
812.431	27884
812.573	27960
812.714	28112
812.855	28204
812.997	28181
813.138	28226
813.279	28356
813.421	28284
813.562	28109
813.703	28040
813.845	27869
813.986	27568
814.127	27367
814.268	27291
814.41	27336
814.551	27275
814.692	27336
814.833	27214
814.974	27230
815.115	27287
815.256	27214
815.397	27214
815.539	27184
815.68	27100
815.821	27150
815.962	27131
816.103	27077
816.244	26979
816.385	26746
816.526	26902
816.666	26773
816.807	26617
816.948	26712
817.089	26769
817.23	26667
817.371	26613
817.512	26629
817.653	26602
817.793	26514
817.934	26613
818.075	26556
818.216	26609
818.356	26476
818.497	26526
818.638	26355
818.778	26168
818.919	26358
819.06	26374
819.2	26549
819.341	26564
819.481	26556
819.622	26617
819.762	26902
819.903	26811
820.043	26750
820.184	26674
820.324	26674
820.465	26823
820.605	26746
820.746	26689
820.886	26549
821.026	26602
821.167	26701
821.307	26731
821.447	26575
821.588	26533
821.728	26347
821.868	26225
822.008	26024
822.149	25959
822.289	26092
822.429	25822
822.569	25681
822.709	25769
822.849	25518
822.99	25559
823.13	25525
823.27	25422
823.41	25460
823.55	25289
823.69	25411
823.83	25430
823.97	25419
824.11	25190
824.25	24985
824.389	25202
824.529	25187
824.669	25274
824.809	25324
824.949	25388
825.089	25327
825.228	25274
825.368	25069
825.508	25046
825.648	25008
825.787	25072
825.927	25179
826.067	25084
826.206	25023
826.346	25088
826.485	25164
826.625	25126
826.765	25095
826.904	25141
827.044	24905
827.183	24757
827.323	24757
827.462	24741
827.601	24730
827.741	24715
827.88	24779
828.02	24566
828.159	24677
828.298	24916
828.437	24719
828.577	24669
828.716	24806
828.855	24772
828.994	24433
829.134	24547
829.273	24589
829.412	24486
829.551	24330
829.69	24346
829.829	24544
829.968	24505
830.107	24479
830.246	24429
830.385	24384
830.524	24342
830.663	24213
830.802	24209
830.941	24057
831.08	24072
831.219	24106
831.357	24079
831.496	24285
831.635	24049
831.774	24015
831.913	23950
832.051	23885
832.19	23859
832.329	23863
832.467	23802
832.606	23794
832.744	23691
832.883	23691
833.022	23703
833.16	23665
833.299	23707
833.437	23771
833.576	23798
833.714	23726
833.852	23878
833.991	23889
834.129	23847
834.267	23817
834.406	23779
834.544	23859
834.682	23824
834.821	23714
834.959	23954
835.097	23748
835.235	23767
835.373	23794
835.511	23642
835.65	23642
835.788	23672
835.926	23471
836.064	23452
836.202	23539
836.34	23623
836.478	23710
836.615	23592
836.753	23608
836.891	23619
837.029	23741
837.167	23573
837.305	23589
837.443	23429
837.58	23448
837.718	23585
837.856	23547
837.993	23455
838.131	23326
838.269	23231
838.406	23364
838.544	23383
838.681	23136
838.819	23083
838.956	22881
839.094	22896
839.231	23083
839.369	23124
839.506	23402
839.643	23121
839.781	22961
839.918	22881
840.055	22980
840.193	22889
840.33	22839
840.467	22968
840.604	22980
840.742	23250
840.879	22831
841.016	22824
841.153	22797
841.29	23029
841.427	22911
841.564	22900
841.701	22896
841.838	22755
841.975	22790
842.112	22797
842.249	22774
842.385	22630
842.522	22801
842.659	22691
842.796	22535
842.933	22668
843.069	22656
843.206	22519
843.343	22736
843.479	22565
843.616	22634
843.752	22360
843.889	22272
844.025	22588
844.162	22280
844.298	22405
844.435	22352
844.571	22333
844.708	22379
844.844	22550
844.98	22626
845.117	22531
845.253	22139
845.389	22291
845.525	22329
845.661	22261
845.798	22192
845.934	22230
846.07	22154
846.206	22219
846.342	22299
846.478	22120
846.614	21956
846.75	21854
846.886	21842
847.022	21823
847.158	21720
847.294	21911
847.429	21975
847.565	21861
847.701	22173
847.837	21656
847.972	21526
848.108	21812
848.244	21648
848.379	21473
848.515	21420
848.65	21431
848.786	21515
848.921	21477
849.057	21542
849.192	21515
849.328	21511
849.463	21416
849.598	21355
849.734	21264
849.869	21336
850.004	21249
850.14	21233
850.275	21116
850.41	21081
850.545	21066
850.68	21173
850.815	21241
850.95	21157
851.085	21287
851.22	21298
851.355	21180
851.49	21272
851.625	21214
851.76	21203
851.895	21138
852.03	21081
852.165	21119
852.299	21237
852.434	21336
852.569	21294
852.703	21154
852.838	21203
852.973	21272
853.107	21173
853.242	21176
853.376	21077
853.511	20921
853.645	21055
853.78	21188
853.914	21017
854.048	21009
854.183	20979
854.317	21058
854.451	21195
854.585	21127
854.72	21005
854.854	21074
854.988	20952
855.122	21017
855.256	20895
855.39	21112
855.524	21199
855.658	20963
855.792	21017
855.926	20990
856.06	21157
856.194	21074
856.327	21093
856.461	20948
856.595	21043
856.729	20994
856.862	21062
856.996	21009
857.13	21089
857.263	21135
857.397	21233
857.53	21100
857.664	20956
857.797	21074
857.931	21146
858.064	21024
858.197	21131
858.331	20971
858.464	20914
858.597	20921
858.731	20929
858.864	20990
858.997	20982
859.13	20971
859.263	21005
859.396	21058
859.529	21077
859.662	20998
859.795	21013
859.928	21020
860.061	21169
860.194	21264
860.327	21043
860.46	21077
860.592	21165
860.725	21310
860.858	21184
860.99	21184
861.123	20963
861.256	20933
861.388	21119
861.521	21606
861.653	20864
861.786	20796
861.918	20807
862.05	20853
862.183	21047
862.315	20994
862.447	21089
862.58	20944
862.712	20743
862.844	20735
862.976	20906
863.108	20868
863.24	21135
863.372	20724
863.504	20625
863.636	20758
863.768	20796
863.9	20864
864.032	20670
864.164	20769
864.296	20727
864.428	20800
864.559	20758
864.691	20716
864.823	20644
864.954	20815
865.086	20811
865.217	20743
865.349	20552
865.48	20678
865.612	20655
865.743	20765
865.875	20602
866.006	20587
866.137	20655
866.269	20674
866.4	20549
866.531	20533
866.662	20514
866.793	20587
866.924	20598
867.055	20518
867.186	20606
867.317	20442
867.448	20454
867.579	20476
867.71	20476
867.841	20564
867.972	20594
868.103	20488
868.233	20632
868.364	20541
868.495	20686
868.625	20834
868.756	21058
868.886	20651
869.017	20765
869.147	20872
869.278	20880
869.408	20933
869.539	20826
869.669	20823
869.799	20899
869.929	20868
870.06	20758
870.19	21108
870.32	21074
870.45	21218
870.58	21165
870.71	21450
870.84	21321
870.97	21203
871.1	21222
871.23	21374
871.36	21310
871.489	21260
871.619	21412
871.749	21370
871.879	21382
872.008	21485
872.138	21473
872.267	21466
872.397	21325
872.526	21348
872.656	21230
872.785	21321
872.915	21386
873.044	21447
873.173	21386
873.303	21553
873.432	21424
873.561	21450
873.69	21500
873.819	21458
873.948	21488
874.077	21401
874.206	21511
874.335	21507
874.464	21648
874.593	21599
874.722	21679
874.851	21671
874.979	21648
875.108	21720
875.237	21599
875.365	21583
875.494	21606
875.623	21686
875.751	21603
875.88	21694
876.008	21785
876.136	21941
876.265	22059
876.393	22143
876.521	22093
876.65	22150
876.778	22010
876.906	22048
877.034	21991
877.162	22211
877.29	22032
877.418	22078
877.546	22017
877.674	22017
877.802	21918
877.93	22010
878.058	22044
878.185	21918
878.313	21884
878.441	21884
878.568	21842
878.696	21975
878.824	22059
878.951	22177
879.079	22265
879.206	22363
879.333	22230
879.461	22036
879.588	22067
879.715	22211
879.842	22352
879.97	22162
880.097	21823
880.224	21861
880.351	21911
880.478	21865
880.605	21762
880.732	21911
880.859	22101
880.986	21892
881.112	21876
881.239	21603
881.366	21625
881.493	21519
881.619	21466
881.746	21306
881.872	21469
881.999	21454
882.125	21291
882.252	21519
882.378	21450
882.505	21534
882.631	21477
882.757	21157
882.883	21233
883.01	21203
883.136	21070
883.262	21043
883.388	20948
883.514	21116
883.64	21245
883.766	21001
883.892	21005
884.018	20944
884.143	21096
884.269	21195
884.395	20914
884.52	20758
884.646	20864
884.772	20739
884.897	20606
885.023	20849
885.148	20849
885.274	20899
885.399	21009
885.524	20777
885.65	20807
885.775	20765
885.9	20686
886.025	20826
886.15	20857
886.275	20739
886.4	20621
886.525	20701
886.65	20636
886.775	20655
886.9	20952
887.025	20998
887.149	20705
887.274	20530
887.399	20613
887.523	20590
887.648	20575
887.773	20423
887.897	20674
888.021	20644
888.146	20522
888.27	20564
888.395	20575
888.519	20511
888.643	20587
888.767	20598
888.891	20404
889.015	20320
889.139	20362
889.263	20317
889.387	20476
889.511	20541
889.635	20461
889.759	20347
889.883	20408
890.006	20351
890.13	20427
890.254	20218
890.377	20290
890.501	20107
890.624	20016
890.748	20145
890.871	19925
890.995	19871
891.118	19898
891.241	20005
891.364	19849
891.488	20031
891.611	19940
891.734	20027
891.857	20039
891.98	19921
892.103	20031
892.226	19963
892.349	19909
892.471	19742
892.594	19864
892.717	19925
892.839	19795
892.962	19875
893.085	19830
893.207	19841
893.33	19791
893.452	19677
893.575	19814
893.697	19898
893.819	19921
893.941	20031
894.064	19970
894.186	19795
894.308	19761
894.43	19940
894.552	20039
894.674	19978
894.796	19670
894.918	19822
895.04	19753
895.161	19936
895.283	19833
895.405	19826
895.526	19833
895.648	19849
895.769	19830
895.891	19932
896.012	19852
896.134	19940
896.255	19822
896.376	19860
896.498	19856
896.619	19811
896.74	19833
896.861	19997
896.982	20187
897.103	20313
897.224	20134
897.345	20069
897.466	20065
897.587	20119
897.708	20183
897.828	20024
897.949	19883
898.07	19947
898.19	19928
898.311	20168
898.431	20050
898.552	19959
898.672	20111
898.792	20164
898.913	20046
899.033	19963
899.153	19879
899.273	19750
899.393	19795
899.513	19883
899.633	19883
899.753	19822
899.873	19700
899.993	19814
900.113	19769
900.232	19769
900.352	19712
900.472	19620
900.591	19548
900.711	19628
900.83	19556
900.95	19761
901.069	19731
901.189	19578
901.308	19285
901.427	19190
901.546	19183
901.665	19168
901.784	19194
901.904	19069
902.023	18947
902.141	18791
902.26	18776
902.379	18844
902.498	18764
902.617	18681
902.735	18715
902.854	18700
902.973	18661
903.091	18437
903.21	18376
903.328	18464
903.446	18308
903.565	18136
903.683	18201
903.801	18087
903.919	18003
904.038	18159
904.156	17996
904.274	18007
904.392	18038
904.51	17885
904.627	17996
904.745	17916
904.863	17977
904.981	17809
905.098	17543
905.216	17554
905.334	17665
905.451	17585
905.569	17665
905.686	17520
905.803	17653
905.921	17356
906.038	17619
906.155	17482
906.272	17395
906.389	17349
906.506	17227
906.623	17151
906.74	17128
906.857	17010
906.974	17083
907.091	17269
907.208	17284
907.324	17136
907.441	17128
907.557	16881
907.674	16839
907.79	16782
907.907	16900
908.023	16938
908.139	16965
908.256	16866
908.372	16748
908.488	16831
908.604	16649
908.72	16554
908.836	16706
908.952	16508
909.068	16664
909.184	16767
909.3	16626
909.415	16675
909.531	16596
909.647	16394
909.762	16341
909.878	16295
909.993	16291
910.108	16295
910.224	16207
910.339	16188
910.454	16185
910.57	16188
910.685	16063
910.8	16375
910.915	16386
911.03	16124
911.145	15922
911.259	15945
911.374	15934
911.489	15846
911.604	15797
911.718	15580
911.833	15603
911.947	15614
912.062	15538
912.176	15682
912.291	15690
912.405	15679
912.519	15915
912.633	15869
912.748	15671
912.862	15656
912.976	15561
913.09	15370
913.204	15443
913.318	15393
913.431	15526
913.545	15587
913.659	15603
913.772	15370
913.886	15317
914	15207
914.113	15313
914.226	15294
914.34	15291
914.453	15089
914.566	15382
914.68	15302
914.793	15135
914.906	14994
915.019	15005
915.132	14823
915.245	14804
915.358	14895
915.47	14868
915.583	14842
915.696	14868
915.809	14963
915.921	15013
916.034	14826
916.146	14735
916.259	14743
916.371	14815
916.483	14830
916.595	14743
916.708	14701
916.82	14686
916.932	14701
917.044	14606
917.156	14697
917.268	14602
917.38	14484
917.491	14564
917.603	14556
917.715	14571
917.826	14640
917.938	14503
918.049	14389
918.161	14473
918.272	14644
918.384	14564
918.495	14511
918.606	14332
918.717	14275
918.828	14377
918.939	14408
919.05	14214
919.161	14301
919.272	14008
919.383	14130
919.494	14294
919.604	14415
919.715	14328
919.826	14259
919.936	14347
920.047	14347
920.157	14290
920.267	14522
920.378	14305
920.488	14263
920.598	14473
920.708	14560
920.818	14454
920.928	14427
921.038	14621
921.148	14583
921.258	14225
921.368	14050
921.477	14111
921.587	13936
921.697	13959
921.806	14035
921.916	13868
922.025	13715
922.134	13731
922.244	13628
922.353	13731
922.462	13590
922.571	13476
922.68	13434
922.789	13339
922.898	13312
923.007	13297
923.116	13297
923.224	13312
923.333	13213
923.442	13282
923.55	13209
923.659	13232
923.767	13240
923.876	13152
923.984	13114
924.092	13053
924.201	13118
924.309	13103
924.417	13000
924.525	12958
924.633	12985
924.741	13932
924.849	12791
924.956	12958
925.064	12779
925.172	12673
925.279	12730
925.387	12768
925.494	12783
925.602	12894
925.709	12768
925.816	12623
925.924	12642
926.031	12753
926.138	12776
926.245	12734
926.352	12631
926.459	12821
926.566	12791
926.673	12753
926.779	12506
926.886	12475
926.993	12471
927.099	12369
927.206	12247
927.312	12311
927.419	12403
927.525	12296
927.631	12281
927.737	12235
927.843	12155
927.95	12079
928.056	12167
928.162	12186
928.267	12186
928.373	12894
928.479	12197
928.585	11973
928.69	12114
928.796	12125
928.901	12049
929.007	11901
929.112	12091
929.218	12026
929.323	11904
929.428	11923
929.533	12041
929.638	11748
929.743	11794
929.848	11889
929.953	11870
930.058	11642
930.163	11581
930.267	11619
930.372	11710
930.477	11528
930.581	11756
930.685	11653
930.79	11459
930.894	11535
930.998	11474
931.103	11615
931.207	11220
931.311	11193
931.415	11010
931.519	10824
931.623	10771
