Data from test_V78500241_3037.txt Node
Date: Fri Mar 25 16:02:50 CST 2022
User: usil
Spectrometer: V785-0024
Trigger mode: 0
Integration Time (sec): 4.000000E-1
Scans to average: 1
Nonlinearity correction enabled: false
Boxcar width: 0
Storing dark spectrum: false
XAxis mode: Wavelengths
Number of Pixels in Spectrum: 1024
>>>>>Begin Spectral Data<<<<<
801.071	28885
801.214	28873
801.356	28546
801.499	28512
801.641	28470
801.783	28401
801.926	28546
802.068	28344
802.211	28360
802.353	28356
802.496	28078
802.638	28200
802.78	28162
802.923	28143
803.065	28055
803.208	28147
803.35	28265
803.492	28363
803.635	28413
803.777	28303
803.919	28421
804.061	28805
804.204	28352
804.346	28363
804.488	28306
804.63	28459
804.773	28352
804.915	28588
805.057	28500
805.199	28379
805.341	28527
805.483	28607
805.626	28565
805.768	28607
805.91	28577
806.052	28607
806.194	28516
806.336	28672
806.478	28565
806.62	28668
806.762	28706
806.904	28968
807.046	29128
807.188	28934
807.33	28987
807.472	29197
807.614	28961
807.756	29071
807.898	28923
808.04	28873
808.182	28793
808.324	28858
808.465	28942
808.607	29178
808.749	29231
808.891	29212
809.033	29425
809.174	29178
809.316	29299
809.458	29258
809.6	29193
809.741	29444
809.883	29383
810.025	29539
810.166	29627
810.308	29531
810.45	29512
810.591	29467
810.733	29334
810.875	29235
811.016	29296
811.158	29113
811.299	29383
811.441	29493
811.582	29364
811.724	29429
811.865	29395
812.007	29364
812.148	29273
812.29	29322
812.431	29512
812.573	29608
812.714	29764
812.855	29775
812.997	29870
813.138	29923
813.279	29908
813.421	29699
813.562	29726
813.703	29604
813.845	29554
813.986	29208
814.127	29124
814.268	29018
814.41	29029
814.551	29006
814.692	29212
814.833	28831
814.974	28987
815.115	28987
815.256	28930
815.397	28835
815.539	29071
815.68	28888
815.821	28774
815.962	28904
816.103	28843
816.244	28820
816.385	28679
816.526	28554
816.666	28436
816.807	28223
816.948	28462
817.089	28447
817.23	28344
817.371	28284
817.512	28318
817.653	28048
817.793	28223
817.934	28329
818.075	28390
818.216	28318
818.356	28341
818.497	28318
818.638	28010
818.778	27998
818.919	28116
819.06	28128
819.2	28379
819.341	28284
819.481	28398
819.622	28478
819.762	28752
819.903	28584
820.043	28455
820.184	28577
820.324	28561
820.465	28466
820.605	28401
820.746	28497
820.886	28356
821.026	28508
821.167	28352
821.307	28455
821.447	28531
821.588	28329
821.728	28135
821.868	27956
822.008	27831
822.149	27850
822.289	27842
822.429	27466
822.569	27485
822.709	27454
822.849	27241
822.99	27340
823.13	27180
823.27	27393
823.41	27154
823.55	27001
823.69	27154
823.83	27214
823.97	27112
824.11	27009
824.25	26777
824.389	26971
824.529	26880
824.669	26933
824.809	27112
824.949	27100
825.089	26982
825.228	27001
825.368	26819
825.508	26769
825.648	26891
825.787	26899
825.927	26944
826.067	26708
826.206	26743
826.346	27028
826.485	26975
826.625	26823
826.765	26994
826.904	26849
827.044	26701
827.183	26724
827.323	26537
827.462	26701
827.601	26758
827.741	26556
827.88	26568
828.02	26400
828.159	26606
828.298	26522
828.437	26651
828.577	26568
828.716	26735
828.855	26423
828.994	26271
829.134	26328
829.273	26221
829.412	26256
829.551	26218
829.69	26145
829.829	26298
829.968	26290
830.107	26294
830.246	26191
830.385	26225
830.524	26153
830.663	26161
830.802	26027
830.941	25734
831.08	25769
831.219	25947
831.357	26005
831.496	26130
831.635	25772
831.774	25799
831.913	25734
832.051	25734
832.19	25731
832.329	25769
832.467	25537
832.606	25521
832.744	25396
832.883	25537
833.022	25476
833.16	25525
833.299	25537
833.437	25556
833.576	25609
833.714	25548
833.852	25563
833.991	25620
834.129	25670
834.267	25632
834.406	25525
834.544	25719
834.682	25571
834.821	25582
834.959	25738
835.097	25590
835.235	25521
835.373	25556
835.511	25525
835.65	25381
835.788	25479
835.926	25400
836.064	25202
836.202	25331
836.34	25468
836.478	25453
836.615	25460
836.753	25403
836.891	25491
837.029	25552
837.167	25312
837.305	25438
837.443	25217
837.58	25179
837.718	25289
837.856	25270
837.993	25365
838.131	25228
838.269	25080
838.406	25179
838.544	25072
838.681	24954
838.819	24814
838.956	24646
839.094	24787
839.231	24787
839.369	24871
839.506	24989
839.643	24992
839.781	24719
839.918	24654
840.055	24665
840.193	24719
840.33	24608
840.467	24646
840.604	24646
840.742	24924
840.879	24486
841.016	24551
841.153	24486
841.29	24719
841.427	24658
841.564	24673
841.701	24563
841.838	24582
841.975	24486
842.112	24517
842.249	24479
842.385	24467
842.522	24601
842.659	24407
842.796	24243
842.933	24395
843.069	24403
843.206	24281
843.343	24467
843.479	24414
843.616	24338
843.752	24155
843.889	24152
844.025	24235
844.162	24152
844.298	24330
844.435	24182
844.571	23996
844.708	24194
844.844	24304
844.98	24232
845.117	24300
845.253	24144
845.389	24022
845.525	23942
845.661	23912
845.798	23843
845.934	24049
846.07	23885
846.206	23874
846.342	24045
846.478	23885
846.614	23699
846.75	23528
846.886	23387
847.022	23577
847.158	23653
847.294	23649
847.429	23547
847.565	23509
847.701	23927
847.837	23383
847.972	23322
848.108	23379
848.244	23406
848.379	23178
848.515	23239
848.65	23246
848.786	23170
848.921	23246
849.057	23223
849.192	23246
849.328	23337
849.463	23200
849.598	23159
849.734	22999
849.869	22972
850.004	22831
850.14	23010
850.275	23056
850.41	22869
850.545	23006
850.68	22957
850.815	22892
850.95	23003
851.085	23147
851.22	23090
851.355	22984
851.49	22892
851.625	22919
851.76	22927
851.895	22923
852.03	22850
852.165	22915
852.299	22976
852.434	23048
852.569	22995
852.703	22869
852.838	23094
852.973	23105
853.107	23151
853.242	22812
853.376	22812
853.511	22615
853.645	22896
853.78	22774
853.914	22847
854.048	22672
854.183	22809
854.317	22733
854.451	22972
854.585	22835
854.72	22824
854.854	22900
854.988	22611
855.122	22675
855.256	22740
855.39	22683
855.524	22805
855.658	22816
855.792	22744
855.926	22786
856.06	22854
856.194	22896
856.327	22934
856.461	22675
856.595	22763
856.729	22831
856.862	22797
856.996	22797
857.13	22835
857.263	22850
857.397	22793
857.53	22683
857.664	22850
857.797	22744
857.931	22847
858.064	22812
858.197	22759
858.331	22717
858.464	22744
858.597	22729
858.731	22820
858.864	22755
858.997	22774
859.13	22850
859.263	22668
859.396	22858
859.529	22679
859.662	22687
859.795	22710
859.928	22812
860.061	22972
860.194	23010
860.327	22793
860.46	22778
860.592	22873
860.725	22919
860.858	22881
860.99	22702
861.123	22793
861.256	22645
861.388	22778
861.521	23707
861.653	22615
861.786	22527
861.918	22615
862.05	22710
862.183	22668
862.315	22668
862.447	22725
862.58	22535
862.712	22611
862.844	22360
862.976	22554
863.108	22607
863.24	22847
863.372	22443
863.504	22535
863.636	22443
863.768	22607
863.9	22428
864.032	22519
864.164	22424
864.296	22584
864.428	22645
864.559	22508
864.691	22599
864.823	22462
864.954	22493
865.086	22303
865.217	22352
865.349	22348
865.48	22405
865.612	22432
865.743	22409
865.875	22341
866.006	22344
866.137	22295
866.269	22291
866.4	22265
866.531	22337
866.662	22162
866.793	22230
866.924	22276
867.055	22249
867.186	22291
867.317	22360
867.448	22131
867.579	22261
867.71	22272
867.841	22299
867.972	22196
868.103	22314
868.233	22238
868.364	22367
868.495	22424
868.625	22538
868.756	22649
868.886	22390
869.017	22459
869.147	22660
869.278	22687
869.408	22478
869.539	22462
869.669	22672
869.799	22626
869.929	22542
870.06	22592
870.19	22885
870.32	22877
870.45	22839
870.58	22900
870.71	22995
870.84	22961
870.97	23029
871.1	22866
871.23	23098
871.36	23136
871.489	22980
871.619	22987
871.749	23064
871.879	23083
872.008	23303
872.138	23159
872.267	23155
872.397	22976
872.526	22987
872.656	23025
872.785	22938
872.915	23189
873.044	23242
873.173	23124
873.303	23105
873.432	23204
873.561	23258
873.69	23052
873.819	23094
873.948	23109
874.077	23216
874.206	23132
874.335	23216
874.464	23402
874.593	23284
874.722	23349
874.851	23261
874.979	23372
875.108	23406
875.237	23242
875.365	23250
875.494	23425
875.623	23417
875.751	23307
875.88	23345
876.008	23501
876.136	23505
876.265	23695
876.393	23840
876.521	23843
876.65	23817
876.778	23802
876.906	23691
877.034	23687
877.162	23695
877.29	23570
877.418	23661
877.546	23687
877.674	23634
877.802	23573
877.93	23665
878.058	23615
878.185	23387
878.313	23687
878.441	23684
878.568	23493
878.696	23615
878.824	23703
878.951	23703
879.079	23863
879.206	23920
879.333	23843
879.461	23604
879.588	23798
879.715	23745
879.842	23912
879.97	23729
880.097	23604
880.224	23467
880.351	23554
880.478	23581
880.605	23334
880.732	23638
880.859	23703
880.986	23585
881.112	23452
881.239	23429
881.366	23254
881.493	23250
881.619	23079
881.746	23136
881.872	23010
881.999	23048
882.125	22980
882.252	23124
882.378	23102
882.505	23128
882.631	22934
882.757	22831
882.883	22801
883.01	22748
883.136	22755
883.262	22592
883.388	22626
883.514	22752
883.64	22828
883.766	22660
883.892	22512
884.018	22447
884.143	22790
884.269	22736
884.395	22440
884.52	22398
884.646	22318
884.772	22230
884.897	22287
885.023	22265
885.148	22447
885.274	22557
885.399	22500
885.524	22417
885.65	22322
885.775	22409
885.9	22242
886.025	22462
886.15	22481
886.275	22360
886.4	22341
886.525	22356
886.65	22185
886.775	22253
886.9	22363
887.025	22489
887.149	22257
887.274	22173
887.399	22147
887.523	22124
887.648	22059
887.773	22017
887.897	22268
888.021	22211
888.146	22002
888.27	22116
888.395	22177
888.519	22135
888.643	22196
888.767	22128
888.891	21956
889.015	21926
889.139	22025
889.263	21911
889.387	21960
889.511	22150
889.635	21983
889.759	21880
889.883	21964
890.006	21930
890.13	21949
890.254	21797
890.377	21781
890.501	21675
890.624	21507
890.748	21709
890.871	21538
890.995	21492
891.118	21348
891.241	21416
891.364	21443
891.488	21515
891.611	21542
891.734	21530
891.857	21454
891.98	21504
892.103	21428
892.226	21447
892.349	21397
892.471	21146
892.594	21321
892.717	21458
892.839	21294
892.962	21310
893.085	21549
893.207	21355
893.33	21169
893.452	21355
893.575	21332
893.697	21329
893.819	21477
893.941	21641
894.064	21351
894.186	21325
894.308	21222
894.43	21382
894.552	21462
894.674	21359
894.796	21165
894.918	21310
895.04	21294
895.161	21408
895.283	21336
895.405	21222
895.526	21287
895.648	21336
895.769	21351
895.891	21462
896.012	21382
896.134	21416
896.255	21332
896.376	21264
896.498	21298
896.619	21302
896.74	21256
896.861	21313
896.982	21629
897.103	21732
897.224	21633
897.345	21428
897.466	21458
897.587	21553
897.708	21606
897.828	21492
897.949	21545
898.07	21363
898.19	21507
898.311	21580
898.431	21557
898.552	21462
898.672	21530
898.792	21739
898.913	21507
899.033	21412
899.153	21195
899.273	21226
899.393	21207
899.513	21188
899.633	21241
899.753	21157
899.873	21207
899.993	21268
900.113	21188
900.232	21222
900.352	21013
900.472	21173
900.591	20864
900.711	21001
900.83	20963
900.95	21104
901.069	21043
901.189	20880
901.308	20667
901.427	20530
901.546	20537
901.665	20571
901.784	20514
901.904	20423
902.023	20278
902.141	20183
902.26	20081
902.379	20187
902.498	20001
902.617	20016
902.735	20180
902.854	20001
902.973	19963
903.091	19655
903.21	19811
903.328	19712
903.446	19552
903.565	19586
903.683	19567
903.801	19396
903.919	19441
904.038	19472
904.156	19171
904.274	19285
904.392	19232
904.51	19266
904.627	19179
904.745	19392
904.863	19301
904.981	19008
905.098	19012
905.216	18996
905.334	19023
905.451	18935
905.569	18954
905.686	18935
905.803	19000
905.921	18749
906.038	18859
906.155	18726
906.272	18540
906.389	18665
906.506	18433
906.623	18502
906.74	18376
906.857	18323
906.974	18311
907.091	18555
907.208	18494
907.324	18582
907.441	18254
907.557	18213
907.674	18182
907.79	18106
907.907	18049
908.023	18190
908.139	18140
908.256	18129
908.372	18038
908.488	18095
908.604	17939
908.72	17840
908.836	17901
908.952	17840
909.068	17912
909.184	18011
909.3	17843
909.415	17866
909.531	17885
909.647	17775
909.762	17501
909.878	17463
909.993	17596
910.108	17520
910.224	17520
910.339	17532
910.454	17459
910.57	17288
910.685	17189
910.8	17756
910.915	17493
911.03	17360
911.145	17212
911.259	17109
911.374	17090
911.489	17033
911.604	17094
911.718	16930
911.833	16805
911.947	16831
912.062	16706
912.176	16862
912.291	16965
912.405	16786
912.519	17048
912.633	17033
912.748	16957
912.862	16847
912.976	16778
913.09	16577
913.204	16573
913.318	16634
913.431	16824
913.545	16812
913.659	16797
913.772	16683
913.886	16413
914	16436
914.113	16462
914.226	16523
914.34	16531
914.453	16341
914.566	16618
914.68	16379
914.793	16246
914.906	16116
915.019	16044
915.132	16017
915.245	15998
915.358	15968
915.47	15975
915.583	15899
915.696	16036
915.809	16074
915.921	16112
916.034	15994
916.146	15937
916.259	15854
916.371	15972
916.483	16013
916.595	15895
916.708	15884
916.82	15838
916.932	15842
917.044	15701
917.156	15884
917.268	15584
917.38	15717
917.491	15690
917.603	15618
917.715	15633
917.826	15785
917.938	15580
918.049	15431
918.161	15603
918.272	15709
918.384	15675
918.495	15500
918.606	15424
918.717	15454
918.828	15351
918.939	15420
919.05	15310
919.161	15370
919.272	15188
919.383	15260
919.494	15431
919.604	15530
919.715	15332
919.826	15367
919.936	15279
920.047	15393
920.157	15325
920.267	15545
920.378	15378
920.488	15272
920.598	15663
920.708	15781
920.818	15481
920.928	15523
921.038	15686
921.148	15614
921.258	15344
921.368	15104
921.477	15207
921.587	15070
921.697	14994
921.806	15135
921.916	14891
922.025	14739
922.134	14750
922.244	14697
922.353	14724
922.462	14655
922.571	14556
922.68	14499
922.789	14328
922.898	14450
923.007	14374
923.116	14461
923.224	14355
923.333	14263
923.442	14199
923.55	14229
923.659	14240
923.767	14237
923.876	14081
923.984	14282
924.092	14039
924.201	14142
924.309	14115
924.417	14058
924.525	14012
924.633	14043
924.741	14861
924.849	13814
924.956	13986
925.064	13765
925.172	13712
925.279	13700
925.387	13761
925.494	13712
925.602	13852
925.709	13822
925.816	13616
925.924	13620
926.031	13685
926.138	13624
926.245	13700
926.352	13597
926.459	13738
926.566	13685
926.673	13597
926.779	13426
926.886	13460
926.993	13369
927.099	13320
927.206	13278
927.312	13168
927.419	13278
927.525	13316
927.631	13228
927.737	13145
927.843	13088
927.95	13027
928.056	13129
928.162	13126
928.267	13149
928.373	13769
928.479	13156
928.585	12859
928.69	13042
928.796	13129
928.901	12970
929.007	12837
929.112	12935
929.218	12966
929.323	12741
929.428	12795
929.533	12943
929.638	12753
929.743	12833
929.848	12772
929.953	12764
930.058	12711
930.163	12433
930.267	12437
930.372	12555
930.477	12471
930.581	12639
930.685	12555
930.79	12243
930.894	12395
930.998	12292
931.103	12445
931.207	12110
931.311	12015
931.415	11961
931.519	11699
931.623	11764
