Data from test_V78500241_3239.txt Node
Date: Fri Mar 25 16:04:14 CST 2022
User: usil
Spectrometer: V785-0024
Trigger mode: 0
Integration Time (sec): 4.000000E-1
Scans to average: 1
Nonlinearity correction enabled: false
Boxcar width: 0
Storing dark spectrum: false
XAxis mode: Wavelengths
Number of Pixels in Spectrum: 1024
>>>>>Begin Spectral Data<<<<<
801.071	28934
801.214	28995
801.356	28672
801.499	28611
801.641	28424
801.783	28493
801.926	28550
802.068	28508
802.211	28360
802.353	28360
802.496	28306
802.638	28310
802.78	28158
802.923	27972
803.065	28090
803.208	28150
803.35	28207
803.492	28276
803.635	28485
803.777	28246
803.919	28382
804.061	28839
804.204	28626
804.346	28409
804.488	28516
804.63	28295
804.773	28272
804.915	28531
805.057	28653
805.199	28367
805.341	28405
805.483	28607
805.626	28637
805.768	28538
805.91	28531
806.052	28778
806.194	28603
806.336	28801
806.478	28630
806.62	28603
806.762	28668
806.904	28816
807.046	29113
807.188	29128
807.33	29124
807.472	29208
807.614	29037
807.756	29128
807.898	28995
808.04	28938
808.182	28653
808.324	28790
808.465	29052
808.607	29227
808.749	29318
808.891	29410
809.033	29425
809.174	29395
809.316	29315
809.458	29330
809.6	29178
809.741	29459
809.883	29463
810.025	29554
810.166	29600
810.308	29509
810.45	29520
810.591	29520
810.733	29383
810.875	29383
811.016	29307
811.158	29246
811.299	29551
811.441	29512
811.582	29551
811.724	29467
811.865	29345
812.007	29398
812.148	29433
812.29	29429
812.431	29539
812.573	29691
812.714	29737
812.855	29790
812.997	30007
813.138	30239
813.279	30091
813.421	29980
813.562	29794
813.703	29729
813.845	29604
813.986	29368
814.127	29155
814.268	29094
814.41	29060
814.551	29185
814.692	29090
814.833	28949
814.974	29029
815.115	29075
815.256	28934
815.397	28942
815.539	28896
815.68	28805
815.821	28809
815.962	29064
816.103	28812
816.244	28767
816.385	28778
816.526	28717
816.666	28535
816.807	28466
816.948	28333
817.089	28550
817.23	28325
817.371	28390
817.512	28329
817.653	28398
817.793	28421
817.934	28322
818.075	28318
818.216	28436
818.356	28459
818.497	28337
818.638	28185
818.778	28109
818.919	28207
819.06	28219
819.2	28356
819.341	28314
819.481	28474
819.622	28516
819.762	28736
819.903	28744
820.043	28455
820.184	28599
820.324	28573
820.465	28615
820.605	28421
820.746	28538
820.886	28557
821.026	28451
821.167	28375
821.307	28546
821.447	28508
821.588	28257
821.728	28219
821.868	28128
822.008	27987
822.149	27884
822.289	27804
822.429	27515
822.569	27405
822.709	27557
822.849	27481
822.99	27435
823.13	27420
823.27	27252
823.41	27294
823.55	27089
823.69	27214
823.83	27344
823.97	27218
824.11	27028
824.25	27055
824.389	27176
824.529	27043
824.669	27039
824.809	27203
824.949	27032
825.089	27180
825.228	27146
825.368	26895
825.508	26929
825.648	26971
825.787	26979
825.927	27005
826.067	26864
826.206	26895
826.346	26994
826.485	27085
826.625	26933
826.765	27138
826.904	26933
827.044	26693
827.183	26815
827.323	26739
827.462	26693
827.601	26705
827.741	26560
827.88	26701
828.02	26659
828.159	26689
828.298	26663
828.437	26785
828.577	26625
828.716	26727
828.855	26560
828.994	26408
829.134	26294
829.273	26427
829.412	26396
829.551	26195
829.69	26328
829.829	26218
829.968	26332
830.107	26339
830.246	26320
830.385	26278
830.524	26252
830.663	26111
830.802	26077
830.941	25925
831.08	25921
831.219	25986
831.357	26058
831.496	26180
831.635	26054
831.774	25959
831.913	25811
832.051	25689
832.19	25616
832.329	25658
832.467	25582
832.606	25666
832.744	25472
832.883	25609
833.022	25540
833.16	25681
833.299	25670
833.437	25742
833.576	25826
833.714	25567
833.852	25776
833.991	25696
834.129	25776
834.267	25769
834.406	25677
834.544	25537
834.682	25639
834.821	25715
834.959	25788
835.097	25529
835.235	25693
835.373	25734
835.511	25681
835.65	25476
835.788	25487
835.926	25419
836.064	25339
836.202	25251
836.34	25552
836.478	25601
836.615	25518
836.753	25609
836.891	25533
837.029	25457
837.167	25377
837.305	25457
837.443	25441
837.58	25453
837.718	25472
837.856	25312
837.993	25244
838.131	25308
838.269	25145
838.406	25251
838.544	25148
838.681	25046
838.819	25034
838.956	24844
839.094	24795
839.231	24954
839.369	24867
839.506	25266
839.643	25091
839.781	24757
839.918	24726
840.055	24677
840.193	24711
840.33	24700
840.467	24741
840.604	24776
840.742	25000
840.879	24547
841.016	24658
841.153	24753
841.29	24844
841.427	24726
841.564	24574
841.701	24608
841.838	24677
841.975	24612
842.112	24585
842.249	24281
842.385	24327
842.522	24521
842.659	24585
842.796	24239
842.933	24502
843.069	24532
843.206	24464
843.343	24490
843.479	24525
843.616	24547
843.752	24384
843.889	24209
844.025	24357
844.162	24266
844.298	24334
844.435	24270
844.571	24110
844.708	24304
844.844	24414
844.98	24346
845.117	24323
845.253	24239
845.389	24045
845.525	24163
845.661	24152
845.798	24136
845.934	24087
846.07	23996
846.206	24083
846.342	24098
846.478	23840
846.614	23809
846.75	23699
846.886	23592
847.022	23786
847.158	23684
847.294	23684
847.429	23771
847.565	23691
847.701	23756
847.837	23410
847.972	23414
848.108	23657
848.244	23376
848.379	23402
848.515	23345
848.65	23235
848.786	23261
848.921	23353
849.057	23364
849.192	23421
849.328	23387
849.463	23242
849.598	23311
849.734	23162
849.869	23178
850.004	22976
850.14	23006
850.275	23212
850.41	22995
850.545	22900
850.68	22908
850.815	23060
850.95	23071
851.085	23200
851.22	23117
851.355	23109
851.49	22923
851.625	23003
851.76	22946
851.895	22991
852.03	22999
852.165	22927
852.299	23102
852.434	23067
852.569	23006
852.703	23037
852.838	23048
852.973	23083
853.107	23147
853.242	22927
853.376	22904
853.511	22778
853.645	22915
853.78	22908
853.914	22835
854.048	22889
854.183	22782
854.317	22847
854.451	23231
854.585	22805
854.72	22923
854.854	22908
854.988	22774
855.122	22908
855.256	22767
855.39	22801
855.524	22957
855.658	22938
855.792	22801
855.926	22786
856.06	22957
856.194	22968
856.327	22934
856.461	22850
856.595	22847
856.729	22877
856.862	22972
856.996	22953
857.13	22972
857.263	22984
857.397	22949
857.53	22927
857.664	22877
857.797	22892
857.931	22900
858.064	22987
858.197	22949
858.331	22801
858.464	22862
858.597	22869
858.731	22892
858.864	22831
858.997	22824
859.13	22869
859.263	22957
859.396	22923
859.529	22797
859.662	22786
859.795	22877
859.928	22923
860.061	23006
860.194	23083
860.327	22965
860.46	22896
860.592	22980
860.725	23083
860.858	23200
860.99	22934
861.123	22759
861.256	22725
861.388	22892
861.521	23509
861.653	22717
861.786	22733
861.918	22759
862.05	22748
862.183	22721
862.315	22805
862.447	22869
862.58	22828
862.712	22561
862.844	22752
862.976	22752
863.108	22656
863.24	23044
863.372	22447
863.504	22622
863.636	22622
863.768	22645
863.9	22554
864.032	22500
864.164	22550
864.296	22706
864.428	22713
864.559	22618
864.691	22573
864.823	22603
864.954	22588
865.086	22557
865.217	22470
865.349	22478
865.48	22546
865.612	22577
865.743	22611
865.875	22478
866.006	22538
866.137	22371
866.269	22413
866.4	22402
866.531	22466
866.662	22409
866.793	22455
866.924	22390
867.055	22470
867.186	22352
867.317	22390
867.448	22261
867.579	22451
867.71	22268
867.841	22188
867.972	22344
868.103	22280
868.233	22325
868.364	22390
868.495	22432
868.625	22561
868.756	22687
868.886	22474
869.017	22550
869.147	22702
869.278	22725
869.408	22691
869.539	22622
869.669	22733
869.799	22725
869.929	22786
870.06	22649
870.19	22972
870.32	22881
870.45	23064
870.58	22991
870.71	23067
870.84	23025
870.97	22999
871.1	23022
871.23	23227
871.36	23269
871.489	23098
871.619	23277
871.749	23181
871.879	23330
872.008	23410
872.138	23212
872.267	23303
872.397	23208
872.526	23159
872.656	22999
872.785	23075
872.915	23189
873.044	23303
873.173	23284
873.303	23280
873.432	23322
873.561	23277
873.69	23231
873.819	23280
873.948	23261
874.077	23189
874.206	23258
874.335	23212
874.464	23425
874.593	23452
874.722	23459
874.851	23452
874.979	23425
875.108	23539
875.237	23414
875.365	23303
875.494	23429
875.623	23512
875.751	23421
875.88	23406
876.008	23627
876.136	23630
876.265	23889
876.393	23992
876.521	23935
876.65	23889
876.778	23851
876.906	23840
877.034	23718
877.162	23802
877.29	23646
877.418	23817
877.546	23912
877.674	23707
877.802	23809
877.93	23684
878.058	23832
878.185	23627
878.313	23653
878.441	23809
878.568	23604
878.696	23752
878.824	23748
878.951	23931
879.079	24026
879.206	24167
879.333	23927
879.461	23760
879.588	23863
879.715	24083
879.842	24228
879.97	23992
880.097	23570
880.224	23577
880.351	23649
880.478	23516
880.605	23600
880.732	23589
880.859	23927
880.986	23668
881.112	23516
881.239	23482
881.366	23299
881.493	23162
881.619	23181
881.746	23204
881.872	23181
881.999	23155
882.125	23041
882.252	23208
882.378	23193
882.505	23364
882.631	23060
882.757	22828
882.883	22858
883.01	22858
883.136	22824
883.262	22637
883.388	22603
883.514	22957
883.64	22892
883.766	22649
883.892	22664
884.018	22618
884.143	22649
884.269	22839
884.395	22504
884.52	22295
884.646	22561
884.772	22371
884.897	22481
885.023	22478
885.148	22645
885.274	22569
885.399	22497
885.524	22508
885.65	22424
885.775	22493
885.9	22379
886.025	22603
886.15	22580
886.275	22310
886.4	22268
886.525	22371
886.65	22246
886.775	22386
886.9	22508
887.025	22630
887.149	22337
887.274	22276
887.399	22207
887.523	22257
887.648	22253
887.773	22147
887.897	22306
888.021	22135
888.146	22093
888.27	22230
888.395	22268
888.519	22295
888.643	22215
888.767	22162
888.891	22162
889.015	22074
889.139	22010
889.263	22044
889.387	22112
889.511	22082
889.635	22150
889.759	21949
889.883	22032
890.006	21960
890.13	22143
890.254	21907
890.377	21915
890.501	21736
890.624	21755
890.748	21816
890.871	21625
890.995	21462
891.118	21507
891.241	21466
891.364	21507
891.488	21713
891.611	21511
891.734	21538
891.857	21667
891.98	21534
892.103	21485
892.226	21595
892.349	21481
892.471	21325
892.594	21370
892.717	21348
892.839	21420
892.962	21439
893.085	21485
893.207	21515
893.33	21332
893.452	21279
893.575	21515
893.697	21420
893.819	21561
893.941	21709
894.064	21606
894.186	21252
894.308	21245
894.43	21564
894.552	21477
894.674	21519
894.796	21336
894.918	21367
895.04	21389
895.161	21492
895.283	21450
895.405	21287
895.526	21412
895.648	21443
895.769	21386
895.891	21344
896.012	21504
896.134	21466
896.255	21443
896.376	21405
896.498	21412
896.619	21367
896.74	21370
896.861	21549
896.982	21667
897.103	21857
897.224	21667
897.345	21637
897.466	21515
897.587	21698
897.708	21724
897.828	21641
897.949	21538
898.07	21393
898.19	21447
898.311	21743
898.431	21412
898.552	21549
898.672	21507
898.792	21603
898.913	21496
899.033	21481
899.153	21405
899.273	21260
899.393	21329
899.513	21351
899.633	21321
899.753	21306
899.873	21207
899.993	21443
900.113	21222
900.232	21249
900.352	21245
900.472	21058
900.591	21096
900.711	21028
900.83	21077
900.95	21199
901.069	21150
901.189	21001
901.308	20849
901.427	20606
901.546	20724
901.665	20606
901.784	20602
901.904	20480
902.023	20431
902.141	20336
902.26	20252
902.379	20221
902.498	20256
902.617	20126
902.735	20164
902.854	20115
902.973	20103
903.091	19811
903.21	19925
903.328	19708
903.446	19723
903.565	19601
903.683	19662
903.801	19514
903.919	19407
904.038	19533
904.156	19263
904.274	19350
904.392	19369
904.51	19244
904.627	19179
904.745	19438
904.863	19335
904.981	19202
905.098	18981
905.216	18951
905.334	18920
905.451	19008
905.569	18928
905.686	19076
905.803	18916
905.921	18795
906.038	18905
906.155	18795
906.272	18791
906.389	18840
906.506	18544
906.623	18563
906.74	18593
906.857	18418
906.974	18426
907.091	18593
907.208	18658
907.324	18525
907.441	18525
907.557	18388
907.674	18308
907.79	18136
907.907	18232
908.023	18251
908.139	18254
908.256	18095
908.372	18159
908.488	18216
908.604	17927
908.72	17897
908.836	17965
908.952	18045
909.068	17904
909.184	18026
909.3	17969
909.415	17935
909.531	17958
909.647	17684
909.762	17657
909.878	17585
909.993	17653
910.108	17604
910.224	17558
910.339	17600
910.454	17547
910.57	17356
910.685	17326
910.8	17665
910.915	17558
911.03	17349
911.145	17284
911.259	17334
911.374	17216
911.489	17113
911.604	17098
911.718	17029
911.833	17045
911.947	16911
912.062	16790
912.176	16995
912.291	16877
912.405	16946
912.519	17098
912.633	17121
912.748	17006
912.862	16904
912.976	16782
913.09	16660
913.204	16679
913.318	16759
913.431	16869
913.545	16812
913.659	16805
913.772	16755
913.886	16580
914	16523
914.113	16561
914.226	16546
914.34	16656
914.453	16371
914.566	16637
914.68	16421
914.793	16333
914.906	16226
915.019	16120
915.132	16139
915.245	16086
915.358	16173
915.47	16207
915.583	16169
915.696	16158
915.809	16166
915.921	16226
916.034	16131
916.146	15991
916.259	15998
916.371	16082
916.483	15987
916.595	16051
916.708	15915
916.82	16040
916.932	15941
917.044	15861
917.156	15831
917.268	15762
917.38	15778
917.491	15705
917.603	15736
917.715	15819
917.826	15869
917.938	15736
918.049	15507
918.161	15770
918.272	15861
918.384	15884
918.495	15679
918.606	15458
918.717	15477
918.828	15454
918.939	15629
919.05	15287
919.161	15492
919.272	15237
919.383	15359
919.494	15447
919.604	15671
919.715	15424
919.826	15405
919.936	15249
920.047	15610
920.157	15363
920.267	15576
920.378	15424
920.488	15454
920.598	15625
920.708	15846
920.818	15485
920.928	15576
921.038	15671
921.148	15652
921.258	15302
921.368	15211
921.477	15104
921.587	15089
921.697	14982
921.806	15127
921.916	15001
922.025	14777
922.134	14941
922.244	14640
922.353	14834
922.462	14663
922.571	14575
922.68	14431
922.789	14446
922.898	14438
923.007	14396
923.116	14469
923.224	14442
923.333	14381
923.442	14271
923.55	14259
923.659	14343
923.767	14358
923.876	14199
923.984	14210
924.092	14221
924.201	14199
924.309	14069
924.417	14161
924.525	14073
924.633	14081
924.741	14895
924.849	13864
924.956	13970
925.064	13849
925.172	13738
925.279	13719
925.387	13811
925.494	13826
925.602	13826
925.709	13856
925.816	13761
925.924	13738
926.031	13830
926.138	13685
926.245	13811
926.352	13605
926.459	13757
926.566	13807
926.673	13662
926.779	13636
926.886	13548
926.993	13369
927.099	13350
927.206	13335
927.312	13362
927.419	13499
927.525	13400
927.631	13270
927.737	13240
927.843	13194
927.95	13057
928.056	13122
928.162	13202
928.267	13190
928.373	13655
928.479	13160
928.585	12985
928.69	13023
928.796	13099
928.901	13034
929.007	12802
929.112	12920
929.218	12856
929.323	12875
929.428	12844
929.533	12970
929.638	12738
929.743	12726
929.848	12890
929.953	12722
930.058	12662
930.163	12437
930.267	12566
930.372	12635
930.477	12433
930.581	12722
930.685	12506
930.79	12315
930.894	12403
930.998	12353
931.103	12483
931.207	12159
931.311	12064
931.415	11946
931.519	11714
931.623	11748
