Data from test_V78500241_3610.txt Node
Date: Fri Mar 25 16:06:48 CST 2022
User: usil
Spectrometer: V785-0024
Trigger mode: 0
Integration Time (sec): 4.000000E-1
Scans to average: 1
Nonlinearity correction enabled: false
Boxcar width: 0
Storing dark spectrum: false
XAxis mode: Wavelengths
Number of Pixels in Spectrum: 1024
>>>>>Begin Spectral Data<<<<<
801.071	28672
801.214	28828
801.356	28542
801.499	28455
801.641	28447
801.783	28459
801.926	28538
802.068	28348
802.211	28337
802.353	28337
802.496	28207
802.638	28139
802.78	28112
802.923	28032
803.065	27960
803.208	27945
803.35	28150
803.492	28162
803.635	28337
803.777	28329
803.919	28379
804.061	28611
804.204	28398
804.346	28314
804.488	28253
804.63	28314
804.773	28306
804.915	28421
805.057	28523
805.199	28405
805.341	28421
805.483	28504
805.626	28531
805.768	28390
805.91	28672
806.052	28561
806.194	28382
806.336	28649
806.478	28523
806.62	28489
806.762	28725
806.904	28930
807.046	29056
807.188	29044
807.33	28896
807.472	29143
807.614	29025
807.756	28942
807.898	28763
808.04	28854
808.182	28809
808.324	28908
808.465	28961
808.607	29174
808.749	29220
808.891	29273
809.033	29337
809.174	29223
809.316	29189
809.458	29170
809.6	29083
809.741	29288
809.883	29288
810.025	29490
810.166	29509
810.308	29589
810.45	29448
810.591	29391
810.733	29326
810.875	29299
811.016	29136
811.158	29178
811.299	29185
811.441	29372
811.582	29391
811.724	29315
811.865	29159
812.007	29064
812.148	29151
812.29	29315
812.431	29307
812.573	29668
812.714	29718
812.855	29733
812.997	29786
813.138	29980
813.279	29882
813.421	29775
813.562	29672
813.703	29459
813.845	29493
813.986	29200
814.127	29044
814.268	28873
814.41	28987
814.551	28930
814.692	28949
814.833	28881
814.974	28987
815.115	28976
815.256	28809
815.397	28930
815.539	28873
815.68	28763
815.821	28588
815.962	28816
816.103	28748
816.244	28649
816.385	28675
816.526	28618
816.666	28394
816.807	28261
816.948	28348
817.089	28455
817.23	28322
817.371	28314
817.512	28303
817.653	28257
817.793	28185
817.934	28253
818.075	28242
818.216	28188
818.356	28154
818.497	28029
818.638	28097
818.778	27979
818.919	28059
819.06	28188
819.2	28150
819.341	28204
819.481	28344
819.622	28405
819.762	28706
819.903	28546
820.043	28284
820.184	28360
820.324	28398
820.465	28561
820.605	28360
820.746	28276
820.886	28181
821.026	28272
821.167	28497
821.307	28287
821.447	28348
821.588	28188
821.728	28101
821.868	27876
822.008	27732
822.149	27797
822.289	27778
822.429	27473
822.569	27416
822.709	27587
822.849	27252
822.99	27264
823.13	27241
823.27	27104
823.41	27051
823.55	26956
823.69	27176
823.83	27028
823.97	27005
824.11	26906
824.25	26956
824.389	26872
824.529	26937
824.669	26952
824.809	27009
824.949	26998
825.089	27036
825.228	26929
825.368	26667
825.508	26632
825.648	26918
825.787	26754
825.927	26895
826.067	26701
826.206	26663
826.346	26712
826.485	26807
826.625	26834
826.765	27024
826.904	26758
827.044	26621
827.183	26697
827.323	26674
827.462	26629
827.601	26511
827.741	26575
827.88	26655
828.02	26389
828.159	26381
828.298	26404
828.437	26541
828.577	26522
828.716	26560
828.855	26469
828.994	26225
829.134	26176
829.273	26298
829.412	26142
829.551	26237
829.69	26237
829.829	26161
829.968	26298
830.107	26290
830.246	26271
830.385	26172
830.524	26103
830.663	26024
830.802	25841
830.941	25974
831.08	25776
831.219	25925
831.357	25906
831.496	25940
831.635	25883
831.774	25712
831.913	25685
832.051	25689
832.19	25639
832.329	25586
832.467	25495
832.606	25460
832.744	25445
832.883	25518
833.022	25457
833.16	25479
833.299	25506
833.437	25487
833.576	25476
833.714	25601
833.852	25609
833.991	25514
834.129	25601
834.267	25662
834.406	25575
834.544	25632
834.682	25453
834.821	25575
834.959	25700
835.097	25525
835.235	25601
835.373	25487
835.511	25582
835.65	25430
835.788	25335
835.926	25289
836.064	25270
836.202	25247
836.34	25308
836.478	25449
836.615	25327
836.753	25445
836.891	25255
837.029	25369
837.167	25426
837.305	25343
837.443	25206
837.58	25274
837.718	25278
837.856	25316
837.993	25050
838.131	25228
838.269	25053
838.406	25061
838.544	25012
838.681	24817
838.819	24764
838.956	24612
839.094	24669
839.231	24684
839.369	24776
839.506	24989
839.643	24726
839.781	24730
839.918	24593
840.055	24574
840.193	24635
840.33	24578
840.467	24448
840.604	24517
840.742	24817
840.879	24372
841.016	24418
841.153	24433
841.29	24528
841.427	24509
841.564	24589
841.701	24601
841.838	24479
841.975	24429
842.112	24399
842.249	24384
842.385	24304
842.522	24509
842.659	24289
842.796	24277
842.933	24414
843.069	24365
843.206	24216
843.343	24262
843.479	24327
843.616	24209
843.752	24011
843.889	24041
844.025	24254
844.162	24144
844.298	24106
844.435	24053
844.571	24144
844.708	24041
844.844	24239
844.98	24148
845.117	24182
845.253	23923
845.389	23977
845.525	24011
845.661	23878
845.798	23984
845.934	23973
846.07	23908
846.206	23851
846.342	24015
846.478	23889
846.614	23714
846.75	23379
846.886	23558
847.022	23623
847.158	23531
847.294	23570
847.429	23642
847.565	23520
847.701	23752
847.837	23372
847.972	23235
848.108	23398
848.244	23250
848.379	23098
848.515	23105
848.65	23060
848.786	23185
848.921	23128
849.057	23254
849.192	23216
849.328	23250
849.463	23155
849.598	23155
849.734	23033
849.869	22957
850.004	22927
850.14	23022
850.275	22976
850.41	22892
850.545	22885
850.68	22892
850.815	23044
850.95	22927
851.085	23067
851.22	23033
851.355	22930
851.49	22892
851.625	22873
851.76	22793
851.895	22790
852.03	22881
852.165	22854
852.299	22976
852.434	22858
852.569	22904
852.703	22984
852.838	22911
852.973	23025
853.107	23022
853.242	22885
853.376	22759
853.511	22668
853.645	22710
853.78	22881
853.914	22759
854.048	22672
854.183	22797
854.317	22797
854.451	23029
854.585	22740
854.72	22740
854.854	22763
854.988	22721
855.122	22691
855.256	22512
855.39	22736
855.524	22611
855.658	22782
855.792	22828
855.926	22721
856.06	22736
856.194	22691
856.327	22748
856.461	22664
856.595	22694
856.729	22618
856.862	22782
856.996	22786
857.13	22767
857.263	22828
857.397	22782
857.53	22759
857.664	22736
857.797	22847
857.931	22816
858.064	22748
858.197	22843
858.331	22820
858.464	22729
858.597	22565
858.731	22694
858.864	22710
858.997	22778
859.13	22805
859.263	22683
859.396	22812
859.529	22812
859.662	22603
859.795	22649
859.928	22752
860.061	22968
860.194	22896
860.327	22717
860.46	22763
860.592	22869
860.725	22934
860.858	22938
860.99	22748
861.123	22683
861.256	22672
861.388	22767
861.521	23531
861.653	22573
861.786	22618
861.918	22504
862.05	22550
862.183	22596
862.315	22767
862.447	22869
862.58	22713
862.712	22440
862.844	22428
862.976	22440
863.108	22542
863.24	22915
863.372	22489
863.504	22306
863.636	22447
863.768	22405
863.9	22375
864.032	22402
864.164	22493
864.296	22470
864.428	22664
864.559	22615
864.691	22409
864.823	22443
864.954	22500
865.086	22424
865.217	22367
865.349	22238
865.48	22280
865.612	22360
865.743	22512
865.875	22379
866.006	22268
866.137	22310
866.269	22230
866.4	22272
866.531	22173
866.662	22295
866.793	22322
866.924	22200
867.055	22215
867.186	22253
867.317	22158
867.448	22090
867.579	22169
867.71	22246
867.841	22143
867.972	22253
868.103	22200
868.233	22226
868.364	22238
868.495	22363
868.625	22485
868.756	22618
868.886	22352
869.017	22497
869.147	22611
869.278	22588
869.408	22664
869.539	22512
869.669	22500
869.799	22531
869.929	22542
870.06	22550
870.19	22763
870.32	22824
870.45	22816
870.58	22828
870.71	22987
870.84	22965
870.97	22877
871.1	22949
871.23	23056
871.36	23079
871.489	23029
871.619	22946
871.749	23037
871.879	23117
872.008	23216
872.138	23079
872.267	23121
872.397	23029
872.526	22965
872.656	22911
872.785	23060
872.915	23102
873.044	23208
873.173	23143
873.303	23094
873.432	23189
873.561	23204
873.69	23212
873.819	23048
873.948	23193
874.077	23151
874.206	23056
874.335	23079
874.464	23242
874.593	23208
874.722	23296
874.851	23376
874.979	23383
875.108	23330
875.237	23273
875.365	23235
875.494	23349
875.623	23254
875.751	23364
875.88	23421
876.008	23440
876.136	23604
876.265	23684
876.393	23828
876.521	23577
876.65	23802
876.778	23790
876.906	23710
877.034	23611
877.162	23726
877.29	23600
877.418	23611
877.546	23592
877.674	23585
877.802	23691
877.93	23596
878.058	23505
878.185	23501
878.313	23570
878.441	23638
878.568	23452
878.696	23554
878.824	23642
878.951	23611
879.079	23798
879.206	23840
879.333	23847
879.461	23661
879.588	23729
879.715	23859
879.842	24076
879.97	23668
880.097	23433
880.224	23474
880.351	23516
880.478	23452
880.605	23410
880.732	23486
880.859	23718
880.986	23554
881.112	23387
881.239	23433
881.366	23318
881.493	22987
881.619	23006
881.746	23174
881.872	23010
881.999	23025
882.125	22949
882.252	22991
882.378	22946
882.505	23159
882.631	22828
882.757	22774
882.883	22873
883.01	22672
883.136	22649
883.262	22618
883.388	22535
883.514	22637
883.64	22656
883.766	22607
883.892	22523
884.018	22497
884.143	22588
884.269	22694
884.395	22421
884.52	22318
884.646	22409
884.772	22200
884.897	22284
885.023	22386
885.148	22561
885.274	22485
885.399	22409
885.524	22272
885.65	22261
885.775	22329
885.9	22257
886.025	22215
886.15	22394
886.275	22310
886.4	22246
886.525	22402
886.65	22230
886.775	22257
886.9	22474
887.025	22508
887.149	22272
887.274	22204
887.399	22124
887.523	22078
887.648	22044
887.773	22044
887.897	22029
888.021	22150
888.146	22002
888.27	22093
888.395	22204
888.519	22162
888.643	22120
888.767	22169
888.891	21994
889.015	21831
889.139	22021
889.263	21895
889.387	21998
889.511	22086
889.635	22067
889.759	21823
889.883	21781
890.006	21937
890.13	21899
890.254	21857
890.377	21876
890.501	21591
890.624	21580
890.748	21644
890.871	21549
890.995	21302
891.118	21294
891.241	21439
891.364	21428
891.488	21469
891.611	21389
891.734	21405
891.857	21485
891.98	21378
892.103	21268
892.226	21340
892.349	21401
892.471	21207
892.594	21306
892.717	21500
892.839	21272
892.962	21264
893.085	21431
893.207	21272
893.33	21036
893.452	21203
893.575	21393
893.697	21367
893.819	21424
893.941	21507
894.064	21443
894.186	21283
894.308	21138
894.43	21302
894.552	21466
894.674	21359
894.796	21237
894.918	21283
895.04	21275
895.161	21389
895.283	21321
895.405	21321
895.526	21313
895.648	21302
895.769	21298
895.891	21329
896.012	21252
896.134	21317
896.255	21268
896.376	21279
896.498	21348
896.619	21302
896.74	21260
896.861	21291
896.982	21526
897.103	21781
897.224	21526
897.345	21504
897.466	21481
897.587	21393
897.708	21606
897.828	21591
897.949	21374
898.07	21233
898.19	21405
898.311	21618
898.431	21313
898.552	21397
898.672	21431
898.792	21454
898.913	21401
899.033	21416
899.153	21298
899.273	21043
899.393	21195
899.513	21131
899.633	21184
899.753	21233
899.873	21184
899.993	21173
900.113	21169
900.232	21077
900.352	21058
900.472	21070
900.591	20914
900.711	20963
900.83	21024
900.95	21032
901.069	20971
901.189	20796
901.308	20537
901.427	20568
901.546	20560
901.665	20492
901.784	20583
901.904	20362
902.023	20301
902.141	20168
902.26	19989
902.379	20050
902.498	20115
902.617	19989
902.735	20062
902.854	19970
902.973	19940
903.091	19753
903.21	19746
903.328	19582
903.446	19586
903.565	19430
903.683	19563
903.801	19400
903.919	19453
904.038	19430
904.156	19358
904.274	19232
904.392	19259
904.51	19221
904.627	19148
904.745	19301
904.863	19232
904.981	19080
905.098	18966
905.216	18894
905.334	18924
905.451	19004
905.569	18848
905.686	18970
905.803	18798
905.921	18677
906.038	18814
906.155	18719
906.272	18597
906.389	18646
906.506	18467
906.623	18422
906.74	18486
906.857	18258
906.974	18357
907.091	18540
907.208	18601
907.324	18544
907.441	18232
907.557	18163
907.674	18201
907.79	17958
907.907	18026
908.023	18102
908.139	18034
908.256	18133
908.372	18091
908.488	17935
908.604	17817
908.72	17836
908.836	17893
908.952	17843
909.068	17802
909.184	17916
909.3	17790
909.415	17824
909.531	17695
909.647	17638
909.762	17535
909.878	17554
909.993	17535
910.108	17596
910.224	17509
910.339	17501
910.454	17387
910.57	17341
910.685	17349
910.8	17490
910.915	17509
911.03	17322
911.145	17170
911.259	17159
911.374	17052
911.489	17018
911.604	17006
911.718	16908
911.833	16885
911.947	16843
912.062	16729
912.176	16729
912.291	16809
912.405	16927
912.519	16991
912.633	17022
912.748	16889
912.862	16824
912.976	16687
913.09	16481
913.204	16634
913.318	16790
913.431	16755
913.545	16809
913.659	16672
913.772	16565
913.886	16352
914	16455
914.113	16470
914.226	16573
914.34	16493
914.453	16375
914.566	16455
914.68	16337
914.793	16253
914.906	16059
915.019	16010
915.132	15987
915.245	16032
915.358	16074
915.47	16044
915.583	15991
915.696	15979
915.809	16021
915.921	16048
916.034	15956
916.146	15903
916.259	15945
916.371	15983
916.483	15880
916.595	15888
916.708	15869
916.82	15781
916.932	15720
917.044	15682
917.156	15793
917.268	15637
917.38	15652
917.491	15656
917.603	15580
917.715	15819
917.826	15789
917.938	15610
918.049	15576
918.161	15545
918.272	15724
918.384	15774
918.495	15538
918.606	15458
918.717	15382
918.828	15412
918.939	15397
919.05	15222
919.161	15389
919.272	15176
919.383	15272
919.494	15405
919.604	15622
919.715	15458
919.826	15291
919.936	15310
920.047	15325
920.157	15412
920.267	15549
920.378	15367
920.488	15344
920.598	15473
920.708	15606
920.818	15397
920.928	15523
921.038	15690
921.148	15534
921.258	15298
921.368	15161
921.477	15055
921.587	15123
921.697	14830
921.806	15055
921.916	14868
922.025	14762
922.134	14708
922.244	14613
922.353	14727
922.462	14549
922.571	14488
922.68	14313
922.789	14366
922.898	14301
923.007	14282
923.116	14210
923.224	14374
923.333	14362
923.442	14199
923.55	14183
923.659	14176
923.767	14328
923.876	14073
923.984	14191
924.092	13967
924.201	14096
924.309	14039
924.417	14126
924.525	13982
924.633	13982
924.741	14830
924.849	13780
924.956	13875
925.064	13655
925.172	13734
925.279	13738
925.387	13784
925.494	13738
925.602	13860
925.709	13700
925.816	13609
925.924	13597
926.031	13795
926.138	13685
926.245	13677
926.352	13540
926.459	13677
926.566	13655
926.673	13594
926.779	13422
926.886	13460
926.993	13171
927.099	13228
927.206	13156
927.312	13164
927.419	13221
927.525	13228
927.631	13247
927.737	13152
927.843	13061
927.95	12840
928.056	13031
928.162	13023
928.267	13038
928.373	13658
928.479	13099
928.585	12798
928.69	13038
928.796	13019
928.901	12856
929.007	12745
929.112	12852
929.218	12772
929.323	12776
929.428	12798
929.533	12806
929.638	12604
929.743	12730
929.848	12745
929.953	12662
930.058	12475
930.163	12407
930.267	12410
930.372	12547
930.477	12376
930.581	12601
930.685	12532
930.79	12311
930.894	12216
930.998	12315
931.103	12350
931.207	11984
931.311	11885
931.415	11859
931.519	11688
931.623	11627
