Data from test_V78500241_2450.txt Node
Date: Fri Mar 25 15:58:46 CST 2022
User: usil
Spectrometer: V785-0024
Trigger mode: 0
Integration Time (sec): 4.000000E-1
Scans to average: 1
Nonlinearity correction enabled: false
Boxcar width: 0
Storing dark spectrum: false
XAxis mode: Wavelengths
Number of Pixels in Spectrum: 1024
>>>>>Begin Spectral Data<<<<<
801.071	28828
801.214	28831
801.356	28557
801.499	28675
801.641	28432
801.783	28401
801.926	28485
802.068	28405
802.211	28489
802.353	28401
802.496	28139
802.638	28192
802.78	28116
802.923	28204
803.065	28078
803.208	28036
803.35	28147
803.492	28200
803.635	28360
803.777	28166
803.919	28371
804.061	28786
804.204	28386
804.346	28417
804.488	28265
804.63	28360
804.773	28246
804.915	28519
805.057	28645
805.199	28295
805.341	28615
805.483	28557
805.626	28451
805.768	28417
805.91	28634
806.052	28691
806.194	28451
806.336	28831
806.478	28535
806.62	28500
806.762	28763
806.904	28744
807.046	29071
807.188	28961
807.33	28927
807.472	29025
807.614	28877
807.756	28999
807.898	28999
808.04	28778
808.182	28850
808.324	28869
808.465	28904
808.607	28946
808.749	29296
808.891	29353
809.033	29303
809.174	29421
809.316	29258
809.458	29277
809.6	29296
809.741	29326
809.883	29315
810.025	29592
810.166	29592
810.308	29425
810.45	29497
810.591	29406
810.733	29356
810.875	29212
811.016	29258
811.158	29212
811.299	29254
811.441	29425
811.582	29387
811.724	29204
811.865	29189
812.007	29227
812.148	29299
812.29	29303
812.431	29551
812.573	29558
812.714	29638
812.855	29885
812.997	29912
813.138	30102
813.279	29809
813.421	29783
813.562	29809
813.703	29482
813.845	29615
813.986	29231
814.127	29033
814.268	29060
814.41	28987
814.551	28946
814.692	29090
814.833	28820
814.974	28828
815.115	28976
815.256	28847
815.397	28991
815.539	28801
815.68	28717
815.821	28675
815.962	28904
816.103	28717
816.244	28588
816.385	28664
816.526	28485
816.666	28363
816.807	28303
816.948	28413
817.089	28474
817.23	28356
817.371	28333
817.512	28352
817.653	28344
817.793	28120
817.934	28238
818.075	28329
818.216	28211
818.356	28265
818.497	28219
818.638	28109
818.778	28032
818.919	27983
819.06	28112
819.2	28200
819.341	28284
819.481	28333
819.622	28538
819.762	28691
819.903	28470
820.043	28573
820.184	28401
820.324	28542
820.465	28508
820.605	28649
820.746	28363
820.886	28147
821.026	28363
821.167	28337
821.307	28333
821.447	28409
821.588	28295
821.728	28200
821.868	27949
822.008	27797
822.149	27831
822.289	27762
822.429	27648
822.569	27412
822.709	27507
822.849	27355
822.99	27313
823.13	27207
823.27	27222
823.41	27135
823.55	27032
823.69	27116
823.83	27146
823.97	26940
824.11	26918
824.25	26807
824.389	26868
824.529	27058
824.669	26883
824.809	27207
824.949	27116
825.089	26998
825.228	26990
825.368	26826
825.508	26731
825.648	26849
825.787	26899
825.927	26891
826.067	26693
826.206	26883
826.346	26918
826.485	26990
826.625	26815
826.765	26921
826.904	26857
827.044	26590
827.183	26530
827.323	26469
827.462	26503
827.601	26670
827.741	26606
827.88	26568
828.02	26427
828.159	26431
828.298	26587
828.437	26526
828.577	26503
828.716	26648
828.855	26507
828.994	26199
829.134	26221
829.273	26374
829.412	26263
829.551	26252
829.69	26130
829.829	26195
829.968	26256
830.107	26298
830.246	26317
830.385	26172
830.524	26012
830.663	25966
830.802	25875
830.941	25799
831.08	25860
831.219	25856
831.357	25909
831.496	26092
831.635	25974
831.774	25826
831.913	25772
832.051	25712
832.19	25681
832.329	25548
832.467	25548
832.606	25559
832.744	25301
832.883	25350
833.022	25525
833.16	25487
833.299	25525
833.437	25628
833.576	25582
833.714	25651
833.852	25597
833.991	25620
834.129	25578
834.267	25662
834.406	25590
834.544	25624
834.682	25590
834.821	25639
834.959	25727
835.097	25514
835.235	25651
835.373	25582
835.511	25578
835.65	25396
835.788	25396
835.926	25362
836.064	25206
836.202	25297
836.34	25430
836.478	25430
836.615	25392
836.753	25384
836.891	25521
837.029	25445
837.167	25384
837.305	25247
837.443	25202
837.58	25350
837.718	25221
837.856	25247
837.993	25114
838.131	25194
838.269	25038
838.406	25019
838.544	25057
838.681	24928
838.819	24779
838.956	24661
839.094	24692
839.231	24760
839.369	24894
839.506	25141
839.643	25015
839.781	24597
839.918	24623
840.055	24654
840.193	24654
840.33	24593
840.467	24783
840.604	24650
840.742	24749
840.879	24471
841.016	24528
841.153	24460
841.29	24757
841.427	24646
841.564	24528
841.701	24551
841.838	24559
841.975	24467
842.112	24467
842.249	24505
842.385	24262
842.522	24563
842.659	24452
842.796	24418
842.933	24350
843.069	24296
843.206	24182
843.343	24357
843.479	24304
843.616	24262
843.752	24117
843.889	24239
844.025	24209
844.162	24140
844.298	24273
844.435	24079
844.571	24057
844.708	24114
844.844	24296
844.98	24323
845.117	24133
845.253	24064
845.389	23874
845.525	24079
845.661	23904
845.798	23786
845.934	23897
846.07	23729
846.206	23802
846.342	23916
846.478	23817
846.614	23676
846.75	23589
846.886	23501
847.022	23577
847.158	23619
847.294	23649
847.429	23543
847.565	23448
847.701	23779
847.837	23318
847.972	23341
848.108	23440
848.244	23246
848.379	23140
848.515	23098
848.65	23356
848.786	23200
848.921	23174
849.057	23273
849.192	23246
849.328	23124
849.463	23155
849.598	23048
849.734	23056
849.869	23014
850.004	22999
850.14	22946
850.275	22850
850.41	22881
850.545	22923
850.68	22752
850.815	22869
850.95	22824
851.085	23060
851.22	22995
851.355	22957
851.49	22831
851.625	22923
851.76	22843
851.895	22816
852.03	22740
852.165	22843
852.299	22896
852.434	22900
852.569	22908
852.703	22831
852.838	22900
852.973	22873
853.107	23079
853.242	22797
853.376	22793
853.511	22683
853.645	22607
853.78	22790
853.914	22744
854.048	22706
854.183	22729
854.317	22630
854.451	22900
854.585	22820
854.72	22675
854.854	22797
854.988	22649
855.122	22694
855.256	22637
855.39	22656
855.524	22748
855.658	22774
855.792	22733
855.926	22702
856.06	22736
856.194	22782
856.327	22744
856.461	22717
856.595	22554
856.729	22694
856.862	22953
856.996	22793
857.13	22771
857.263	22835
857.397	22938
857.53	22702
857.664	22698
857.797	22759
857.931	22641
858.064	22702
858.197	22828
858.331	22656
858.464	22615
858.597	22713
858.731	22733
858.864	22607
858.997	22626
859.13	22710
859.263	22896
859.396	22771
859.529	22683
859.662	22683
859.795	22725
859.928	22721
860.061	22889
860.194	22946
860.327	22831
860.46	22694
860.592	22923
860.725	22915
860.858	22946
860.99	22831
861.123	22679
861.256	22683
861.388	22763
861.521	23524
861.653	22596
861.786	22459
861.918	22500
862.05	22603
862.183	22569
862.315	22649
862.447	22835
862.58	22641
862.712	22443
862.844	22500
862.976	22538
863.108	22569
863.24	22710
863.372	22348
863.504	22409
863.636	22329
863.768	22424
863.9	22379
864.032	22322
864.164	22382
864.296	22470
864.428	22565
864.559	22512
864.691	22546
864.823	22459
864.954	22417
865.086	22280
865.217	22440
865.349	22215
865.48	22291
865.612	22318
865.743	22409
865.875	22382
866.006	22242
866.137	22303
866.269	22230
866.4	22238
866.531	22181
866.662	22162
866.793	22097
866.924	22207
867.055	22154
867.186	22238
867.317	22234
867.448	22093
867.579	22219
867.71	22188
867.841	22147
867.972	22230
868.103	22188
868.233	22234
868.364	22223
868.495	22276
868.625	22402
868.756	22493
868.886	22337
869.017	22402
869.147	22569
869.278	22634
869.408	22527
869.539	22535
869.669	22500
869.799	22478
869.929	22577
870.06	22565
870.19	22820
870.32	22740
870.45	22839
870.58	22816
870.71	22949
870.84	22987
870.97	22809
871.1	22847
871.23	23014
871.36	23098
871.489	22927
871.619	22965
871.749	23025
871.879	23060
872.008	23197
872.138	23056
872.267	23064
872.397	22869
872.526	22984
872.656	22896
872.785	22873
872.915	23117
873.044	23261
873.173	23006
873.303	23025
873.432	23037
873.561	23181
873.69	23018
873.819	23014
873.948	23090
874.077	23075
874.206	23041
874.335	22984
874.464	23284
874.593	23189
874.722	23337
874.851	23280
874.979	23292
875.108	23280
875.237	23181
875.365	23079
875.494	23315
875.623	23383
875.751	23208
875.88	23242
876.008	23337
876.136	23455
876.265	23699
876.393	23920
876.521	23805
876.65	23775
876.778	23539
876.906	23722
877.034	23680
877.162	23646
877.29	23448
877.418	23687
877.546	23566
877.674	23733
877.802	23638
877.93	23619
878.058	23406
878.185	23592
878.313	23615
878.441	23642
878.568	23509
878.696	23585
878.824	23726
878.951	23695
879.079	23752
879.206	23950
879.333	23855
879.461	23695
879.588	23646
879.715	23786
879.842	23916
879.97	23680
880.097	23391
880.224	23452
880.351	23482
880.478	23501
880.605	23356
880.732	23421
880.859	23596
880.986	23455
881.112	23459
881.239	23193
881.366	23170
881.493	23189
881.619	23121
881.746	23113
881.872	23014
881.999	22976
882.125	22900
882.252	23071
882.378	22942
882.505	23075
882.631	22911
882.757	22733
882.883	22698
883.01	22694
883.136	22748
883.262	22485
883.388	22500
883.514	22660
883.64	22645
883.766	22626
883.892	22386
884.018	22523
884.143	22615
884.269	22729
884.395	22352
884.52	22306
884.646	22314
884.772	22276
884.897	22230
885.023	22504
885.148	22318
885.274	22489
885.399	22329
885.524	22246
885.65	22367
885.775	22348
885.9	22382
886.025	22409
886.15	22421
886.275	22249
886.4	22207
886.525	22246
886.65	22215
886.775	22249
886.9	22367
887.025	22440
887.149	22242
887.274	22059
887.399	21998
887.523	22013
887.648	22093
887.773	21903
887.897	22158
888.021	22048
888.146	21960
888.27	22135
888.395	22169
888.519	22086
888.643	22013
888.767	22006
888.891	21991
889.015	21793
889.139	21926
889.263	21857
889.387	21998
889.511	21926
889.635	21899
889.759	21755
889.883	21983
890.006	21926
890.13	21949
890.254	21739
890.377	21800
890.501	21720
890.624	21576
890.748	21625
890.871	21629
890.995	21329
891.118	21348
891.241	21462
891.364	21351
891.488	21488
891.611	21424
891.734	21374
891.857	21500
891.98	21549
892.103	21382
892.226	21428
892.349	21393
892.471	21127
892.594	21420
892.717	21389
892.839	21150
892.962	21272
893.085	21279
893.207	21249
893.33	21173
893.452	21317
893.575	21302
893.697	21241
893.819	21355
893.941	21549
894.064	21408
894.186	21157
894.308	21199
894.43	21306
894.552	21488
894.674	21302
894.796	21192
894.918	21233
895.04	21161
895.161	21386
895.283	21252
895.405	21127
895.526	21302
895.648	21291
895.769	21268
895.891	21310
896.012	21275
896.134	21340
896.255	21283
896.376	21298
896.498	21230
896.619	21359
896.74	21230
896.861	21283
896.982	21428
897.103	21762
897.224	21481
897.345	21564
897.466	21340
897.587	21348
897.708	21595
897.828	21496
897.949	21359
898.07	21306
898.19	21401
898.311	21515
898.431	21348
898.552	21344
898.672	21500
898.792	21435
898.913	21450
899.033	21340
899.153	21165
899.273	21104
899.393	21195
899.513	21237
899.633	21264
899.753	21154
899.873	21218
899.993	21135
900.113	21127
900.232	21138
900.352	21017
900.472	21051
900.591	20887
900.711	21058
900.83	20868
900.95	21005
901.069	20941
901.189	20735
901.308	20743
901.427	20419
901.546	20568
901.665	20602
901.784	20492
901.904	20427
902.023	20317
902.141	19947
902.26	20077
902.379	20149
902.498	20012
902.617	20020
902.735	20088
902.854	19951
902.973	19913
903.091	19784
903.21	19674
903.328	19506
903.446	19632
903.565	19533
903.683	19525
903.801	19304
903.919	19422
904.038	19491
904.156	19266
904.274	19327
904.392	19179
904.51	19175
904.627	19247
904.745	19190
904.863	19194
904.981	19046
905.098	18833
905.216	18833
905.334	18989
905.451	18867
905.569	18806
905.686	18939
905.803	18871
905.921	18635
906.038	18798
906.155	18650
906.272	18593
906.389	18620
906.506	18414
906.623	18365
906.74	18414
906.857	18342
906.974	18395
907.091	18456
907.208	18456
907.324	18426
907.441	18338
907.557	18216
907.674	18144
907.79	17897
907.907	18087
908.023	18148
908.139	18049
908.256	18053
908.372	17988
908.488	18026
908.604	17889
908.72	17824
908.836	17824
908.952	17771
909.068	17824
909.184	17897
909.3	17843
909.415	17802
909.531	17771
909.647	17490
909.762	17604
909.878	17532
909.993	17474
910.108	17528
910.224	17535
910.339	17433
910.454	17353
910.57	17467
910.685	17204
910.8	17512
910.915	17474
911.03	17326
911.145	17299
911.259	17113
911.374	17121
911.489	17155
911.604	16873
911.718	16774
911.833	16774
911.947	16782
912.062	16630
912.176	16831
912.291	16900
912.405	16885
912.519	17037
912.633	16930
912.748	16911
912.862	16725
912.976	16653
913.09	16542
913.204	16694
913.318	16588
913.431	16706
913.545	16767
913.659	16744
913.772	16615
913.886	16455
914	16451
914.113	16481
914.226	16538
914.34	16516
914.453	16367
914.566	16550
914.68	16261
914.793	16306
914.906	16067
915.019	15941
915.132	16002
915.245	16006
915.358	15934
915.47	16071
915.583	15956
915.696	16044
915.809	16097
915.921	16059
916.034	15991
916.146	15842
916.259	15865
916.371	16010
916.483	16021
916.595	15819
916.708	15838
916.82	15915
916.932	15762
917.044	15686
917.156	15724
917.268	15686
917.38	15629
917.491	15485
917.603	15603
917.715	15785
917.826	15682
917.938	15603
918.049	15447
918.161	15542
918.272	15663
918.384	15698
918.495	15580
918.606	15287
918.717	15374
918.828	15351
918.939	15393
919.05	15272
919.161	15431
919.272	15195
919.383	15233
919.494	15386
919.604	15526
919.715	15241
919.826	15279
919.936	15283
920.047	15393
920.157	15401
920.267	15496
920.378	15241
920.488	15249
920.598	15549
920.708	15633
920.818	15458
920.928	15435
921.038	15690
921.148	15587
921.258	15226
921.368	15313
921.477	15104
921.587	15036
921.697	14979
921.806	15062
921.916	14960
922.025	14804
922.134	14693
922.244	14625
922.353	14804
922.462	14514
922.571	14549
922.68	14381
922.789	14355
922.898	14343
923.007	14301
923.116	14370
923.224	14385
923.333	14263
923.442	14248
923.55	14161
923.659	14237
923.767	14240
923.876	14161
923.984	14191
924.092	14016
924.201	14153
924.309	14088
924.417	14050
924.525	13986
924.633	13944
924.741	14720
924.849	13852
924.956	13852
925.064	13738
925.172	13719
925.279	13708
925.387	13677
925.494	13681
925.602	13871
925.709	13784
925.816	13609
925.924	13556
926.031	13674
926.138	13731
926.245	13662
926.352	13499
926.459	13708
926.566	13677
926.673	13586
926.779	13502
926.886	13480
926.993	13320
927.099	13289
927.206	13206
927.312	13228
927.419	13263
927.525	13225
927.631	13247
927.737	13133
927.843	13141
927.95	12973
928.056	13088
928.162	13118
928.267	13072
928.373	13670
928.479	13114
928.585	12894
928.69	13042
928.796	12989
928.901	12958
929.007	12829
929.112	12909
929.218	12909
929.323	12696
929.428	12745
929.533	12897
929.638	12688
929.743	12662
929.848	12722
929.953	12669
930.058	12597
930.163	12418
930.267	12433
930.372	12631
930.477	12399
930.581	12604
930.685	12479
930.79	12330
930.894	12327
930.998	12220
931.103	12460
931.207	12034
931.311	12079
931.415	11901
931.519	11596
931.623	11619
