Data from test_V78500241_1614.txt Node
Date: Fri Mar 25 15:52:58 CST 2022
User: usil
Spectrometer: V785-0024
Trigger mode: 0
Integration Time (sec): 4.000000E-1
Scans to average: 1
Nonlinearity correction enabled: false
Boxcar width: 0
Storing dark spectrum: false
XAxis mode: Wavelengths
Number of Pixels in Spectrum: 1024
>>>>>Begin Spectral Data<<<<<
801.071	28436
801.214	28265
801.356	28120
801.499	27987
801.641	27899
801.783	27926
801.926	28093
802.068	27987
802.211	27838
802.353	27679
802.496	27564
802.638	27641
802.78	27587
802.923	27485
803.065	27519
803.208	27568
803.35	27443
803.492	27736
803.635	27781
803.777	27759
803.919	27720
804.061	28051
804.204	27823
804.346	27823
804.488	27686
804.63	27800
804.773	27542
804.915	27766
805.057	27987
805.199	27736
805.341	27956
805.483	27846
805.626	27945
805.768	27869
805.91	27956
806.052	28070
806.194	27953
806.336	28181
806.478	27911
806.62	27975
806.762	28093
806.904	28242
807.046	28489
807.188	28352
807.33	28280
807.472	28500
807.614	28257
807.756	28421
807.898	28382
808.04	28158
808.182	28242
808.324	28158
808.465	28322
808.607	28432
808.749	28740
808.891	28702
809.033	28729
809.174	28793
809.316	28660
809.458	28596
809.6	28481
809.741	28763
809.883	28748
810.025	28858
810.166	28858
810.308	28953
810.45	28904
810.591	28843
810.733	28569
810.875	28660
811.016	28542
811.158	28401
811.299	28698
811.441	28774
811.582	28721
811.724	28592
811.865	28584
812.007	28428
812.148	28653
812.29	28565
812.431	28710
812.573	29052
812.714	28995
812.855	28995
812.997	29200
813.138	29318
813.279	29349
813.421	29143
813.562	28900
813.703	28869
813.845	28896
813.986	28615
814.127	28344
814.268	28360
814.41	28276
814.551	28306
814.692	28162
814.833	28173
814.974	28173
815.115	28303
815.256	28173
815.397	28120
815.539	28135
815.68	28166
815.821	28162
815.962	28131
816.103	28109
816.244	27979
816.385	27869
816.526	27960
816.666	27694
816.807	27625
816.948	27804
817.089	27701
817.23	27538
817.371	27583
817.512	27641
817.653	27462
817.793	27606
817.934	27614
818.075	27644
818.216	27625
818.356	27561
818.497	27382
818.638	27252
818.778	27386
818.919	27405
819.06	27405
819.2	27268
819.341	27603
819.481	27728
819.622	27945
819.762	27895
819.903	27797
820.043	27857
820.184	27713
820.324	27682
820.465	27850
820.605	27652
820.746	27751
820.886	27488
821.026	27705
821.167	27698
821.307	27720
821.447	27705
821.588	27568
821.728	27389
821.868	27355
822.008	26998
822.149	27127
822.289	27104
822.429	27009
822.569	26838
822.709	26739
822.849	26743
822.99	26625
823.13	26583
823.27	26556
823.41	26366
823.55	26374
823.69	26366
823.83	26427
823.97	26313
824.11	26343
824.25	26142
824.389	26355
824.529	26290
824.669	26278
824.809	26332
824.949	26298
825.089	26366
825.228	26313
825.368	26267
825.508	26157
825.648	26096
825.787	26012
825.927	26218
826.067	26008
826.206	26069
826.346	26313
826.485	26176
826.625	26081
826.765	26031
826.904	26187
827.044	25894
827.183	25868
827.323	25712
827.462	25864
827.601	25852
827.741	25761
827.88	25845
828.02	25670
828.159	25913
828.298	25799
828.437	25864
828.577	25784
828.716	25868
828.855	25704
828.994	25525
829.134	25620
829.273	25400
829.412	25499
829.551	25460
829.69	25537
829.829	25563
829.968	25434
830.107	25655
830.246	25597
830.385	25495
830.524	25411
830.663	25285
830.802	25335
830.941	25091
831.08	25027
831.219	25236
831.357	25266
831.496	25293
831.635	25103
831.774	25065
831.913	25019
832.051	24859
832.19	24970
832.329	24745
832.467	24814
832.606	24890
832.744	24719
832.883	24741
833.022	24665
833.16	24760
833.299	24848
833.437	24719
833.576	24878
833.714	24787
833.852	24939
833.991	24947
834.129	24886
834.267	24928
834.406	24787
834.544	24802
834.682	24783
834.821	24802
834.959	24924
835.097	24913
835.235	24958
835.373	24798
835.511	24783
835.65	24772
835.788	24768
835.926	24426
836.064	24422
836.202	24498
836.34	24635
836.478	24867
836.615	24642
836.753	24711
836.891	24684
837.029	24825
837.167	24483
837.305	24570
837.443	24521
837.58	24540
837.718	24642
837.856	24563
837.993	24407
838.131	24395
838.269	24437
838.406	24414
838.544	24270
838.681	24155
838.819	24076
838.956	23859
839.094	23954
839.231	24011
839.369	24136
839.506	24346
839.643	24091
839.781	24022
839.918	23790
840.055	23973
840.193	24026
840.33	23828
840.467	23878
840.604	23847
840.742	24205
840.879	23745
841.016	23779
841.153	23821
841.29	23923
841.427	23939
841.564	23920
841.701	23771
841.838	23836
841.975	23741
842.112	23798
842.249	23668
842.385	23619
842.522	23931
842.659	23809
842.796	23646
842.933	23592
843.069	23764
843.206	23695
843.343	23676
843.479	23665
843.616	23726
843.752	23474
843.889	23482
844.025	23512
844.162	23379
844.298	23512
844.435	23493
844.571	23337
844.708	23573
844.844	23383
844.98	23615
845.117	23478
845.253	23303
845.389	23277
845.525	23337
845.661	23269
845.798	23075
845.934	23277
846.07	23117
846.206	23185
846.342	23269
846.478	23124
846.614	22980
846.75	22786
846.886	22679
847.022	22862
847.158	22911
847.294	22900
847.429	22828
847.565	22866
847.701	22976
847.837	22546
847.972	22622
848.108	22755
848.244	22584
848.379	22535
848.515	22421
848.65	22474
848.786	22481
848.921	22451
849.057	22592
849.192	22478
849.328	22615
849.463	22409
849.598	22329
849.734	22432
849.869	22303
850.004	22242
850.14	22318
850.275	22223
850.41	22207
850.545	22169
850.68	22154
850.815	22325
850.95	22192
851.085	22405
851.22	22325
851.355	22185
851.49	22158
851.625	22249
851.76	22291
851.895	22249
852.03	22188
852.165	22188
852.299	22291
852.434	22265
852.569	22242
852.703	22185
852.838	22322
852.973	22459
853.107	22234
853.242	22204
853.376	22082
853.511	21968
853.645	21884
853.78	22211
853.914	22051
854.048	21941
854.183	21960
854.317	22078
854.451	22234
854.585	22124
854.72	22063
854.854	22082
854.988	22070
855.122	22120
855.256	22025
855.39	22078
855.524	22223
855.658	22097
855.792	21956
855.926	22101
856.06	22242
856.194	22226
856.327	22200
856.461	22029
856.595	21987
856.729	22051
856.862	22242
856.996	21956
857.13	22139
857.263	22261
857.397	22230
857.53	22006
857.664	22101
857.797	22223
857.931	22207
858.064	22116
858.197	22169
858.331	22074
858.464	21972
858.597	21873
858.731	22070
858.864	22032
858.997	22070
859.13	22162
859.263	22025
859.396	22211
859.529	21949
859.662	22074
859.795	21915
859.928	22082
860.061	22135
860.194	22215
860.327	22109
860.46	22162
860.592	22177
860.725	22249
860.858	22162
860.99	22158
861.123	21991
861.256	21994
861.388	22150
861.521	22759
861.653	21941
861.786	21819
861.918	21865
862.05	21888
862.183	21884
862.315	21922
862.447	22078
862.58	22048
862.712	21861
862.844	21679
862.976	21865
863.108	21766
863.24	22196
863.372	21671
863.504	21922
863.636	21793
863.768	21819
863.9	21774
864.032	21751
864.164	21736
864.296	21804
864.428	21903
864.559	21797
864.691	21770
864.823	21819
864.954	21720
865.086	21614
865.217	21675
865.349	21580
865.48	21568
865.612	21709
865.743	21781
865.875	21694
866.006	21587
866.137	21557
866.269	21595
866.4	21507
866.531	21473
866.662	21538
866.793	21606
866.924	21618
867.055	21603
867.186	21500
867.317	21568
867.448	21370
867.579	21526
867.71	21458
867.841	21447
867.972	21580
868.103	21553
868.233	21614
868.364	21679
868.495	21652
868.625	21941
868.756	21850
868.886	21694
869.017	21876
869.147	21991
869.278	21857
869.408	21789
869.539	21812
869.669	21949
869.799	21861
869.929	21964
870.06	21915
870.19	22055
870.32	21994
870.45	22139
870.58	22329
870.71	22280
870.84	22322
870.97	22253
871.1	22131
871.23	22375
871.36	22360
871.489	22295
871.619	22485
871.749	22303
871.879	22424
872.008	22527
872.138	22413
872.267	22386
872.397	22363
872.526	22192
872.656	22257
872.785	22215
872.915	22329
873.044	22607
873.173	22440
873.303	22379
873.432	22451
873.561	22535
873.69	22504
873.819	22318
873.948	22436
874.077	22500
874.206	22398
874.335	22504
874.464	22672
874.593	22660
874.722	22622
874.851	22672
874.979	22706
875.108	22729
875.237	22672
875.365	22649
875.494	22744
875.623	22706
875.751	22580
875.88	22763
876.008	22847
876.136	22801
876.265	23052
876.393	23200
876.521	23079
876.65	23212
876.778	23071
876.906	23041
877.034	23010
877.162	23041
877.29	22866
877.418	23071
877.546	22942
877.674	23037
877.802	22980
877.93	22908
878.058	22991
878.185	22869
878.313	22938
878.441	23044
878.568	22809
878.696	22831
878.824	22999
878.951	23037
879.079	23155
879.206	23299
879.333	23212
879.461	23166
879.588	22980
879.715	23121
879.842	23383
879.97	23094
880.097	22831
880.224	22797
880.351	22877
880.478	22854
880.605	22622
880.732	22786
880.859	23147
880.986	22812
881.112	22885
881.239	22653
881.366	22611
881.493	22557
881.619	22405
881.746	22341
881.872	22512
881.999	22333
882.125	22367
882.252	22367
882.378	22234
882.505	22352
882.631	22169
882.757	22128
882.883	22185
883.01	22025
883.136	22101
883.262	22013
883.388	21918
883.514	22055
883.64	22173
883.766	21956
883.892	21812
884.018	21854
884.143	22002
884.269	22109
884.395	21751
884.52	21705
884.646	21633
884.772	21564
884.897	21622
885.023	21663
885.148	21785
885.274	21915
885.399	21766
885.524	21682
885.65	21618
885.775	21698
885.9	21671
886.025	21857
886.15	21755
886.275	21610
886.4	21534
886.525	21538
886.65	21591
886.775	21534
886.9	21724
887.025	21884
887.149	21644
887.274	21523
887.399	21523
887.523	21568
887.648	21382
887.773	21424
887.897	21553
888.021	21386
888.146	21412
888.27	21492
888.395	21557
888.519	21507
888.643	21416
888.767	21496
888.891	21458
889.015	21260
889.139	21462
889.263	21268
889.387	21272
889.511	21564
889.635	21351
889.759	21230
889.883	21135
890.006	21241
890.13	21401
890.254	21138
890.377	21226
890.501	21085
890.624	21047
890.748	21001
890.871	20864
890.995	20796
891.118	20712
891.241	20910
891.364	20773
891.488	20937
891.611	20872
891.734	20823
891.857	20937
891.98	20804
892.103	20910
892.226	20887
892.349	20819
892.471	20598
892.594	20693
892.717	20720
892.839	20682
892.962	20602
893.085	20746
893.207	20804
893.33	20587
893.452	20617
893.575	20845
893.697	20651
893.819	20826
893.941	20941
894.064	20807
894.186	20598
894.308	20457
894.43	20659
894.552	20853
894.674	20769
894.796	20549
894.918	20842
895.04	20777
895.161	20857
895.283	20758
895.405	20674
895.526	20644
895.648	20629
895.769	20712
895.891	20735
896.012	20769
896.134	20762
896.255	20765
896.376	20621
896.498	20773
896.619	20659
896.74	20583
896.861	20705
896.982	21036
897.103	21093
897.224	20986
897.345	20849
897.466	20960
897.587	20960
897.708	21138
897.828	20868
897.949	20826
898.07	20720
898.19	20845
898.311	20944
898.431	20918
898.552	20849
898.672	20925
898.792	20948
898.913	20952
899.033	20746
899.153	20826
899.273	20537
899.393	20632
899.513	20663
899.633	20686
899.753	20602
899.873	20545
899.993	20716
900.113	20575
900.232	20663
900.352	20473
900.472	20495
900.591	20454
900.711	20484
900.83	20355
900.95	20465
901.069	20408
901.189	20362
901.308	19970
901.427	20035
901.546	19967
901.665	20035
901.784	20024
901.904	19852
902.023	19723
902.141	19639
902.26	19594
902.379	19715
902.498	19487
902.617	19270
902.735	19521
902.854	19457
902.973	19460
903.091	19088
903.21	19221
903.328	19126
903.446	19046
903.565	19069
903.683	18924
903.801	18814
903.919	18939
904.038	18905
904.156	18802
904.274	18734
904.392	18871
904.51	18635
904.627	18669
904.745	18768
904.863	18745
904.981	18490
905.098	18437
905.216	18498
905.334	18475
905.451	18330
905.569	18407
905.686	18426
905.803	18369
905.921	18152
906.038	18315
906.155	18182
906.272	18053
906.389	18190
906.506	17916
906.623	17980
906.74	17882
906.857	17847
906.974	17828
907.091	18007
907.208	18045
907.324	17863
907.441	17794
907.557	17627
907.674	17665
907.79	17577
907.907	17722
908.023	17520
908.139	17646
908.256	17490
908.372	17539
908.488	17459
908.604	17383
908.72	17337
908.836	17337
908.952	17307
909.068	17391
909.184	17490
909.3	17345
909.415	17303
909.531	17280
909.647	17067
909.762	17037
909.878	16968
909.993	16976
910.108	16968
910.224	17006
910.339	17041
910.454	16881
910.57	16869
910.685	16622
910.8	17048
910.915	16949
911.03	16858
911.145	16668
911.259	16611
911.374	16577
911.489	16489
911.604	16577
911.718	16348
911.833	16356
911.947	16352
912.062	16166
912.176	16394
912.291	16382
912.405	16337
912.519	16527
912.633	16531
912.748	16382
912.862	16363
912.976	16219
913.09	16131
913.204	16074
913.318	16090
913.431	16234
913.545	16253
913.659	16257
913.772	16051
913.886	15949
914	15945
914.113	16063
914.226	16036
914.34	15987
914.453	15876
914.566	16063
914.68	15838
914.793	15793
914.906	15606
915.019	15610
915.132	15477
915.245	15545
915.358	15538
915.47	15595
915.583	15549
915.696	15713
915.809	15682
915.921	15717
916.034	15477
916.146	15496
916.259	15458
916.371	15504
916.483	15488
916.595	15481
916.708	15378
916.82	15401
916.932	15378
917.044	15412
917.156	15264
917.268	15294
917.38	15176
917.491	15195
917.603	15275
917.715	15192
917.826	15344
917.938	15195
918.049	15074
918.161	15112
918.272	15161
918.384	15279
918.495	15070
918.606	14933
918.717	14902
918.828	14990
918.939	15005
919.05	15028
919.161	14899
919.272	14735
919.383	14796
919.494	15001
919.604	15150
919.715	14895
919.826	14781
919.936	14880
920.047	15104
920.157	14899
920.267	15070
920.378	14914
920.488	14868
920.598	15123
920.708	15165
920.818	15055
920.928	14960
921.038	15192
921.148	15241
921.258	14804
921.368	14811
921.477	14636
921.587	14712
921.697	14530
921.806	14640
921.916	14480
922.025	14355
922.134	14263
922.244	14145
922.353	14309
922.462	14145
922.571	14202
922.68	13967
922.789	13955
922.898	13856
923.007	13856
923.116	13955
923.224	13856
923.333	13879
923.442	13818
923.55	13753
923.659	13799
923.767	13780
923.876	13651
923.984	13791
924.092	13658
924.201	13666
924.309	13624
924.417	13563
924.525	13544
924.633	13613
924.741	14530
924.849	13373
924.956	13449
925.064	13453
925.172	13259
925.279	13259
925.387	13396
925.494	13244
925.602	13449
925.709	13251
925.816	13187
925.924	13141
926.031	13324
926.138	13084
926.245	13354
926.352	13183
926.459	13282
926.566	13316
926.673	13175
926.779	13099
926.886	13012
926.993	12848
927.099	12916
927.206	12852
927.312	12783
927.419	13012
927.525	12821
927.631	12928
927.737	12749
927.843	12673
927.95	12616
928.056	12719
928.162	12749
928.267	12749
928.373	13335
928.479	12749
928.585	12460
928.69	12646
928.796	12612
928.901	12585
929.007	12327
929.112	12525
929.218	12437
929.323	12483
929.428	12353
929.533	12471
929.638	12319
929.743	12361
929.848	12338
929.953	12308
930.058	12175
930.163	12076
930.267	12022
930.372	12205
930.477	12007
930.581	12292
930.685	12171
930.79	11939
930.894	11980
930.998	11885
931.103	12030
931.207	11691
931.311	11653
931.415	11600
931.519	11383
931.623	11364
