Data from test_V78500241_2686.txt Node
Date: Fri Mar 25 16:00:24 CST 2022
User: usil
Spectrometer: V785-0024
Trigger mode: 0
Integration Time (sec): 4.000000E-1
Scans to average: 1
Nonlinearity correction enabled: false
Boxcar width: 0
Storing dark spectrum: false
XAxis mode: Wavelengths
Number of Pixels in Spectrum: 1024
>>>>>Begin Spectral Data<<<<<
801.071	28888
801.214	28793
801.356	28664
801.499	28535
801.641	28405
801.783	28436
801.926	28554
802.068	28386
802.211	28489
802.353	28360
802.496	28314
802.638	28147
802.78	28078
802.923	27968
803.065	28059
803.208	28105
803.35	28215
803.492	28261
803.635	28276
803.777	28154
803.919	28440
804.061	28755
804.204	28504
804.346	28344
804.488	28318
804.63	28443
804.773	28367
804.915	28493
805.057	28500
805.199	28398
805.341	28561
805.483	28565
805.626	28500
805.768	28653
805.91	28637
806.052	28645
806.194	28481
806.336	28782
806.478	28516
806.62	28535
806.762	28782
806.904	28824
807.046	29109
807.188	29037
807.33	29044
807.472	29178
807.614	29033
807.756	28972
807.898	28820
808.04	28805
808.182	28782
808.324	28900
808.465	28854
808.607	29136
808.749	29330
808.891	29398
809.033	29459
809.174	29410
809.316	29185
809.458	29200
809.6	29239
809.741	29387
809.883	29493
810.025	29505
810.166	29668
810.308	29558
810.45	29448
810.591	29509
810.733	29200
810.875	29185
811.016	29220
811.158	29147
811.299	29337
811.441	29391
811.582	29455
811.724	29235
811.865	29284
812.007	29235
812.148	29181
812.29	29379
812.431	29421
812.573	29646
812.714	29817
812.855	29630
812.997	29855
813.138	29954
813.279	29767
813.421	29684
813.562	29790
813.703	29585
813.845	29566
813.986	29288
814.127	29090
814.268	28930
814.41	29071
814.551	29098
814.692	29132
814.833	28847
814.974	28869
815.115	28991
815.256	28877
815.397	28831
815.539	28854
815.68	28748
815.821	28573
815.962	28828
816.103	28793
816.244	28679
816.385	28580
816.526	28588
816.666	28265
816.807	28249
816.948	28390
817.089	28371
817.23	28276
817.371	28344
817.512	28200
817.653	28200
817.793	28299
817.934	28371
818.075	28284
818.216	28348
818.356	28261
818.497	28192
818.638	28093
818.778	28013
818.919	28162
819.06	28143
819.2	28188
819.341	28424
819.481	28348
819.622	28474
819.762	28641
819.903	28603
820.043	28318
820.184	28516
820.324	28417
820.465	28462
820.605	28516
820.746	28390
820.886	28329
821.026	28428
821.167	28246
821.307	28440
821.447	28360
821.588	28223
821.728	28226
821.868	27960
822.008	27755
822.149	27823
822.289	27770
822.429	27504
822.569	27595
822.709	27511
822.849	27230
822.99	27321
823.13	27469
823.27	27351
823.41	27272
823.55	27001
823.69	27184
823.83	27062
823.97	27154
824.11	26895
824.25	26944
824.389	26952
824.529	27001
824.669	27081
824.809	27192
824.949	27108
825.089	27028
825.228	26963
825.368	26758
825.508	26918
825.648	26891
825.787	26948
825.927	26864
826.067	26826
826.206	26933
826.346	26842
826.485	26887
826.625	26845
826.765	26944
826.904	26838
827.044	26682
827.183	26590
827.323	26617
827.462	26613
827.601	26526
827.741	26507
827.88	26727
828.02	26541
828.159	26526
828.298	26724
828.437	26674
828.577	26613
828.716	26693
828.855	26552
828.994	26210
829.134	26389
829.273	26271
829.412	26328
829.551	26210
829.69	26233
829.829	26309
829.968	26412
830.107	26457
830.246	26248
830.385	26275
830.524	26233
830.663	26024
830.802	26050
830.941	25875
831.08	25921
831.219	26092
831.357	25940
831.496	26142
831.635	25906
831.774	25947
831.913	25807
832.051	25719
832.19	25639
832.329	25723
832.467	25635
832.606	25575
832.744	25594
832.883	25552
833.022	25518
833.16	25540
833.299	25460
833.437	25441
833.576	25677
833.714	25647
833.852	25670
833.991	25670
834.129	25620
834.267	25575
834.406	25693
834.544	25632
834.682	25639
834.821	25495
834.959	25677
835.097	25597
835.235	25677
835.373	25582
835.511	25624
835.65	25571
835.788	25331
835.926	25266
836.064	25251
836.202	25343
836.34	25571
836.478	25396
836.615	25232
836.753	25324
836.891	25426
837.029	25392
837.167	25320
837.305	25259
837.443	25289
837.58	25225
837.718	25274
837.856	25312
837.993	25194
838.131	25148
838.269	25168
838.406	25042
838.544	24951
838.681	24977
838.819	24760
838.956	24787
839.094	24532
839.231	24768
839.369	24909
839.506	25034
839.643	24897
839.781	24703
839.918	24631
840.055	24658
840.193	24848
840.33	24631
840.467	24639
840.604	24745
840.742	24886
840.879	24456
841.016	24475
841.153	24604
841.29	24757
841.427	24547
841.564	24642
841.701	24593
841.838	24460
841.975	24433
842.112	24623
842.249	24467
842.385	24403
842.522	24532
842.659	24437
842.796	24479
842.933	24353
843.069	24289
843.206	24213
843.343	24323
843.479	24376
843.616	24353
843.752	24182
843.889	24144
844.025	24201
844.162	24057
844.298	24174
844.435	24083
844.571	24129
844.708	24216
844.844	24365
844.98	24243
845.117	24155
845.253	24098
845.389	24060
845.525	24079
845.661	23958
845.798	23942
845.934	23813
846.07	23786
846.206	23916
846.342	24011
846.478	23813
846.614	23703
846.75	23436
846.886	23558
847.022	23600
847.158	23600
847.294	23589
847.429	23627
847.565	23596
847.701	23775
847.837	23223
847.972	23303
848.108	23433
848.244	23429
848.379	23128
848.515	23246
848.65	23223
848.786	23174
848.921	23212
849.057	23216
849.192	23250
849.328	23261
849.463	23269
849.598	23083
849.734	23022
849.869	23159
850.004	23037
850.14	22930
850.275	22919
850.41	22850
850.545	22877
850.68	22915
850.815	22957
850.95	23037
851.085	23162
851.22	23124
851.355	22946
851.49	23025
851.625	22949
851.76	22942
851.895	22869
852.03	22839
852.165	22946
852.299	23102
852.434	23006
852.569	22923
852.703	23037
852.838	22915
852.973	23113
853.107	23033
853.242	22866
853.376	22755
853.511	22519
853.645	22729
853.78	22873
853.914	22782
854.048	22713
854.183	22554
854.317	22797
854.451	22961
854.585	22816
854.72	22729
854.854	22885
854.988	22713
855.122	22850
855.256	22554
855.39	22763
855.524	22904
855.658	22672
855.792	22881
855.926	22782
856.06	22778
856.194	22896
856.327	22843
856.461	22637
856.595	22664
856.729	22721
856.862	22812
856.996	22831
857.13	22911
857.263	22755
857.397	22831
857.53	22820
857.664	22786
857.797	22721
857.931	22850
858.064	22736
858.197	22843
858.331	22698
858.464	22641
858.597	22752
858.731	22733
858.864	22812
858.997	22672
859.13	22717
859.263	22691
859.396	22835
859.529	22687
859.662	22698
859.795	22687
859.928	22713
860.061	22873
860.194	22904
860.327	22672
860.46	22862
860.592	22892
860.725	22900
860.858	22862
860.99	22771
861.123	22645
861.256	22656
861.388	22790
861.521	23459
861.653	22653
861.786	22584
861.918	22497
862.05	22596
862.183	22767
862.315	22577
862.447	22710
862.58	22675
862.712	22470
862.844	22470
862.976	22611
863.108	22538
863.24	22999
863.372	22402
863.504	22417
863.636	22424
863.768	22481
863.9	22470
864.032	22409
864.164	22371
864.296	22455
864.428	22516
864.559	22561
864.691	22481
864.823	22394
864.954	22390
865.086	22561
865.217	22371
865.349	22306
865.48	22318
865.612	22432
865.743	22398
865.875	22207
866.006	22249
866.137	22390
866.269	22405
866.4	22428
866.531	22219
866.662	22188
866.793	22238
866.924	22200
867.055	22211
867.186	22303
867.317	22173
867.448	22223
867.579	22268
867.71	22093
867.841	22200
867.972	22276
868.103	22185
868.233	22390
868.364	22299
868.495	22314
868.625	22542
868.756	22516
868.886	22481
869.017	22519
869.147	22554
869.278	22630
869.408	22546
869.539	22379
869.669	22573
869.799	22489
869.929	22630
870.06	22615
870.19	22729
870.32	22866
870.45	22729
870.58	22938
870.71	23121
870.84	22911
870.97	22889
871.1	22915
871.23	23064
871.36	22999
871.489	23075
871.619	23033
871.749	23147
871.879	23166
872.008	23216
872.138	23094
872.267	22961
872.397	22866
872.526	22911
872.656	22889
872.785	22911
872.915	23159
873.044	23174
873.173	23117
873.303	23162
873.432	23090
873.561	23181
873.69	23086
873.819	22999
873.948	23140
874.077	23079
874.206	23079
874.335	23067
874.464	23170
874.593	23398
874.722	23315
874.851	23311
874.979	23254
875.108	23284
875.237	23239
875.365	23315
875.494	23292
875.623	23360
875.751	23398
875.88	23398
876.008	23406
876.136	23554
876.265	23714
876.393	23859
876.521	23851
876.65	23817
876.778	23863
876.906	23714
877.034	23703
877.162	23623
877.29	23733
877.418	23653
877.546	23657
877.674	23516
877.802	23665
877.93	23657
878.058	23657
878.185	23539
878.313	23581
878.441	23577
878.568	23474
878.696	23562
878.824	23649
878.951	23718
879.079	23882
879.206	23923
879.333	23855
879.461	23756
879.588	23855
879.715	23840
879.842	23863
879.97	23790
880.097	23516
880.224	23539
880.351	23581
880.478	23356
880.605	23368
880.732	23455
880.859	23866
880.986	23520
881.112	23429
881.239	23379
881.366	23315
881.493	23121
881.619	22949
881.746	23132
881.872	23018
881.999	22873
882.125	22972
882.252	23113
882.378	23044
882.505	23048
882.631	22934
882.757	22869
882.883	22809
883.01	22755
883.136	22664
883.262	22691
883.388	22554
883.514	22717
883.64	22717
883.766	22500
883.892	22485
884.018	22607
884.143	22687
884.269	22717
884.395	22390
884.52	22348
884.646	22447
884.772	22284
884.897	22291
885.023	22390
885.148	22268
885.274	22504
885.399	22386
885.524	22318
885.65	22348
885.775	22417
885.9	22424
886.025	22474
886.15	22402
886.275	22291
886.4	22166
886.525	22367
886.65	22219
886.775	22196
886.9	22519
887.025	22470
887.149	22249
887.274	22139
887.399	22215
887.523	22169
887.648	22105
887.773	21975
887.897	22253
888.021	22120
888.146	21979
888.27	22120
888.395	22097
888.519	22112
888.643	22067
888.767	22246
888.891	21865
889.015	21930
889.139	21945
889.263	21907
889.387	22067
889.511	22139
889.635	22017
889.759	21915
889.883	21865
890.006	21854
890.13	21960
890.254	21812
890.377	21873
890.501	21660
890.624	21622
890.748	21709
890.871	21526
890.995	21485
891.118	21374
891.241	21283
891.364	21435
891.488	21519
891.611	21386
891.734	21412
891.857	21408
891.98	21526
892.103	21462
892.226	21405
892.349	21466
892.471	21245
892.594	21344
892.717	21370
892.839	21272
892.962	21473
893.085	21485
893.207	21325
893.33	21272
893.452	21161
893.575	21367
893.697	21249
893.819	21416
893.941	21526
894.064	21523
894.186	21355
894.308	21116
894.43	21306
894.552	21519
894.674	21332
894.796	21142
894.918	21298
895.04	21195
895.161	21279
895.283	21283
895.405	21222
895.526	21245
895.648	21207
895.769	21291
895.891	21367
896.012	21382
896.134	21298
896.255	21241
896.376	21211
896.498	21279
896.619	21401
896.74	21336
896.861	21351
896.982	21671
897.103	21637
897.224	21488
897.345	21454
897.466	21393
897.587	21450
897.708	21682
897.828	21595
897.949	21428
898.07	21351
898.19	21466
898.311	21447
898.431	21374
898.552	21538
898.672	21477
898.792	21519
898.913	21420
899.033	21492
899.153	21329
899.273	21211
899.393	21188
899.513	21161
899.633	21226
899.753	21336
899.873	21127
899.993	21310
900.113	21051
900.232	21184
900.352	21214
900.472	20967
900.591	20876
900.711	20941
900.83	20887
900.95	21020
901.069	20979
901.189	20876
901.308	20499
901.427	20579
901.546	20488
901.665	20556
901.784	20579
901.904	20438
902.023	20271
902.141	20122
902.26	20142
902.379	20111
902.498	20020
902.617	19932
902.735	20084
902.854	20020
902.973	19932
903.091	19708
903.21	19689
903.328	19750
903.446	19601
903.565	19518
903.683	19525
903.801	19320
903.919	19430
904.038	19403
904.156	19316
904.274	19308
904.392	19266
904.51	19282
904.627	19255
904.745	19358
904.863	19324
904.981	19069
905.098	18905
905.216	18890
905.334	19004
905.451	18932
905.569	18924
905.686	18993
905.803	18897
905.921	18646
906.038	18825
906.155	18738
906.272	18715
906.389	18665
906.506	18445
906.623	18448
906.74	18574
906.857	18323
906.974	18391
907.091	18460
907.208	18540
907.324	18464
907.441	18422
907.557	18277
907.674	18049
907.79	18095
907.907	18117
908.023	18197
908.139	18140
908.256	18140
908.372	17939
908.488	18030
908.604	17855
908.72	17870
908.836	17874
908.952	17904
909.068	17893
909.184	17878
909.3	17885
909.415	17821
909.531	17843
909.647	17649
909.762	17596
909.878	17478
909.993	17585
910.108	17535
910.224	17493
910.339	17528
910.454	17398
910.57	17387
910.685	17239
910.8	17516
910.915	17520
911.03	17288
911.145	17170
911.259	17033
911.374	17170
911.489	17025
911.604	16987
911.718	16786
911.833	16820
911.947	16847
912.062	16763
912.176	16972
912.291	16911
912.405	16835
912.519	17102
912.633	16953
912.748	16873
912.862	16805
912.976	16656
913.09	16489
913.204	16592
913.318	16675
913.431	16641
913.545	16752
913.659	16656
913.772	16630
913.886	16462
914	16447
914.113	16489
914.226	16497
914.34	16550
914.453	16360
914.566	16462
914.68	16333
914.793	16341
914.906	15987
915.019	16169
915.132	16021
915.245	16048
915.358	16067
915.47	15975
915.583	15998
915.696	16010
915.809	16093
915.921	16135
916.034	16002
916.146	15945
916.259	15964
916.371	16021
916.483	15941
916.595	15857
916.708	15736
916.82	15774
916.932	15785
917.044	15827
917.156	15705
917.268	15599
917.38	15644
917.491	15637
917.603	15648
917.715	15679
917.826	15720
917.938	15485
918.049	15492
918.161	15622
918.272	15812
918.384	15641
918.495	15530
918.606	15382
918.717	15294
918.828	15393
918.939	15408
919.05	15283
919.161	15382
919.272	15195
919.383	15173
919.494	15355
919.604	15572
919.715	15291
919.826	15112
919.936	15389
920.047	15412
920.157	15302
920.267	15469
920.378	15302
920.488	15283
920.598	15526
920.708	15660
920.818	15488
920.928	15370
921.038	15530
921.148	15545
921.258	15237
921.368	15089
921.477	15058
921.587	14963
921.697	14998
921.806	15074
921.916	14941
922.025	14750
922.134	14796
922.244	14674
922.353	14655
922.462	14488
922.571	14476
922.68	14396
922.789	14377
922.898	14427
923.007	14282
923.116	14320
923.224	14343
923.333	14343
923.442	14161
923.55	14111
923.659	14191
923.767	14126
923.876	14084
923.984	14088
924.092	13989
924.201	13967
924.309	14065
924.417	14012
924.525	14012
924.633	13864
924.741	14895
924.849	13769
924.956	13894
925.064	13818
925.172	13693
925.279	13624
925.387	13761
925.494	13807
925.602	13791
925.709	13685
925.816	13563
925.924	13643
926.031	13693
926.138	13655
926.245	13719
926.352	13575
926.459	13647
926.566	13719
926.673	13537
926.779	13521
926.886	13396
926.993	13282
927.099	13164
927.206	13183
927.312	13259
927.419	13247
927.525	13213
927.631	13350
927.737	13050
927.843	13057
927.95	12924
928.056	12989
928.162	13023
928.267	13038
928.373	13521
928.479	13088
928.585	12856
928.69	12996
928.796	13012
928.901	12920
929.007	12821
929.112	12894
929.218	12840
929.323	12825
929.428	12681
929.533	12875
929.638	12665
929.743	12749
929.848	12669
929.953	12658
930.058	12547
930.163	12372
930.267	12403
930.372	12555
930.477	12388
930.581	12635
930.685	12471
930.79	12243
930.894	12285
930.998	12171
931.103	12456
931.207	12049
931.311	12003
931.415	11821
931.519	11630
931.623	11589
