Data from test_V78500241_1492.txt Node
Date: Fri Mar 25 15:52:08 CST 2022
User: usil
Spectrometer: V785-0024
Trigger mode: 0
Integration Time (sec): 4.000000E-1
Scans to average: 1
Nonlinearity correction enabled: false
Boxcar width: 0
Storing dark spectrum: false
XAxis mode: Wavelengths
Number of Pixels in Spectrum: 1024
>>>>>Begin Spectral Data<<<<<
801.071	28063
801.214	27994
801.356	27846
801.499	27698
801.641	27675
801.783	27580
801.926	27637
802.068	27759
802.211	27587
802.353	27542
802.496	27298
802.638	27252
802.78	27268
802.923	27108
803.065	27176
803.208	27226
803.35	27325
803.492	27447
803.635	27542
803.777	27268
803.919	27351
804.061	27778
804.204	27534
804.346	27412
804.488	27355
804.63	27526
804.773	27519
804.915	27492
805.057	27682
805.199	27576
805.341	27591
805.483	27656
805.626	27747
805.768	27496
805.91	27686
806.052	27610
806.194	27660
806.336	27823
806.478	27629
806.62	27667
806.762	27819
806.904	27899
807.046	28169
807.188	27953
807.33	27975
807.472	28154
807.614	28124
807.756	28074
807.898	27846
808.04	27911
808.182	27907
808.324	27876
808.465	27968
808.607	28204
808.749	28398
808.891	28455
809.033	28493
809.174	28268
809.316	28333
809.458	28284
809.6	28333
809.741	28478
809.883	28489
810.025	28542
810.166	28584
810.308	28713
810.45	28565
810.591	28470
810.733	28363
810.875	28188
811.016	28192
811.158	28120
811.299	28413
811.441	28462
811.582	28493
811.724	28223
811.865	28192
812.007	28329
812.148	28306
812.29	28253
812.431	28421
812.573	28672
812.714	28733
812.855	28725
812.997	28892
813.138	29075
813.279	28854
813.421	28862
813.562	28809
813.703	28596
813.845	28546
813.986	28249
814.127	28147
814.268	27979
814.41	27987
814.551	27937
814.692	28063
814.833	27949
814.974	27994
815.115	28070
815.256	27956
815.397	27812
815.539	27941
815.68	27804
815.821	27549
815.962	27686
816.103	27827
816.244	27709
816.385	27641
816.526	27610
816.666	27496
816.807	27291
816.948	27378
817.089	27481
817.23	27401
817.371	27332
817.512	27298
817.653	27195
817.793	27279
817.934	27157
818.075	27386
818.216	27306
818.356	27264
818.497	27199
818.638	26864
818.778	27077
818.919	27039
819.06	27051
819.2	27199
819.341	27268
819.481	27427
819.622	27473
819.762	27648
819.903	27473
820.043	27405
820.184	27485
820.324	27317
820.465	27500
820.605	27427
820.746	27469
820.886	27378
821.026	27435
821.167	27492
821.307	27359
821.447	27447
821.588	27176
821.728	27104
821.868	26971
822.008	26845
822.149	26895
822.289	26674
822.429	26522
822.569	26396
822.709	26526
822.849	26290
822.99	26320
823.13	26256
823.27	26233
823.41	26126
823.55	25974
823.69	26294
823.83	26077
823.97	26092
824.11	25868
824.25	25868
824.389	25765
824.529	25982
824.669	25860
824.809	26107
824.949	26058
825.089	25925
825.228	26016
825.368	25803
825.508	25734
825.648	25841
825.787	25753
825.927	25841
826.067	25765
826.206	25803
826.346	25826
826.485	25818
826.625	25803
826.765	25849
826.904	25902
827.044	25651
827.183	25605
827.323	25525
827.462	25635
827.601	25582
827.741	25601
827.88	25411
828.02	25552
828.159	25510
828.298	25396
828.437	25483
828.577	25365
828.716	25643
828.855	25388
828.994	25187
829.134	25232
829.273	25213
829.412	25244
829.551	25122
829.69	25209
829.829	25282
829.968	25312
830.107	25293
830.246	25251
830.385	25137
830.524	25122
830.663	25148
830.802	24760
830.941	24810
831.08	24791
831.219	24810
831.357	24863
831.496	25053
831.635	24768
831.774	24738
831.913	24707
832.051	24741
832.19	24650
832.329	24639
832.467	24547
832.606	24319
832.744	24388
832.883	24490
833.022	24494
833.16	24559
833.299	24559
833.437	24608
833.576	24620
833.714	24532
833.852	24593
833.991	24650
834.129	24764
834.267	24627
834.406	24646
834.544	24604
834.682	24566
834.821	24490
834.959	24665
835.097	24513
835.235	24612
835.373	24578
835.511	24509
835.65	24384
835.788	24399
835.926	24304
836.064	24224
836.202	24232
836.34	24334
836.478	24437
836.615	24376
836.753	24330
836.891	24521
837.029	24483
837.167	24407
837.305	24365
837.443	24277
837.58	24197
837.718	24251
837.856	24247
837.993	24148
838.131	24190
838.269	24125
838.406	23996
838.544	24011
838.681	23882
838.819	23920
838.956	23752
839.094	23627
839.231	23714
839.369	23824
839.506	24114
839.643	24007
839.781	23794
839.918	23505
840.055	23726
840.193	23687
840.33	23680
840.467	23642
840.604	23729
840.742	23878
840.879	23448
841.016	23531
841.153	23585
841.29	23691
841.427	23649
841.564	23627
841.701	23531
841.838	23543
841.975	23562
842.112	23634
842.249	23402
842.385	23410
842.522	23668
842.659	23398
842.796	23376
842.933	23395
843.069	23261
843.206	23280
843.343	23429
843.479	23387
843.616	23372
843.752	23235
843.889	23216
844.025	23258
844.162	23117
844.298	23083
844.435	23174
844.571	23113
844.708	23064
844.844	23364
844.98	23376
845.117	23277
845.253	23041
845.389	23086
845.525	22995
845.661	22896
845.798	22953
845.934	22771
846.07	22889
846.206	22877
846.342	22987
846.478	22938
846.614	22622
846.75	22603
846.886	22675
847.022	22755
847.158	22542
847.294	22634
847.429	22694
847.565	22516
847.701	22744
847.837	22280
847.972	22314
848.108	22443
848.244	22504
848.379	22276
848.515	22154
848.65	22314
848.786	22185
848.921	22131
849.057	22207
849.192	22314
849.328	22284
849.463	22147
849.598	22139
849.734	22177
849.869	22090
850.004	21956
850.14	21869
850.275	21903
850.41	21915
850.545	21800
850.68	21994
850.815	21949
850.95	21827
851.085	22147
851.22	22006
851.355	22093
851.49	22078
851.625	21869
851.76	21953
851.895	21827
852.03	21846
852.165	22006
852.299	21991
852.434	21979
852.569	22044
852.703	21854
852.838	22097
852.973	22177
853.107	22101
853.242	21953
853.376	21770
853.511	21724
853.645	21717
853.78	21899
853.914	21797
854.048	21850
854.183	21755
854.317	21785
854.451	21941
854.585	21884
854.72	21823
854.854	21808
854.988	21663
855.122	21869
855.256	21641
855.39	21698
855.524	21876
855.658	21747
855.792	21762
855.926	21789
856.06	21785
856.194	21793
856.327	21789
856.461	21705
856.595	21739
856.729	21766
856.862	21911
856.996	21781
857.13	21781
857.263	21861
857.397	21785
857.53	21717
857.664	21781
857.797	21774
857.931	21869
858.064	21823
858.197	21918
858.331	21819
858.464	21705
858.597	21622
858.731	21606
858.864	21759
858.997	21732
859.13	21797
859.263	21793
859.396	21800
859.529	21808
859.662	21599
859.795	21694
859.928	21778
860.061	21975
860.194	22036
860.327	21865
860.46	21800
860.592	21884
860.725	21846
860.858	21949
860.99	21713
861.123	21835
861.256	21835
861.388	21831
861.521	22424
861.653	21606
861.786	21545
861.918	21660
862.05	21614
862.183	21728
862.315	21751
862.447	21637
862.58	21629
862.712	21511
862.844	21576
862.976	21523
863.108	21553
863.24	21998
863.372	21412
863.504	21538
863.636	21523
863.768	21595
863.9	21511
864.032	21401
864.164	21268
864.296	21458
864.428	21511
864.559	21568
864.691	21507
864.823	21469
864.954	21488
865.086	21378
865.217	21393
865.349	21359
865.48	21389
865.612	21466
865.743	21587
865.875	21420
866.006	21325
866.137	21389
866.269	21450
866.4	21420
866.531	21340
866.662	21264
866.793	21294
866.924	21283
867.055	21310
867.186	21389
867.317	21245
867.448	21169
867.579	21363
867.71	21279
867.841	21260
867.972	21329
868.103	21199
868.233	21317
868.364	21230
868.495	21363
868.625	21477
868.756	21667
868.886	21496
869.017	21530
869.147	21652
869.278	21713
869.408	21625
869.539	21542
869.669	21648
869.799	21576
869.929	21739
870.06	21648
870.19	21831
870.32	21766
870.45	21934
870.58	21823
870.71	21983
870.84	22112
870.97	21968
871.1	21949
871.23	22070
871.36	22135
871.489	22082
871.619	22188
871.749	22120
871.879	22162
872.008	22261
872.138	22188
872.267	22219
872.397	22006
872.526	21895
872.656	21937
872.785	21930
872.915	22150
873.044	22169
873.173	22207
873.303	22131
873.432	22238
873.561	22291
873.69	22185
873.819	22154
873.948	22143
874.077	22246
874.206	22131
874.335	22059
874.464	22341
874.593	22379
874.722	22440
874.851	22443
874.979	22428
875.108	22497
875.237	22219
875.365	22253
875.494	22371
875.623	22322
875.751	22314
875.88	22474
876.008	22474
876.136	22653
876.265	22683
876.393	22793
876.521	22915
876.65	22809
876.778	22881
876.906	22721
877.034	22694
877.162	22748
877.29	22634
877.418	22729
877.546	22805
877.674	22744
877.802	22683
877.93	22691
878.058	22675
878.185	22630
878.313	22683
878.441	22771
878.568	22611
878.696	22672
878.824	22679
878.951	22854
879.079	22839
879.206	22957
879.333	22869
879.461	22683
879.588	22862
879.715	22968
879.842	23048
879.97	22828
880.097	22508
880.224	22531
880.351	22516
880.478	22596
880.605	22527
880.732	22641
880.859	22862
880.986	22565
881.112	22485
881.239	22333
881.366	22352
881.493	22230
881.619	22082
881.746	22063
881.872	22017
881.999	21895
882.125	22055
882.252	22139
882.378	22067
882.505	22112
882.631	21918
882.757	21972
882.883	21895
883.01	21743
883.136	21778
883.262	21728
883.388	21648
883.514	21869
883.64	21991
883.766	21682
883.892	21561
884.018	21652
884.143	21736
884.269	21857
884.395	21511
884.52	21355
884.646	21466
884.772	21405
884.897	21279
885.023	21485
885.148	21564
885.274	21564
885.399	21583
885.524	21378
885.65	21492
885.775	21481
885.9	21481
886.025	21671
886.15	21561
886.275	21561
886.4	21424
886.525	21355
886.65	21211
886.775	21302
886.9	21591
887.025	21641
887.149	21389
887.274	21279
887.399	21245
887.523	21184
887.648	21112
887.773	21199
887.897	21355
888.021	21138
888.146	21222
888.27	21332
888.395	21294
888.519	21226
888.643	21233
888.767	21344
888.891	21230
889.015	20921
889.139	21062
889.263	20960
889.387	21104
889.511	21245
889.635	21108
889.759	20918
889.883	20925
890.006	21131
890.13	21165
890.254	21058
890.377	20887
890.501	20788
890.624	20724
890.748	20895
890.871	20674
890.995	20598
891.118	20442
891.241	20480
891.364	20568
891.488	20590
891.611	20598
891.734	20632
891.857	20587
891.98	20708
892.103	20575
892.226	20568
892.349	20541
892.471	20275
892.594	20507
892.717	20476
892.839	20465
892.962	20434
893.085	20484
893.207	20507
893.33	20351
893.452	20480
893.575	20473
893.697	20374
893.819	20659
893.941	20659
894.064	20708
894.186	20431
894.308	20336
894.43	20511
894.552	20545
894.674	20488
894.796	20374
894.918	20389
895.04	20446
895.161	20526
895.283	20598
895.405	20336
895.526	20438
895.648	20412
895.769	20381
895.891	20537
896.012	20545
896.134	20632
896.255	20473
896.376	20374
896.498	20465
896.619	20503
896.74	20404
896.861	20503
896.982	20689
897.103	20979
897.224	20849
897.345	20636
897.466	20545
897.587	20697
897.708	20868
897.828	20758
897.949	20670
898.07	20499
898.19	20564
898.311	20708
898.431	20564
898.552	20648
898.672	20716
898.792	20849
898.913	20701
899.033	20564
899.153	20480
899.273	20237
899.393	20442
899.513	20503
899.633	20564
899.753	20404
899.873	20271
899.993	20347
900.113	20320
900.232	20393
900.352	20206
900.472	20313
900.591	20259
900.711	20157
900.83	20149
900.95	20309
901.069	20377
901.189	20119
901.308	19826
901.427	19677
901.546	19814
901.665	19852
901.784	19791
901.904	19666
902.023	19594
902.141	19415
902.26	19430
902.379	19396
902.498	19259
902.617	19301
902.735	19266
902.854	19419
902.973	19194
903.091	18909
903.21	19004
903.328	19000
903.446	18833
903.565	18779
903.683	18745
903.801	18536
903.919	18703
904.038	18715
904.156	18566
904.274	18528
904.392	18448
904.51	18555
904.627	18547
904.745	18589
904.863	18532
904.981	18357
905.098	18190
905.216	18254
905.334	18235
905.451	18243
905.569	18136
905.686	18315
905.803	18213
905.921	17889
906.038	18110
906.155	18049
906.272	17885
906.389	17870
906.506	17786
906.623	17668
906.74	17790
906.857	17592
906.974	17642
907.091	17817
907.208	17779
907.324	17657
907.441	17657
907.557	17509
907.674	17463
907.79	17436
907.907	17353
908.023	17261
908.139	17448
908.256	17414
908.372	17326
908.488	17402
908.604	17265
908.72	17143
908.836	17178
908.952	17143
909.068	17083
909.184	17273
909.3	17216
909.415	17170
909.531	17067
909.647	16862
909.762	16835
909.878	16782
909.993	16858
910.108	16862
910.224	16793
910.339	16797
910.454	16679
910.57	16679
910.685	16538
910.8	16828
910.915	16778
911.03	16554
911.145	16402
911.259	16379
911.374	16508
911.489	16314
911.604	16325
911.718	16192
911.833	16124
911.947	16105
912.062	15987
912.176	16173
912.291	16246
912.405	16169
912.519	16432
912.633	16386
912.748	16219
912.862	16158
912.976	16086
913.09	15873
913.204	15983
913.318	15991
913.431	16219
913.545	16067
913.659	16135
913.772	15994
913.886	15823
914	15766
914.113	15800
914.226	15895
914.34	15915
914.453	15705
914.566	15831
914.68	15755
914.793	15698
914.906	15488
915.019	15500
915.132	15344
915.245	15294
915.358	15424
915.47	15325
915.583	15389
915.696	15405
915.809	15557
915.921	15466
916.034	15245
916.146	15321
916.259	15310
916.371	15359
916.483	15302
916.595	15268
916.708	15138
916.82	15173
916.932	15211
917.044	15230
917.156	15146
917.268	15104
917.38	15036
917.491	15001
917.603	14963
917.715	15055
917.826	15123
917.938	14944
918.049	14857
918.161	14895
918.272	15005
918.384	15066
918.495	15017
918.606	14838
918.717	14826
918.828	14807
918.939	14708
919.05	14613
919.161	14724
919.272	14484
919.383	14705
919.494	14819
919.604	14990
919.715	14781
919.826	14632
919.936	14724
920.047	14849
920.157	14754
920.267	14952
920.378	14708
920.488	14708
920.598	14838
920.708	14990
920.818	14830
920.928	14811
921.038	15017
921.148	15009
921.258	14678
921.368	14697
921.477	14568
921.587	14473
921.697	14408
921.806	14434
921.916	14347
922.025	14123
922.134	14130
922.244	14172
922.353	14149
922.462	13974
922.571	13959
922.68	13856
922.789	13738
922.898	13674
923.007	13719
923.116	13719
923.224	13715
923.333	13769
923.442	13613
923.55	13506
923.659	13613
923.767	13632
923.876	13514
923.984	13571
924.092	13533
924.201	13537
924.309	13499
924.417	13457
924.525	13441
924.633	13438
924.741	14339
924.849	13232
924.956	13396
925.064	13179
925.172	13061
925.279	13114
925.387	13133
925.494	13164
925.602	13202
925.709	13206
925.816	13095
925.924	13069
926.031	13187
926.138	13095
926.245	13050
926.352	13072
926.459	13164
926.566	13213
926.673	13126
926.779	12897
926.886	12951
926.993	12760
927.099	12700
927.206	12726
927.312	12616
927.419	12779
927.525	12783
927.631	12688
927.737	12635
927.843	12593
927.95	12479
928.056	12601
928.162	12570
928.267	12536
928.373	13194
928.479	12589
928.585	12372
928.69	12467
928.796	12555
928.901	12334
929.007	12289
929.112	12414
929.218	12369
929.323	12285
929.428	12289
929.533	12380
929.638	12171
929.743	12266
929.848	12216
929.953	12273
930.058	12175
930.163	11843
930.267	11977
930.372	12102
930.477	11882
930.581	12144
930.685	12030
930.79	11931
930.894	11859
930.998	11783
931.103	11939
931.207	11589
931.311	11570
931.415	11421
931.519	11193
931.623	11189
