Data from test_V78500241_2946.txt Node
Date: Fri Mar 25 16:02:12 CST 2022
User: usil
Spectrometer: V785-0024
Trigger mode: 0
Integration Time (sec): 4.000000E-1
Scans to average: 1
Nonlinearity correction enabled: false
Boxcar width: 0
Storing dark spectrum: false
XAxis mode: Wavelengths
Number of Pixels in Spectrum: 1024
>>>>>Begin Spectral Data<<<<<
801.071	28774
801.214	28710
801.356	28447
801.499	28451
801.641	28398
801.783	28268
801.926	28405
802.068	28382
802.211	28242
802.353	28299
802.496	28101
802.638	28040
802.78	27926
802.923	28029
803.065	27979
803.208	27960
803.35	28059
803.492	28090
803.635	28230
803.777	28040
803.919	28257
804.061	28569
804.204	28234
804.346	28303
804.488	28188
804.63	28268
804.773	28131
804.915	28363
805.057	28303
805.199	28348
805.341	28417
805.483	28440
805.626	28413
805.768	28310
805.91	28504
806.052	28584
806.194	28249
806.336	28679
806.478	28466
806.62	28504
806.762	28649
806.904	28672
807.046	28831
807.188	28786
807.33	28839
807.472	28888
807.614	28752
807.756	28873
807.898	28649
808.04	28694
808.182	28641
808.324	28679
808.465	28706
808.607	28957
808.749	29246
808.891	29044
809.033	29239
809.174	29280
809.316	29052
809.458	29022
809.6	29086
809.741	29265
809.883	29269
810.025	29474
810.166	29368
810.308	29364
810.45	29231
810.591	29246
810.733	29071
810.875	29124
811.016	29235
811.158	29018
811.299	29185
811.441	29250
811.582	29140
811.724	29124
811.865	29181
812.007	29071
812.148	29204
812.29	29193
812.431	29414
812.573	29627
812.714	29657
812.855	29657
812.997	29790
813.138	29862
813.279	29737
813.421	29596
813.562	29608
813.703	29303
813.845	29254
813.986	29151
814.127	29010
814.268	28892
814.41	28843
814.551	28904
814.692	28980
814.833	28801
814.974	28702
815.115	28831
815.256	28653
815.397	28698
815.539	28694
815.68	28687
815.821	28565
815.962	28812
816.103	28725
816.244	28550
816.385	28466
816.526	28462
816.666	28246
816.807	28093
816.948	28371
817.089	28367
817.23	28124
817.371	28131
817.512	28154
817.653	28025
817.793	28013
817.934	28093
818.075	28112
818.216	28124
818.356	28078
818.497	28173
818.638	27964
818.778	28051
818.919	27937
819.06	27991
819.2	27953
819.341	28086
819.481	28284
819.622	28280
819.762	28634
819.903	28329
820.043	28276
820.184	28367
820.324	28272
820.465	28318
820.605	28295
820.746	28257
820.886	27994
821.026	28196
821.167	28166
821.307	28405
821.447	28192
821.588	28029
821.728	27888
821.868	27770
822.008	27736
822.149	27618
822.289	27557
822.429	27462
822.569	27252
822.709	27279
822.849	27142
822.99	27154
823.13	27047
823.27	27123
823.41	27039
823.55	26948
823.69	27135
823.83	27032
823.97	26902
824.11	26792
824.25	26769
824.389	26800
824.529	26933
824.669	26845
824.809	27032
824.949	26933
825.089	26834
825.228	27020
825.368	26632
825.508	26815
825.648	26720
825.787	26826
825.927	26845
826.067	26636
826.206	26701
826.346	26864
826.485	26849
826.625	26758
826.765	26861
826.904	26693
827.044	26495
827.183	26480
827.323	26564
827.462	26533
827.601	26438
827.741	26336
827.88	26450
828.02	26332
828.159	26393
828.298	26492
828.437	26602
828.577	26377
828.716	26438
828.855	26259
828.994	26122
829.134	26111
829.273	26172
829.412	26153
829.551	26012
829.69	26145
829.829	26157
829.968	26214
830.107	26092
830.246	26172
830.385	25986
830.524	26145
830.663	25993
830.802	25811
830.941	25719
831.08	25734
831.219	25784
831.357	25734
831.496	25852
831.635	25662
831.774	25647
831.913	25521
832.051	25518
832.19	25468
832.329	25533
832.467	25499
832.606	25335
832.744	25259
832.883	25445
833.022	25324
833.16	25388
833.299	25476
833.437	25464
833.576	25411
833.714	25495
833.852	25377
833.991	25518
834.129	25575
834.267	25613
834.406	25533
834.544	25521
834.682	25533
834.821	25327
834.959	25464
835.097	25343
835.235	25472
835.373	25544
835.511	25479
835.65	25415
835.788	25270
835.926	25156
836.064	25008
836.202	25190
836.34	25430
836.478	25419
836.615	25373
836.753	25354
836.891	25316
837.029	25266
837.167	25251
837.305	25095
837.443	25126
837.58	25057
837.718	25259
837.856	25110
837.993	25103
838.131	25069
838.269	24970
838.406	24992
838.544	25000
838.681	24817
838.819	24711
838.956	24642
839.094	24566
839.231	24665
839.369	24684
839.506	24932
839.643	24875
839.781	24528
839.918	24471
840.055	24665
840.193	24513
840.33	24399
840.467	24532
840.604	24490
840.742	24795
840.879	24357
841.016	24251
841.153	24460
841.29	24665
841.427	24517
841.564	24593
841.701	24509
841.838	24418
841.975	24281
842.112	24334
842.249	24445
842.385	24155
842.522	24369
842.659	24300
842.796	24220
842.933	24243
843.069	24194
843.206	24125
843.343	24133
843.479	24133
843.616	24281
843.752	23931
843.889	24068
844.025	24038
844.162	24011
844.298	24003
844.435	23999
844.571	24072
844.708	24034
844.844	24209
844.98	24182
845.117	24224
845.253	23988
845.389	23908
845.525	23863
845.661	23885
845.798	23642
845.934	23657
846.07	23710
846.206	23748
846.342	23809
846.478	23642
846.614	23528
846.75	23429
846.886	23474
847.022	23531
847.158	23634
847.294	23452
847.429	23463
847.565	23387
847.701	23680
847.837	23083
847.972	23140
848.108	23231
848.244	23254
848.379	23143
848.515	23029
848.65	23071
848.786	23029
848.921	23056
849.057	23037
849.192	23083
849.328	23121
849.463	22946
849.598	22949
849.734	22980
849.869	22881
850.004	22904
850.14	22790
850.275	22900
850.41	22717
850.545	22702
850.68	22771
850.815	22786
850.95	22771
851.085	22999
851.22	22949
851.355	22862
851.49	22687
851.625	22763
851.76	22892
851.895	22805
852.03	22675
852.165	22706
852.299	22976
852.434	22934
852.569	22869
852.703	22702
852.838	22816
852.973	22911
853.107	22843
853.242	22698
853.376	22713
853.511	22474
853.645	22561
853.78	22691
853.914	22607
854.048	22679
854.183	22611
854.317	22573
854.451	22759
854.585	22584
854.72	22577
854.854	22713
854.988	22622
855.122	22664
855.256	22523
855.39	22702
855.524	22721
855.658	22622
855.792	22691
855.926	22679
856.06	22702
856.194	22653
856.327	22679
856.461	22577
856.595	22630
856.729	22584
856.862	22828
856.996	22687
857.13	22626
857.263	22710
857.397	22615
857.53	22622
857.664	22599
857.797	22763
857.931	22698
858.064	22691
858.197	22767
858.331	22493
858.464	22626
858.597	22497
858.731	22577
858.864	22584
858.997	22497
859.13	22573
859.263	22523
859.396	22710
859.529	22641
859.662	22691
859.795	22588
859.928	22710
860.061	22812
860.194	22843
860.327	22599
860.46	22713
860.592	22847
860.725	22816
860.858	22710
860.99	22675
861.123	22577
861.256	22565
861.388	22618
861.521	23315
861.653	22497
861.786	22367
861.918	22470
862.05	22379
862.183	22588
862.315	22527
862.447	22523
862.58	22489
862.712	22223
862.844	22299
862.976	22451
863.108	22440
863.24	22824
863.372	22276
863.504	22413
863.636	22337
863.768	22394
863.9	22360
864.032	22261
864.164	22306
864.296	22291
864.428	22428
864.559	22405
864.691	22405
864.823	22337
864.954	22230
865.086	22295
865.217	22268
865.349	22246
865.48	22219
865.612	22360
865.743	22299
865.875	22147
866.006	22276
866.137	22268
866.269	22093
866.4	22192
866.531	22154
866.662	22040
866.793	22173
866.924	22135
867.055	22207
867.186	22234
867.317	22169
867.448	22109
867.579	22112
867.71	22101
867.841	22093
867.972	22158
868.103	22074
868.233	22211
868.364	22067
868.495	22211
868.625	22367
868.756	22493
868.886	22295
869.017	22363
869.147	22367
869.278	22455
869.408	22417
869.539	22344
869.669	22421
869.799	22382
869.929	22538
870.06	22519
870.19	22649
870.32	22664
870.45	22755
870.58	22782
870.71	22927
870.84	22858
870.97	22824
871.1	22866
871.23	23071
871.36	22995
871.489	22927
871.619	22885
871.749	23029
871.879	23048
872.008	23143
872.138	23014
872.267	23086
872.397	22873
872.526	22843
872.656	22892
872.785	22752
872.915	23018
873.044	23098
873.173	22995
873.303	23109
873.432	23025
873.561	23052
873.69	22972
873.819	22911
873.948	23197
874.077	22980
874.206	22965
874.335	22980
874.464	23083
874.593	23170
874.722	23284
874.851	23178
874.979	23121
875.108	23284
875.237	22987
875.365	23121
875.494	23200
875.623	23330
875.751	23204
875.88	23109
876.008	23235
876.136	23459
876.265	23581
876.393	23722
876.521	23600
876.65	23581
876.778	23554
876.906	23566
877.034	23520
877.162	23539
877.29	23501
877.418	23531
877.546	23619
877.674	23604
877.802	23448
877.93	23524
878.058	23417
878.185	23414
878.313	23501
878.441	23539
878.568	23288
878.696	23482
878.824	23589
878.951	23577
879.079	23767
879.206	23813
879.333	23752
879.461	23691
879.588	23642
879.715	23608
879.842	23745
879.97	23570
880.097	23383
880.224	23341
880.351	23372
880.478	23360
880.605	23318
880.732	23379
880.859	23718
880.986	23379
881.112	23509
881.239	23212
881.366	23162
881.493	22976
881.619	22923
881.746	23029
881.872	22911
881.999	22957
882.125	22850
882.252	22919
882.378	22805
882.505	22987
882.631	22752
882.757	22573
882.883	22592
883.01	22557
883.136	22535
883.262	22478
883.388	22421
883.514	22527
883.64	22596
883.766	22371
883.892	22409
884.018	22405
884.143	22588
884.269	22691
884.395	22363
884.52	22265
884.646	22341
884.772	22158
884.897	22070
885.023	22219
885.148	22268
885.274	22386
885.399	22223
885.524	22181
885.65	22150
885.775	22333
885.9	22219
886.025	22382
886.15	22276
886.275	22093
886.4	22067
886.525	22097
886.65	22090
886.775	22017
886.9	22375
887.025	22379
887.149	22150
887.274	22044
887.399	21987
887.523	21941
887.648	21873
887.773	21960
887.897	21968
888.021	22036
888.146	21857
888.27	22116
888.395	22112
888.519	22006
888.643	21975
888.767	22013
888.891	21922
889.015	21785
889.139	21751
889.263	21644
889.387	21865
889.511	21918
889.635	21964
889.759	21739
889.883	21652
890.006	21766
890.13	21850
890.254	21789
890.377	21606
890.501	21603
890.624	21405
890.748	21462
890.871	21450
890.995	21275
891.118	21348
891.241	21348
891.364	21378
891.488	21462
891.611	21416
891.734	21336
891.857	21359
891.98	21348
892.103	21325
892.226	21230
892.349	21275
892.471	21146
892.594	21211
892.717	21313
892.839	21222
892.962	21226
893.085	21142
893.207	21135
893.33	21180
893.452	21222
893.575	21336
893.697	21180
893.819	21473
893.941	21507
894.064	21294
894.186	21264
894.308	21058
894.43	21176
894.552	21481
894.674	21268
894.796	21058
894.918	21089
895.04	21176
895.161	21173
895.283	21161
895.405	21199
895.526	21062
895.648	21104
895.769	21222
895.891	21199
896.012	21351
896.134	21184
896.255	21116
896.376	21127
896.498	21264
896.619	21184
896.74	21279
896.861	21184
896.982	21424
897.103	21580
897.224	21428
897.345	21397
897.466	21378
897.587	21393
897.708	21477
897.828	21397
897.949	21245
898.07	21249
898.19	21344
898.311	21469
898.431	21344
898.552	21439
898.672	21443
898.792	21367
898.913	21211
899.033	21279
899.153	21195
899.273	21104
899.393	21135
899.513	21157
899.633	21157
899.753	21123
899.873	20979
899.993	21009
900.113	21070
900.232	21066
900.352	20948
900.472	20960
900.591	20830
900.711	20914
900.83	20811
900.95	20910
901.069	20986
901.189	20727
901.308	20480
901.427	20419
901.546	20419
901.665	20446
901.784	20305
901.904	20248
902.023	20145
902.141	20115
902.26	20031
902.379	19921
902.498	19894
902.617	19799
902.735	20005
902.854	19951
902.973	19902
903.091	19563
903.21	19487
903.328	19552
903.446	19449
903.565	19457
903.683	19354
903.801	19381
903.919	19331
904.038	19274
904.156	19225
904.274	19175
904.392	19110
904.51	19168
904.627	19152
904.745	19202
904.863	19168
904.981	18916
905.098	18829
905.216	18829
905.334	18833
905.451	18875
905.569	18753
905.686	18722
905.803	18783
905.921	18654
906.038	18661
906.155	18578
906.272	18650
906.389	18544
906.506	18258
906.623	18429
906.74	18289
906.857	18334
906.974	18239
907.091	18384
907.208	18475
907.324	18350
907.441	18167
907.557	18087
907.674	18072
907.79	17984
907.907	18079
908.023	18060
908.139	18133
908.256	17984
908.372	17889
908.488	17904
908.604	17889
908.72	17729
908.836	17802
908.952	17668
909.068	17767
909.184	17786
909.3	17790
909.415	17809
909.531	17634
909.647	17501
909.762	17474
909.878	17436
909.993	17505
910.108	17402
910.224	17486
910.339	17455
910.454	17193
910.57	17277
910.685	17223
910.8	17467
910.915	17311
911.03	17060
911.145	17128
911.259	17045
911.374	16976
911.489	16915
911.604	16995
911.718	16850
911.833	16831
911.947	16797
912.062	16733
912.176	16694
912.291	16740
912.405	16759
912.519	17006
912.633	16957
912.748	16820
912.862	16771
912.976	16618
913.09	16432
913.204	16527
913.318	16615
913.431	16683
913.545	16626
913.659	16717
913.772	16542
913.886	16440
914	16405
914.113	16440
914.226	16451
914.34	16344
914.453	16139
914.566	16527
914.68	16207
914.793	16207
914.906	15922
915.019	16044
915.132	15918
915.245	15968
915.358	15941
915.47	15945
915.583	15892
915.696	15941
915.809	16036
915.921	16036
916.034	15880
916.146	15842
916.259	15816
916.371	16044
916.483	15903
916.595	15789
916.708	15762
916.82	15781
916.932	15705
917.044	15690
917.156	15732
917.268	15580
917.38	15576
917.491	15603
917.603	15557
917.715	15564
917.826	15603
917.938	15492
918.049	15458
918.161	15496
918.272	15701
918.384	15599
918.495	15454
918.606	15355
918.717	15287
918.828	15264
918.939	15401
919.05	15233
919.161	15332
919.272	15066
919.383	15100
919.494	15321
919.604	15477
919.715	15268
919.826	15184
919.936	15214
920.047	15355
920.157	15237
920.267	15340
920.378	15275
920.488	15123
920.598	15401
920.708	15542
920.818	15389
920.928	15302
921.038	15614
921.148	15462
921.258	15298
921.368	15089
921.477	14952
921.587	14849
921.697	14864
921.806	15017
921.916	14815
922.025	14693
922.134	14606
922.244	14541
922.353	14701
922.462	14461
922.571	14427
922.68	14221
922.789	14267
922.898	14229
923.007	14221
923.116	14229
923.224	14267
923.333	14142
923.442	14062
923.55	14081
923.659	14081
923.767	14123
923.876	14073
923.984	14084
924.092	13849
924.201	14088
924.309	14016
924.417	13997
924.525	13909
924.633	13864
924.741	14849
924.849	13636
924.956	13849
925.064	13586
925.172	13559
925.279	13704
925.387	13712
925.494	13590
925.602	13704
925.709	13658
925.816	13480
925.924	13578
926.031	13639
926.138	13548
926.245	13575
926.352	13491
926.459	13483
926.566	13639
926.673	13384
926.779	13270
926.886	13331
926.993	13232
927.099	13190
927.206	13236
927.312	13091
927.419	13236
927.525	13133
927.631	13187
927.737	13061
927.843	13023
927.95	12928
928.056	13004
928.162	13053
928.267	13050
928.373	13689
928.479	13046
928.585	12875
928.69	12894
928.796	13046
928.901	12825
929.007	12684
929.112	12806
929.218	12802
929.323	12741
929.428	12616
929.533	12814
929.638	12620
929.743	12738
929.848	12700
929.953	12612
930.058	12525
930.163	12330
930.267	12334
930.372	12479
930.477	12327
930.581	12471
930.685	12342
930.79	12228
930.894	12277
930.998	12228
931.103	12300
931.207	11912
931.311	11885
931.415	11813
931.519	11642
931.623	11535
