Data from test_V78500241_3473.txt Node
Date: Fri Mar 25 16:05:51 CST 2022
User: usil
Spectrometer: V785-0024
Trigger mode: 0
Integration Time (sec): 4.000000E-1
Scans to average: 1
Nonlinearity correction enabled: false
Boxcar width: 0
Storing dark spectrum: false
XAxis mode: Wavelengths
Number of Pixels in Spectrum: 1024
>>>>>Begin Spectral Data<<<<<
801.071	29003
801.214	29044
801.356	28805
801.499	28713
801.641	28645
801.783	28725
801.926	28656
802.068	28645
802.211	28641
802.353	28683
802.496	28401
802.638	28394
802.78	28379
802.923	28120
803.065	28261
803.208	28432
803.35	28459
803.492	28493
803.635	28573
803.777	28413
803.919	28611
804.061	28797
804.204	28584
804.346	28615
804.488	28561
804.63	28569
804.773	28447
804.915	28637
805.057	28710
805.199	28702
805.341	28615
805.483	28729
805.626	28755
805.768	28713
805.91	28904
806.052	28900
806.194	28721
806.336	28862
806.478	28706
806.62	28923
806.762	28923
806.904	29014
807.046	29178
807.188	29307
807.33	29311
807.472	29227
807.614	29204
807.756	29193
807.898	28957
808.04	29044
808.182	29029
808.324	29170
808.465	29117
808.607	29478
808.749	29524
808.891	29737
809.033	29657
809.174	29577
809.316	29570
809.458	29395
809.6	29490
809.741	29558
809.883	29551
810.025	29752
810.166	29615
810.308	29676
810.45	29707
810.591	29771
810.733	29611
810.875	29566
811.016	29528
811.158	29520
811.299	29665
811.441	29619
811.582	29687
811.724	29429
811.865	29581
812.007	29531
812.148	29459
812.29	29638
812.431	29756
812.573	29874
812.714	29969
812.855	30064
812.997	30228
813.138	30243
813.279	30213
813.421	29988
813.562	30049
813.703	29855
813.845	29878
813.986	29547
814.127	29448
814.268	29254
814.41	29216
814.551	29223
814.692	29273
814.833	29239
814.974	29166
815.115	29284
815.256	29041
815.397	29010
815.539	29079
815.68	28987
815.821	28987
815.962	29200
816.103	29044
816.244	28923
816.385	28839
816.526	28927
816.666	28592
816.807	28485
816.948	28611
817.089	28634
817.23	28580
817.371	28592
817.512	28554
817.653	28535
817.793	28447
817.934	28546
818.075	28592
818.216	28653
818.356	28603
818.497	28459
818.638	28200
818.778	28398
818.919	28451
819.06	28284
819.2	28538
819.341	28645
819.481	28470
819.622	28748
819.762	29003
819.903	28729
820.043	28816
820.184	28702
820.324	28847
820.465	28824
820.605	28793
820.746	28729
820.886	28531
821.026	28736
821.167	28584
821.307	28683
821.447	28675
821.588	28584
821.728	28382
821.868	28238
822.008	27979
822.149	28025
822.289	27972
822.429	27846
822.569	27751
822.709	27774
822.849	27557
822.99	27603
823.13	27561
823.27	27416
823.41	27412
823.55	27287
823.69	27367
823.83	27389
823.97	27424
824.11	27268
824.25	27169
824.389	27161
824.529	27359
824.669	27336
824.809	27386
824.949	27363
825.089	27275
825.228	27321
825.368	27020
825.508	27001
825.648	27233
825.787	27233
825.927	27100
826.067	27131
826.206	27176
826.346	27176
826.485	27154
826.625	27032
826.765	27287
826.904	27131
827.044	26921
827.183	26906
827.323	26895
827.462	26933
827.601	26933
827.741	26861
827.88	26830
828.02	26731
828.159	26716
828.298	26720
828.437	26800
828.577	26689
828.716	26895
828.855	26918
828.994	26606
829.134	26469
829.273	26598
829.412	26473
829.551	26617
829.69	26473
829.829	26545
829.968	26678
830.107	26495
830.246	26625
830.385	26427
830.524	26393
830.663	26358
830.802	26195
830.941	26130
831.08	26107
831.219	26256
831.357	26164
831.496	26453
831.635	26210
831.774	26145
831.913	25921
832.051	25963
832.19	25883
832.329	26020
832.467	25700
832.606	25788
832.744	25700
832.883	25715
833.022	25738
833.16	25597
833.299	25811
833.437	25765
833.576	25925
833.714	25849
833.852	25871
833.991	25868
834.129	25978
834.267	26005
834.406	25830
834.544	26054
834.682	25837
834.821	25822
834.959	26065
835.097	25814
835.235	25890
835.373	25788
835.511	25799
835.65	25746
835.788	25799
835.926	25544
836.064	25464
836.202	25544
836.34	25746
836.478	25765
836.615	25662
836.753	25712
836.891	25887
837.029	25666
837.167	25651
837.305	25521
837.443	25510
837.58	25525
837.718	25552
837.856	25476
837.993	25407
838.131	25445
838.269	25354
838.406	25464
838.544	25327
838.681	25164
838.819	25236
838.956	24897
839.094	25126
839.231	25023
839.369	25171
839.506	25388
839.643	25209
839.781	25000
839.918	24867
840.055	24901
840.193	25027
840.33	24882
840.467	24856
840.604	24894
840.742	25129
840.879	24711
841.016	24734
841.153	24791
841.29	24932
841.427	24909
841.564	24856
841.701	24928
841.838	24844
841.975	24741
842.112	24852
842.249	24681
842.385	24703
842.522	24825
842.659	24692
842.796	24612
842.933	24654
843.069	24585
843.206	24616
843.343	24597
843.479	24711
843.616	24593
843.752	24327
843.889	24376
844.025	24601
844.162	24372
844.298	24441
844.435	24395
844.571	24350
844.708	24464
844.844	24513
844.98	24570
845.117	24513
845.253	24391
845.389	24285
845.525	24330
845.661	24194
845.798	24228
845.934	24262
846.07	24144
846.206	24129
846.342	24235
846.478	24038
846.614	23992
846.75	23805
846.886	23798
847.022	23939
847.158	23908
847.294	23969
847.429	23851
847.565	23824
847.701	24102
847.837	23680
847.972	23539
848.108	23680
848.244	23646
848.379	23551
848.515	23592
848.65	23368
848.786	23482
848.921	23406
849.057	23543
849.192	23539
849.328	23520
849.463	23410
849.598	23391
849.734	23345
849.869	23334
850.004	23299
850.14	23330
850.275	23193
850.41	23083
850.545	23178
850.68	23159
850.815	23315
850.95	23265
851.085	23345
851.22	23326
851.355	23128
851.49	23212
851.625	23204
851.76	23147
851.895	23098
852.03	23128
852.165	23193
852.299	23288
852.434	23242
852.569	23136
852.703	23170
852.838	23227
852.973	23212
853.107	23353
853.242	23136
853.376	22972
853.511	23052
853.645	22968
853.78	23086
853.914	23162
854.048	22968
854.183	22976
854.317	23090
854.451	23200
854.585	23067
854.72	23128
854.854	23086
854.988	22976
855.122	23052
855.256	22946
855.39	22923
855.524	23067
855.658	23006
855.792	23067
855.926	23033
856.06	23151
856.194	23117
856.327	23136
856.461	22850
856.595	22961
856.729	22904
856.862	23022
856.996	22949
857.13	22984
857.263	23086
857.397	22915
857.53	23140
857.664	23048
857.797	23018
857.931	23121
858.064	23060
858.197	23105
858.331	23006
858.464	22835
858.597	22889
858.731	22942
858.864	22755
858.997	23018
859.13	22987
859.263	23022
859.396	23166
859.529	23064
859.662	22877
859.795	22930
859.928	23079
860.061	23174
860.194	23200
860.327	23079
860.46	22980
860.592	23200
860.725	23170
860.858	23181
860.99	23086
861.123	22873
861.256	23010
861.388	23044
861.521	23741
861.653	22831
861.786	22858
861.918	22805
862.05	22828
862.183	22828
862.315	22900
862.447	23048
862.58	23041
862.712	22771
862.844	22717
862.976	22771
863.108	22729
863.24	23094
863.372	22725
863.504	22721
863.636	22592
863.768	22668
863.9	22790
864.032	22763
864.164	22675
864.296	22672
864.428	22831
864.559	22831
864.691	22763
864.823	22592
864.954	22847
865.086	22580
865.217	22626
865.349	22592
865.48	22630
865.612	22580
865.743	22759
865.875	22660
866.006	22497
866.137	22607
866.269	22649
866.4	22554
866.531	22516
866.662	22462
866.793	22478
866.924	22474
867.055	22641
867.186	22546
867.317	22516
867.448	22413
867.579	22497
867.71	22440
867.841	22447
867.972	22542
868.103	22497
868.233	22478
868.364	22504
868.495	22573
868.625	22721
868.756	22930
868.886	22630
869.017	22683
869.147	22809
869.278	22809
869.408	22717
869.539	22694
869.669	22744
869.799	22641
869.929	22892
870.06	22824
870.19	23075
870.32	23094
870.45	23109
870.58	23083
870.71	23265
870.84	23433
870.97	23060
871.1	23273
871.23	23383
871.36	23299
871.489	23303
871.619	23360
871.749	23364
871.879	23356
872.008	23402
872.138	23493
872.267	23421
872.397	23318
872.526	23181
872.656	23239
872.785	23235
872.915	23360
873.044	23474
873.173	23512
873.303	23398
873.432	23463
873.561	23497
873.69	23474
873.819	23318
873.948	23356
874.077	23208
874.206	23330
874.335	23417
874.464	23433
874.593	23543
874.722	23535
874.851	23611
874.979	23665
875.108	23573
875.237	23619
875.365	23539
875.494	23661
875.623	23474
875.751	23524
875.88	23600
876.008	23714
876.136	23931
876.265	23954
876.393	24155
876.521	23969
876.65	23958
876.778	24068
876.906	23790
877.034	23874
877.162	23901
877.29	23923
877.418	23866
877.546	23992
877.674	23893
877.802	24015
877.93	24003
878.058	23859
878.185	23718
878.313	23916
878.441	23756
878.568	23802
878.696	23851
878.824	23916
878.951	24060
879.079	24076
879.206	24289
879.333	24110
879.461	23878
879.588	23999
879.715	24148
879.842	24209
879.97	23908
880.097	23809
880.224	23756
880.351	23878
880.478	23809
880.605	23657
880.732	23741
880.859	23939
880.986	23752
881.112	23908
881.239	23524
881.366	23436
881.493	23356
881.619	23330
881.746	23345
881.872	23353
881.999	23273
882.125	23132
882.252	23421
882.378	23254
882.505	23414
882.631	23109
882.757	23029
882.883	22938
883.01	22930
883.136	22999
883.262	22797
883.388	22664
883.514	23060
883.64	23098
883.766	22904
883.892	22641
884.018	22763
884.143	22889
884.269	22873
884.395	22584
884.52	22622
884.646	22626
884.772	22622
884.897	22504
885.023	22660
885.148	22778
885.274	22683
885.399	22626
885.524	22485
885.65	22679
885.775	22607
885.9	22531
886.025	22523
886.15	22527
886.275	22588
886.4	22447
886.525	22577
886.65	22470
886.775	22478
886.9	22656
887.025	22850
887.149	22497
887.274	22371
887.399	22310
887.523	22306
887.648	22230
887.773	22226
887.897	22360
888.021	22386
888.146	22268
888.27	22428
888.395	22451
888.519	22329
888.643	22261
888.767	22310
888.891	22268
889.015	22074
889.139	22166
889.263	22169
889.387	22185
889.511	22382
889.635	22154
889.759	22120
889.883	22177
890.006	22143
890.13	22143
890.254	22128
890.377	22109
890.501	21979
890.624	21739
890.748	21945
890.871	21629
890.995	21648
891.118	21610
891.241	21850
891.364	21682
891.488	21808
891.611	21751
891.734	21583
891.857	21652
891.98	21610
892.103	21606
892.226	21599
892.349	21549
892.471	21466
892.594	21450
892.717	21572
892.839	21542
892.962	21599
893.085	21622
893.207	21553
893.33	21454
893.452	21443
893.575	21530
893.697	21351
893.819	21709
893.941	21892
894.064	21656
894.186	21378
894.308	21454
894.43	21652
894.552	21625
894.674	21564
894.796	21435
894.918	21386
895.04	21549
895.161	21633
895.283	21622
895.405	21553
895.526	21447
895.648	21408
895.769	21481
895.891	21603
896.012	21618
896.134	21367
896.255	21454
896.376	21496
896.498	21515
896.619	21447
896.74	21538
896.861	21549
896.982	21888
897.103	21960
897.224	21972
897.345	21743
897.466	21618
897.587	21724
897.708	21774
897.828	21774
897.949	21690
898.07	21443
898.19	21694
898.311	21728
898.431	21610
898.552	21831
898.672	21679
898.792	21785
898.913	21701
899.033	21557
899.153	21652
899.273	21348
899.393	21519
899.513	21466
899.633	21443
899.753	21416
899.873	21302
899.993	21401
900.113	21291
900.232	21424
900.352	21412
900.472	21332
900.591	21055
900.711	21195
900.83	21249
900.95	21207
901.069	21325
901.189	20986
901.308	20861
901.427	20788
901.546	20849
901.665	20811
901.784	20765
901.904	20514
902.023	20419
902.141	20263
902.26	20263
902.379	20301
902.498	20309
902.617	20221
902.735	20229
902.854	20149
902.973	20134
903.091	19967
903.21	19887
903.328	19909
903.446	19784
903.565	19769
903.683	19742
903.801	19609
903.919	19590
904.038	19586
904.156	19578
904.274	19575
904.392	19514
904.51	19445
904.627	19525
904.745	19544
904.863	19453
904.981	19301
905.098	19148
905.216	19122
905.334	19213
905.451	19126
905.569	19228
905.686	19118
905.803	19057
905.921	18901
906.038	19008
906.155	18924
906.272	18882
906.389	18951
906.506	18681
906.623	18661
906.74	18658
906.857	18570
906.974	18521
907.091	18563
907.208	18707
907.324	18650
907.441	18525
907.557	18334
907.674	18353
907.79	18277
907.907	18376
908.023	18338
908.139	18346
908.256	18342
908.372	18216
908.488	18216
908.604	18110
908.72	17977
908.836	18121
908.952	17988
909.068	17988
909.184	18159
909.3	18053
909.415	18121
909.531	18038
909.647	17878
909.762	17786
909.878	17764
909.993	17649
910.108	17661
910.224	17687
910.339	17733
910.454	17672
910.57	17505
910.685	17520
910.8	17691
910.915	17657
911.03	17551
911.145	17315
911.259	17337
911.374	17379
911.489	17166
911.604	17330
911.718	17033
911.833	17052
911.947	17022
912.062	16911
912.176	17143
912.291	17048
912.405	17014
912.519	17356
912.633	17250
912.748	17071
912.862	17006
912.976	16923
913.09	16782
913.204	16946
913.318	16835
913.431	16934
913.545	16946
913.659	17052
913.772	16850
913.886	16725
914	16622
914.113	16698
914.226	16637
914.34	16660
914.453	16558
914.566	16721
914.68	16550
914.793	16558
914.906	16276
915.019	16097
915.132	16063
915.245	16166
915.358	16185
915.47	16204
915.583	16207
915.696	16246
915.809	16265
915.921	16253
916.034	16139
916.146	16128
916.259	16036
916.371	16215
916.483	16109
916.595	16090
916.708	16105
916.82	16002
916.932	16021
917.044	15937
917.156	15968
917.268	15831
917.38	15934
917.491	15888
917.603	15823
917.715	15922
917.826	15934
917.938	15812
918.049	15576
918.161	15732
918.272	15876
918.384	15884
918.495	15713
918.606	15564
918.717	15526
918.828	15545
918.939	15561
919.05	15454
919.161	15466
919.272	15332
919.383	15431
919.494	15656
919.604	15724
919.715	15553
919.826	15458
919.936	15481
920.047	15534
920.157	15428
920.267	15587
920.378	15568
920.488	15557
920.598	15648
920.708	15762
920.818	15629
920.928	15595
921.038	15751
921.148	15743
921.258	15428
921.368	15416
921.477	15154
921.587	15230
921.697	14986
921.806	15237
921.916	14998
922.025	14819
922.134	14868
922.244	14796
922.353	14986
922.462	14739
922.571	14667
922.68	14465
922.789	14396
922.898	14587
923.007	14385
923.116	14514
923.224	14602
923.333	14328
923.442	14347
923.55	14248
923.659	14366
923.767	14290
923.876	14157
923.984	14263
924.092	14172
924.201	14214
924.309	14199
924.417	14252
924.525	14115
924.633	14050
924.741	14876
924.849	13849
924.956	14016
925.064	13868
925.172	13795
925.279	13864
925.387	13837
925.494	13852
925.602	13986
925.709	13776
925.816	13723
925.924	13780
926.031	13928
926.138	13761
926.245	13807
926.352	13719
926.459	13868
926.566	13841
926.673	13685
926.779	13548
926.886	13666
926.993	13426
927.099	13449
927.206	13335
927.312	13263
927.419	13407
927.525	13362
927.631	13407
927.737	13274
927.843	13149
927.95	13129
928.056	13247
928.162	13209
928.267	13228
928.373	13776
928.479	13228
928.585	13057
928.69	13213
928.796	13118
928.901	13038
929.007	12897
929.112	12996
929.218	12932
929.323	12939
929.428	12863
929.533	13004
929.638	12806
929.743	12817
929.848	12882
929.953	12875
930.058	12715
930.163	12601
930.267	12589
930.372	12654
930.477	12547
930.581	12665
930.685	12563
930.79	12460
930.894	12483
930.998	12414
931.103	12486
931.207	12121
931.311	12140
931.415	11942
931.519	11851
931.623	11767
