Data from test_V78500241_1028.txt Node
Date: Fri Mar 25 15:48:55 CST 2022
User: usil
Spectrometer: V785-0024
Trigger mode: 0
Integration Time (sec): 4.000000E-1
Scans to average: 1
Nonlinearity correction enabled: false
Boxcar width: 0
Storing dark spectrum: false
XAxis mode: Wavelengths
Number of Pixels in Spectrum: 1024
>>>>>Begin Spectral Data<<<<<
801.071	28303
801.214	28348
801.356	28051
801.499	28112
801.641	27930
801.783	27884
801.926	27945
802.068	27759
802.211	27751
802.353	27713
802.496	27629
802.638	27572
802.78	27469
802.923	27454
803.065	27481
803.208	27466
803.35	27583
803.492	27705
803.635	27762
803.777	27682
803.919	27762
804.061	28097
804.204	27717
804.346	27648
804.488	27633
804.63	27675
804.773	27663
804.915	27625
805.057	27800
805.199	27679
805.341	27705
805.483	27876
805.626	27979
805.768	27713
805.91	27945
806.052	27892
806.194	27751
806.336	28090
806.478	27930
806.62	27892
806.762	28010
806.904	28101
807.046	28428
807.188	28280
807.33	28284
807.472	28337
807.614	28215
807.756	28325
807.898	28246
808.04	28166
808.182	28185
808.324	28261
808.465	28177
808.607	28516
808.749	28500
808.891	28668
809.033	28672
809.174	28588
809.316	28584
809.458	28538
809.6	28512
809.741	28618
809.883	28733
810.025	28782
810.166	28900
810.308	28881
810.45	28793
810.591	28725
810.733	28584
810.875	28481
811.016	28413
811.158	28478
811.299	28550
811.441	28858
811.582	28831
811.724	28645
811.865	28436
812.007	28596
812.148	28649
812.29	28656
812.431	28687
812.573	28953
812.714	28987
812.855	29025
812.997	29174
813.138	29383
813.279	29379
813.421	29117
813.562	28987
813.703	28927
813.845	28797
813.986	28493
814.127	28440
814.268	28173
814.41	28333
814.551	28253
814.692	28322
814.833	28310
814.974	28196
815.115	28417
815.256	28105
815.397	28185
815.539	28150
815.68	28086
815.821	27994
815.962	28059
816.103	28124
816.244	27994
816.385	27800
816.526	27766
816.666	27766
816.807	27549
816.948	27656
817.089	27622
817.23	27599
817.371	27698
817.512	27644
817.653	27515
817.793	27675
817.934	27530
818.075	27614
818.216	27652
818.356	27515
818.497	27488
818.638	27302
818.778	27230
818.919	27306
819.06	27473
819.2	27492
819.341	27751
819.481	27500
819.622	27812
819.762	27888
819.903	27960
820.043	27717
820.184	27827
820.324	27728
820.465	27755
820.605	27698
820.746	27667
820.886	27530
821.026	27732
821.167	27568
821.307	27755
821.447	27526
821.588	27500
821.728	27313
821.868	27116
822.008	27028
822.149	27127
822.289	27062
822.429	26899
822.569	26754
822.709	26811
822.849	26804
822.99	26598
823.13	26461
823.27	26522
823.41	26438
823.55	26240
823.69	26412
823.83	26324
823.97	26248
824.11	26191
824.25	26138
824.389	26161
824.529	26244
824.669	26240
824.809	26442
824.949	26237
825.089	26187
825.228	26225
825.368	26073
825.508	26035
825.648	26122
825.787	26252
825.927	26298
826.067	26084
826.206	26100
826.346	26145
826.485	26039
826.625	26202
826.765	26199
826.904	26035
827.044	26016
827.183	25769
827.323	25814
827.462	25860
827.601	25871
827.741	25712
827.88	25856
828.02	25666
828.159	25795
828.298	25811
828.437	25894
828.577	25791
828.716	25799
828.855	25727
828.994	25571
829.134	25434
829.273	25430
829.412	25460
829.551	25449
829.69	25605
829.829	25544
829.968	25438
830.107	25674
830.246	25495
830.385	25502
830.524	25472
830.663	25274
830.802	25152
830.941	25061
831.08	25156
831.219	25259
831.357	25198
831.496	25301
831.635	25072
831.774	25031
831.913	25008
832.051	25042
832.19	24802
832.329	24810
832.467	24859
832.606	24544
832.744	24681
832.883	24779
833.022	24738
833.16	24791
833.299	24867
833.437	24757
833.576	24768
833.714	24817
833.852	25023
833.991	24738
834.129	24852
834.267	24890
834.406	24821
834.544	24924
834.682	24787
834.821	24829
834.959	25023
835.097	24783
835.235	24848
835.373	24783
835.511	24730
835.65	24658
835.788	24661
835.926	24502
836.064	24540
836.202	24452
836.34	24688
836.478	24726
836.615	24650
836.753	24665
836.891	24696
837.029	24692
837.167	24490
837.305	24665
837.443	24582
837.58	24547
837.718	24441
837.856	24528
837.993	24521
838.131	24528
838.269	24350
838.406	24376
838.544	24266
838.681	24083
838.819	24129
838.956	23950
839.094	23927
839.231	23958
839.369	24076
839.506	24399
839.643	24216
839.781	24034
839.918	23843
840.055	23851
840.193	24022
840.33	23832
840.467	23813
840.604	23870
840.742	24159
840.879	23813
841.016	23855
841.153	23870
841.29	23988
841.427	23859
841.564	23977
841.701	23783
841.838	23878
841.975	23767
842.112	23809
842.249	23699
842.385	23710
842.522	23840
842.659	23657
842.796	23528
842.933	23623
843.069	23687
843.206	23440
843.343	23646
843.479	23592
843.616	23566
843.752	23402
843.889	23395
844.025	23551
844.162	23292
844.298	23596
844.435	23383
844.571	23360
844.708	23288
844.844	23581
844.98	23604
845.117	23524
845.253	23318
845.389	23307
845.525	23330
845.661	23235
845.798	23060
845.934	23147
846.07	23075
846.206	23185
846.342	23265
846.478	23159
846.614	22892
846.75	22809
846.886	22744
847.022	22869
847.158	22908
847.294	22953
847.429	22892
847.565	22805
847.701	22972
847.837	22554
847.972	22424
848.108	22649
848.244	22698
848.379	22432
848.515	22519
848.65	22344
848.786	22451
848.921	22436
849.057	22599
849.192	22500
849.328	22478
849.463	22382
849.598	22417
849.734	22295
849.869	22337
850.004	22112
850.14	22287
850.275	22154
850.41	22044
850.545	22048
850.68	22131
850.815	22120
850.95	22211
851.085	22436
851.22	22280
851.355	22246
851.49	22257
851.625	22143
851.76	22207
851.895	22055
852.03	22036
852.165	22070
852.299	22246
852.434	22238
852.569	22265
852.703	22124
852.838	22272
852.973	22356
853.107	22234
853.242	22162
853.376	22044
853.511	21903
853.645	22032
853.78	22055
853.914	22188
854.048	21991
854.183	22048
854.317	21888
854.451	22196
854.585	22036
854.72	22082
854.854	22101
854.988	21838
855.122	21960
855.256	21926
855.39	22097
855.524	22101
855.658	22093
855.792	22029
855.926	22006
856.06	22101
856.194	22093
856.327	21918
856.461	22029
856.595	21903
856.729	21975
856.862	22059
856.996	22002
857.13	22173
857.263	22200
857.397	22090
857.53	22017
857.664	21956
857.797	22063
857.931	22150
858.064	22032
858.197	22120
858.331	22025
858.464	22040
858.597	21835
858.731	22006
858.864	22070
858.997	22032
859.13	22025
859.263	22036
859.396	22223
859.529	21911
859.662	21895
859.795	21930
859.928	21975
860.061	22188
860.194	22181
860.327	22135
860.46	22040
860.592	22101
860.725	22166
860.858	22135
860.99	22090
861.123	21968
861.256	21926
861.388	22074
861.521	22866
861.653	21873
861.786	21930
861.918	21907
862.05	21899
862.183	21907
862.315	21964
862.447	22078
862.58	21842
862.712	21732
862.844	21793
862.976	21835
863.108	21728
863.24	22124
863.372	21717
863.504	21759
863.636	21739
863.768	21816
863.9	21618
864.032	21538
864.164	21679
864.296	21580
864.428	21838
864.559	21778
864.691	21736
864.823	21701
864.954	21816
865.086	21857
865.217	21595
865.349	21526
865.48	21538
865.612	21682
865.743	21724
865.875	21660
866.006	21606
866.137	21625
866.269	21553
866.4	21439
866.531	21469
866.662	21526
866.793	21599
866.924	21515
867.055	21637
867.186	21473
867.317	21504
867.448	21355
867.579	21443
867.71	21389
867.841	21450
867.972	21618
868.103	21481
868.233	21450
868.364	21389
868.495	21583
868.625	21842
868.756	21785
868.886	21751
869.017	21656
869.147	21797
869.278	21812
869.408	21857
869.539	21739
869.669	21819
869.799	21774
869.929	22013
870.06	21812
870.19	22112
870.32	22074
870.45	22116
870.58	22120
870.71	22211
870.84	22246
870.97	22109
871.1	22177
871.23	22398
871.36	22379
871.489	22382
871.619	22348
871.749	22413
871.879	22337
872.008	22565
872.138	22360
872.267	22398
872.397	22249
872.526	22158
872.656	22280
872.785	22078
872.915	22329
873.044	22474
873.173	22379
873.303	22436
873.432	22348
873.561	22485
873.69	22584
873.819	22428
873.948	22333
874.077	22261
874.206	22363
874.335	22440
874.464	22497
874.593	22713
874.722	22569
874.851	22573
874.979	22557
875.108	22672
875.237	22577
875.365	22493
875.494	22607
875.623	22656
875.751	22561
875.88	22474
876.008	22812
876.136	22843
876.265	22896
876.393	23071
876.521	23056
876.65	23075
876.778	23037
876.906	22869
877.034	22927
877.162	22911
877.29	22965
877.418	22927
877.546	22965
877.674	23044
877.802	22847
877.93	22885
878.058	22927
878.185	22820
878.313	22927
878.441	22919
878.568	22793
878.696	22824
878.824	22976
878.951	22999
879.079	23083
879.206	23280
879.333	23132
879.461	22957
879.588	23083
879.715	23189
879.842	23220
879.97	23071
880.097	22729
880.224	22786
880.351	22729
880.478	22725
880.605	22721
880.732	22706
880.859	22987
880.986	22759
881.112	22866
881.239	22664
881.366	22481
881.493	22363
881.619	22466
881.746	22284
881.872	22352
881.999	22257
882.125	22348
882.252	22341
882.378	22367
882.505	22474
882.631	22154
882.757	21968
882.883	22078
883.01	22055
883.136	22070
883.262	21888
883.388	21907
883.514	22128
883.64	22169
883.766	21941
883.892	21922
884.018	21713
884.143	21953
884.269	21998
884.395	21720
884.52	21519
884.646	21793
884.772	21580
884.897	21523
885.023	21622
885.148	21808
885.274	21785
885.399	21720
885.524	21720
885.65	21633
885.775	21648
885.9	21641
886.025	21644
886.15	21561
886.275	21515
886.4	21534
886.525	21682
886.65	21564
886.775	21583
886.9	21770
887.025	21835
887.149	21614
887.274	21389
887.399	21256
887.523	21496
887.648	21302
887.773	21374
887.897	21557
888.021	21515
888.146	21329
888.27	21473
888.395	21507
888.519	21504
888.643	21405
888.767	21424
888.891	21302
889.015	21294
889.139	21237
889.263	21291
889.387	21382
889.511	21401
889.635	21401
889.759	21157
889.883	21150
890.006	21173
890.13	21264
890.254	21108
890.377	21081
890.501	20960
890.624	20921
890.748	20944
890.871	20788
890.995	20762
891.118	20636
891.241	20845
891.364	20773
891.488	20864
891.611	20678
891.734	20743
891.857	20906
891.98	20754
892.103	20754
892.226	20758
892.349	20701
892.471	20617
892.594	20678
892.717	20636
892.839	20644
892.962	20682
893.085	20602
893.207	20625
893.33	20495
893.452	20571
893.575	20655
893.697	20552
893.819	20804
893.941	20834
894.064	20735
894.186	20648
894.308	20575
894.43	20781
894.552	20815
894.674	20686
894.796	20663
894.918	20655
895.04	20564
895.161	20823
895.283	20788
895.405	20530
895.526	20617
895.648	20663
895.769	20648
895.891	20735
896.012	20746
896.134	20689
896.255	20579
896.376	20663
896.498	20549
896.619	20727
896.74	20716
896.861	20727
896.982	21043
897.103	21135
897.224	20910
897.345	20838
897.466	20788
897.587	20857
897.708	20857
897.828	20956
897.949	20861
898.07	20689
898.19	20693
898.311	20948
898.431	20826
898.552	20826
898.672	20971
898.792	20944
898.913	20887
899.033	20746
899.153	20644
899.273	20507
899.393	20640
899.513	20663
899.633	20644
899.753	20583
899.873	20583
899.993	20648
900.113	20575
900.232	20465
900.352	20590
900.472	20415
900.591	20332
900.711	20442
900.83	20427
900.95	20511
901.069	20530
901.189	20374
901.308	20065
901.427	19932
901.546	20043
901.665	19959
901.784	19913
901.904	19750
902.023	19723
902.141	19567
902.26	19499
902.379	19578
902.498	19499
902.617	19392
902.735	19480
902.854	19430
902.973	19312
903.091	19221
903.21	19103
903.328	19110
903.446	19034
903.565	18875
903.683	18989
903.801	18802
903.919	18886
904.038	18810
904.156	18631
904.274	18871
904.392	18730
904.51	18734
904.627	18722
904.745	18673
904.863	18719
904.981	18498
905.098	18350
905.216	18311
905.334	18475
905.451	18365
905.569	18361
905.686	18407
905.803	18300
905.921	18125
906.038	18205
906.155	18224
906.272	18095
906.389	18083
906.506	17882
906.623	17946
906.74	17893
906.857	17756
906.974	17741
907.091	17965
907.208	17996
907.324	17889
907.441	17726
907.557	17676
907.674	17676
907.79	17528
907.907	17596
908.023	17623
908.139	17665
908.256	17566
908.372	17440
908.488	17455
908.604	17398
908.72	17341
908.836	17254
908.952	17269
909.068	17387
909.184	17402
909.3	17318
909.415	17280
909.531	17337
909.647	17048
909.762	17083
909.878	17010
909.993	16972
910.108	16957
910.224	16938
910.339	17003
910.454	16942
910.57	16839
910.685	16820
910.8	16995
910.915	16980
911.03	16820
911.145	16721
911.259	16535
911.374	16558
911.489	16474
911.604	16470
911.718	16382
911.833	16417
911.947	16268
912.062	16169
912.176	16402
912.291	16424
912.405	16295
912.519	16630
912.633	16478
912.748	16348
912.862	16295
912.976	16059
913.09	16032
913.204	16116
913.318	16124
913.431	16147
913.545	16200
913.659	16200
913.772	16006
913.886	15975
914	15922
914.113	16059
914.226	16044
914.34	15930
914.453	15884
914.566	15899
914.68	15800
914.793	15846
914.906	15561
915.019	15538
915.132	15454
915.245	15511
915.358	15587
915.47	15481
915.583	15576
915.696	15580
915.809	15587
915.921	15572
916.034	15393
916.146	15382
916.259	15420
916.371	15523
916.483	15477
916.595	15408
916.708	15332
916.82	15344
916.932	15237
917.044	15321
917.156	15233
917.268	15230
917.38	15203
917.491	15154
917.603	15104
917.715	15226
917.826	15241
917.938	15074
918.049	15020
918.161	15058
918.272	15142
918.384	15173
918.495	15119
918.606	14937
918.717	14887
918.828	14952
918.939	14876
919.05	14834
919.161	14895
919.272	14758
919.383	14815
919.494	14944
919.604	15116
919.715	14891
919.826	14785
919.936	14849
920.047	14918
920.157	14880
920.267	15028
920.378	14868
920.488	14785
920.598	15020
920.708	15104
920.818	15051
920.928	14990
921.038	15207
921.148	15039
921.258	14800
921.368	14727
921.477	14617
921.587	14651
921.697	14476
921.806	14583
921.916	14518
922.025	14298
922.134	14225
922.244	14176
922.353	14244
922.462	14161
922.571	14046
922.68	13989
922.789	13875
922.898	13776
923.007	13814
923.116	13879
923.224	13970
923.333	13887
923.442	13693
923.55	13734
923.659	13776
923.767	13803
923.876	13719
923.984	13674
924.092	13575
924.201	13693
924.309	13655
924.417	13677
924.525	13552
924.633	13601
924.741	14233
924.849	13255
924.956	13445
925.064	13327
925.172	13244
925.279	13221
925.387	13308
925.494	13308
925.602	13362
925.709	13381
925.816	13137
925.924	13183
926.031	13251
926.138	13221
926.245	13263
926.352	13091
926.459	13209
926.566	13194
926.673	13114
926.779	12993
926.886	12939
926.993	12890
927.099	12867
927.206	12783
927.312	12753
927.419	12947
927.525	12852
927.631	12840
927.737	12749
927.843	12646
927.95	12578
928.056	12631
928.162	12593
928.267	12738
928.373	13209
928.479	12669
928.585	12506
928.69	12642
928.796	12654
928.901	12528
929.007	12311
929.112	12506
929.218	12460
929.323	12376
929.428	12311
929.533	12437
929.638	12384
929.743	12277
929.848	12391
929.953	12311
930.058	12266
930.163	12019
930.267	12041
930.372	12186
930.477	12064
930.581	12270
930.685	12045
930.79	12003
930.894	12019
930.998	11904
931.103	12038
931.207	11684
931.311	11615
931.415	11486
931.519	11204
931.623	11311
