Data from test_V78500241_2685.txt Node
Date: Fri Mar 25 16:00:24 CST 2022
User: usil
Spectrometer: V785-0024
Trigger mode: 0
Integration Time (sec): 4.000000E-1
Scans to average: 1
Nonlinearity correction enabled: false
Boxcar width: 0
Storing dark spectrum: false
XAxis mode: Wavelengths
Number of Pixels in Spectrum: 1024
>>>>>Begin Spectral Data<<<<<
801.071	28702
801.214	28668
801.356	28432
801.499	28497
801.641	28451
801.783	28344
801.926	28409
802.068	28325
802.211	28306
802.353	28329
802.496	28097
802.638	28036
802.78	27998
802.923	27941
803.065	27857
803.208	28090
803.35	28112
803.492	28150
803.635	28219
803.777	28139
803.919	28291
804.061	28599
804.204	28242
804.346	28322
804.488	28257
804.63	28200
804.773	28284
804.915	28424
805.057	28272
805.199	28280
805.341	28455
805.483	28428
805.626	28546
805.768	28424
805.91	28512
806.052	28550
806.194	28459
806.336	28679
806.478	28478
806.62	28474
806.762	28637
806.904	28835
807.046	28980
807.188	28953
807.33	28927
807.472	28938
807.614	28869
807.756	28927
807.898	28649
808.04	28580
808.182	28820
808.324	28946
808.465	28934
808.607	29094
808.749	29147
808.891	29231
809.033	29452
809.174	29216
809.316	29227
809.458	29025
809.6	29090
809.741	29360
809.883	29193
810.025	29490
810.166	29414
810.308	29493
810.45	29524
810.591	29353
810.733	29140
810.875	29166
811.016	28919
811.158	29166
811.299	29181
811.441	29326
811.582	29235
811.724	29292
811.865	29204
812.007	29025
812.148	29208
812.29	29334
812.431	29337
812.573	29592
812.714	29577
812.855	29733
812.997	29756
813.138	29965
813.279	29882
813.421	29870
813.562	29646
813.703	29615
813.845	29341
813.986	29132
814.127	28938
814.268	28873
814.41	29018
814.551	28869
814.692	29044
814.833	28972
814.974	28896
815.115	28839
815.256	28596
815.397	28694
815.539	28767
815.68	28824
815.821	28474
815.962	28812
816.103	28778
816.244	28546
816.385	28489
816.526	28466
816.666	28226
816.807	28124
816.948	28386
817.089	28280
817.23	28325
817.371	28348
817.512	28295
817.653	28219
817.793	28093
817.934	28291
818.075	28238
818.216	28234
818.356	28223
818.497	28078
818.638	28135
818.778	27960
818.919	28082
819.06	27991
819.2	28192
819.341	28173
819.481	28329
819.622	28455
819.762	28538
819.903	28519
820.043	28322
820.184	28348
820.324	28234
820.465	28481
820.605	28527
820.746	28356
820.886	28078
821.026	28295
821.167	28360
821.307	28352
821.447	28272
821.588	28120
821.728	28070
821.868	27937
822.008	27713
822.149	27660
822.289	27660
822.429	27500
822.569	27336
822.709	27477
822.849	27249
822.99	27393
823.13	27214
823.27	27165
823.41	26967
823.55	26872
823.69	27142
823.83	27062
823.97	26895
824.11	26933
824.25	26842
824.389	26800
824.529	27036
824.669	27001
824.809	26956
824.949	27062
825.089	26948
825.228	26967
825.368	26712
825.508	26651
825.648	26712
825.787	26686
825.927	26762
826.067	26834
826.206	26758
826.346	26796
826.485	26769
826.625	26754
826.765	26883
826.904	26826
827.044	26552
827.183	26537
827.323	26400
827.462	26682
827.601	26511
827.741	26621
827.88	26575
828.02	26309
828.159	26431
828.298	26404
828.437	26507
828.577	26457
828.716	26564
828.855	26282
828.994	26252
829.134	26088
829.273	26218
829.412	26027
829.551	26092
829.69	26103
829.829	26309
829.968	26294
830.107	26153
830.246	26126
830.385	26012
830.524	26081
830.663	25986
830.802	25830
830.941	25746
831.08	25670
831.219	25860
831.357	25761
831.496	26065
831.635	25898
831.774	25731
831.913	25662
832.051	25674
832.19	25586
832.329	25575
832.467	25548
832.606	25324
832.744	25384
832.883	25365
833.022	25289
833.16	25415
833.299	25449
833.437	25422
833.576	25601
833.714	25537
833.852	25597
833.991	25616
834.129	25632
834.267	25662
834.406	25544
834.544	25563
834.682	25479
834.821	25540
834.959	25521
835.097	25403
835.235	25449
835.373	25460
835.511	25479
835.65	25521
835.788	25369
835.926	25297
836.064	25114
836.202	25232
836.34	25320
836.478	25346
836.615	25263
836.753	25293
836.891	25479
837.029	25247
837.167	25316
837.305	25179
837.443	25114
837.58	25095
837.718	25118
837.856	25095
837.993	25053
838.131	25160
838.269	25088
838.406	25042
838.544	24875
838.681	24730
838.819	24962
838.956	24578
839.094	24547
839.231	24700
839.369	24719
839.506	24882
839.643	24833
839.781	24544
839.918	24616
840.055	24658
840.193	24544
840.33	24483
840.467	24544
840.604	24616
840.742	24616
840.879	24330
841.016	24422
841.153	24357
841.29	24589
841.427	24395
841.564	24620
841.701	24517
841.838	24494
841.975	24346
842.112	24429
842.249	24372
842.385	24334
842.522	24517
842.659	24452
842.796	24148
842.933	24350
843.069	24258
843.206	24209
843.343	24220
843.479	24304
843.616	24300
843.752	24194
843.889	23988
844.025	24117
844.162	23954
844.298	24159
844.435	23973
844.571	24011
844.708	24026
844.844	24239
844.98	24171
845.117	24178
845.253	23946
845.389	23790
845.525	23927
845.661	23893
845.798	23756
845.934	23775
846.07	23737
846.206	23802
846.342	23882
846.478	23729
846.614	23619
846.75	23433
846.886	23566
847.022	23634
847.158	23433
847.294	23493
847.429	23474
847.565	23452
847.701	23680
847.837	23398
847.972	23200
848.108	23311
848.244	23292
848.379	23048
848.515	23143
848.65	23018
848.786	23105
848.921	23159
849.057	23235
849.192	23197
849.328	23155
849.463	23014
849.598	23060
849.734	22915
849.869	22923
850.004	22885
850.14	22919
850.275	22866
850.41	22805
850.545	22805
850.68	22752
850.815	22862
850.95	22869
851.085	22991
851.22	22930
851.355	22820
851.49	22911
851.625	22869
851.76	22759
851.895	22782
852.03	22653
852.165	22915
852.299	22889
852.434	22877
852.569	22938
852.703	22919
852.838	22915
852.973	22934
853.107	22957
853.242	22847
853.376	22683
853.511	22611
853.645	22656
853.78	22755
853.914	22793
854.048	22672
854.183	22588
854.317	22729
854.451	22786
854.585	22611
854.72	22637
854.854	22706
854.988	22523
855.122	22626
855.256	22519
855.39	22641
855.524	22649
855.658	22683
855.792	22687
855.926	22698
856.06	22793
856.194	22641
856.327	22565
856.461	22679
856.595	22592
856.729	22641
856.862	22892
856.996	22683
857.13	22759
857.263	22740
857.397	22767
857.53	22778
857.664	22637
857.797	22820
857.931	22771
858.064	22687
858.197	22805
858.331	22710
858.464	22580
858.597	22573
858.731	22622
858.864	22550
858.997	22740
859.13	22641
859.263	22763
859.396	22641
859.529	22668
859.662	22489
859.795	22588
859.928	22664
860.061	22843
860.194	22889
860.327	22778
860.46	22653
860.592	22850
860.725	22736
860.858	22828
860.99	22687
861.123	22603
861.256	22615
861.388	22744
861.521	23208
861.653	22527
861.786	22417
861.918	22531
862.05	22569
862.183	22683
862.315	22672
862.447	22649
862.58	22584
862.712	22519
862.844	22405
862.976	22417
863.108	22424
863.24	22858
863.372	22462
863.504	22382
863.636	22386
863.768	22379
863.9	22367
864.032	22268
864.164	22409
864.296	22493
864.428	22421
864.559	22379
864.691	22523
864.823	22428
864.954	22322
865.086	22306
865.217	22207
865.349	22196
865.48	22265
865.612	22112
865.743	22287
865.875	22375
866.006	22223
866.137	22204
866.269	22280
866.4	22169
866.531	22204
866.662	22116
866.793	22078
866.924	22188
867.055	22139
867.186	22166
867.317	22185
867.448	22116
867.579	22246
867.71	22101
867.841	22192
867.972	22207
868.103	22200
868.233	22196
868.364	22200
868.495	22341
868.625	22485
868.756	22455
868.886	22348
869.017	22375
869.147	22451
869.278	22519
869.408	22352
869.539	22367
869.669	22523
869.799	22512
869.929	22519
870.06	22561
870.19	22782
870.32	22592
870.45	22752
870.58	22854
870.71	22949
870.84	22968
870.97	22729
871.1	22866
871.23	23025
871.36	22953
871.489	22930
871.619	22904
871.749	23094
871.879	23014
872.008	23166
872.138	22976
872.267	22965
872.397	22980
872.526	22923
872.656	22946
872.785	22972
872.915	23025
873.044	23147
873.173	23022
873.303	23014
873.432	23044
873.561	23048
873.69	23121
873.819	23109
873.948	23181
874.077	23083
874.206	23079
874.335	23121
874.464	23044
874.593	23311
874.722	23239
874.851	23372
874.979	23383
875.108	23501
875.237	23239
875.365	23288
875.494	23212
875.623	23337
875.751	23220
875.88	23277
876.008	23471
876.136	23554
876.265	23733
876.393	23775
876.521	23726
876.65	23680
876.778	23764
876.906	23634
877.034	23646
877.162	23566
877.29	23566
877.418	23611
877.546	23722
877.674	23615
877.802	23627
877.93	23623
878.058	23577
878.185	23414
878.313	23478
878.441	23581
878.568	23448
878.696	23505
878.824	23665
878.951	23657
879.079	23771
879.206	23885
879.333	23798
879.461	23737
879.588	23691
879.715	23847
879.842	23855
879.97	23665
880.097	23535
880.224	23425
880.351	23417
880.478	23368
880.605	23520
880.732	23535
880.859	23585
880.986	23558
881.112	23539
881.239	23341
881.366	23006
881.493	22938
881.619	23037
881.746	23098
881.872	22953
881.999	22984
882.125	22831
882.252	22908
882.378	22927
882.505	23025
882.631	22816
882.757	22767
882.883	22828
883.01	22531
883.136	22584
883.262	22478
883.388	22512
883.514	22653
883.64	22805
883.766	22584
883.892	22394
884.018	22443
884.143	22535
884.269	22641
884.395	22386
884.52	22322
884.646	22409
884.772	22261
884.897	22204
885.023	22417
885.148	22367
885.274	22413
885.399	22280
885.524	22344
885.65	22402
885.775	22314
885.9	22234
886.025	22341
886.15	22325
886.275	22090
886.4	22223
886.525	22379
886.65	22230
886.775	22166
886.9	22451
887.025	22432
887.149	22314
887.274	22067
887.399	22067
887.523	22032
887.648	21972
887.773	22006
887.897	22078
888.021	22032
888.146	21983
888.27	22093
888.395	22116
888.519	22059
888.643	22048
888.767	22097
888.891	22051
889.015	21861
889.139	21949
889.263	21823
889.387	21915
889.511	22017
889.635	21876
889.759	21781
889.883	21778
890.006	21903
890.13	21930
890.254	21865
890.377	21759
890.501	21705
890.624	21622
890.748	21557
890.871	21534
890.995	21344
891.118	21397
891.241	21424
891.364	21458
891.488	21504
891.611	21454
891.734	21408
891.857	21458
891.98	21283
892.103	21454
892.226	21355
892.349	21367
892.471	21176
892.594	21298
892.717	21294
892.839	21291
892.962	21473
893.085	21291
893.207	21222
893.33	21173
893.452	21203
893.575	21370
893.697	21393
893.819	21545
893.941	21473
894.064	21310
894.186	21317
894.308	21009
894.43	21283
894.552	21473
894.674	21386
894.796	21230
894.918	21230
895.04	21268
895.161	21382
895.283	21291
895.405	21157
895.526	21367
895.648	21169
895.769	21188
895.891	21230
896.012	21359
896.134	21241
896.255	21260
896.376	21256
896.498	21245
896.619	21268
896.74	21230
896.861	21169
896.982	21492
897.103	21648
897.224	21462
897.345	21526
897.466	21329
897.587	21378
897.708	21591
897.828	21542
897.949	21443
898.07	21188
898.19	21374
898.311	21485
898.431	21374
898.552	21454
898.672	21599
898.792	21477
898.913	21454
899.033	21298
899.153	21203
899.273	21135
899.393	21351
899.513	21256
899.633	21291
899.753	21211
899.873	21085
899.993	21203
900.113	21218
900.232	21085
900.352	21123
900.472	21017
900.591	20960
900.711	21039
900.83	20933
900.95	21085
901.069	21043
901.189	20785
901.308	20583
901.427	20545
901.546	20530
901.665	20442
901.784	20518
901.904	20362
902.023	20381
902.141	20107
902.26	20084
902.379	20145
902.498	20012
902.617	20050
902.735	20058
902.854	20016
902.973	19921
903.091	19643
903.21	19575
903.328	19734
903.446	19487
903.565	19457
903.683	19506
903.801	19331
903.919	19422
904.038	19400
904.156	19232
904.274	19175
904.392	19126
904.51	19137
904.627	19244
904.745	19194
904.863	19289
904.981	19088
905.098	18943
905.216	18856
905.334	18814
905.451	18875
905.569	18798
905.686	19012
905.803	18920
905.921	18604
906.038	18738
906.155	18612
906.272	18547
906.389	18502
906.506	18407
906.623	18490
906.74	18471
906.857	18273
906.974	18403
907.091	18433
907.208	18441
907.324	18475
907.441	18197
907.557	18144
907.674	18053
907.79	18034
907.907	18186
908.023	18049
908.139	18091
908.256	18091
908.372	17942
908.488	18026
908.604	17897
908.72	17821
908.836	17836
908.952	17680
909.068	17931
909.184	17927
909.3	17695
909.415	17809
909.531	17809
909.647	17634
909.762	17471
909.878	17429
909.993	17577
910.108	17455
910.224	17512
910.339	17455
910.454	17455
910.57	17383
910.685	17273
910.8	17562
910.915	17429
911.03	17337
911.145	17121
911.259	17102
911.374	17071
911.489	17105
911.604	16946
911.718	16790
911.833	16831
911.947	16881
912.062	16801
912.176	16809
912.291	16873
912.405	16809
912.519	17041
912.633	16995
912.748	16812
912.862	16755
912.976	16706
913.09	16497
913.204	16554
913.318	16683
913.431	16736
913.545	16744
913.659	16656
913.772	16577
913.886	16565
914	16424
914.113	16451
914.226	16573
914.34	16508
914.453	16287
914.566	16462
914.68	16344
914.793	16333
914.906	16059
915.019	15994
915.132	15953
915.245	16013
915.358	15979
915.47	16017
915.583	15964
915.696	16055
915.809	16131
915.921	16097
916.034	15907
916.146	15827
916.259	15949
916.371	15941
916.483	15926
916.595	15850
916.708	15823
916.82	15797
916.932	15785
917.044	15766
917.156	15770
917.268	15641
917.38	15618
917.491	15523
917.603	15667
917.715	15679
917.826	15736
917.938	15542
918.049	15496
918.161	15515
918.272	15774
918.384	15698
918.495	15507
918.606	15294
918.717	15351
918.828	15450
918.939	15325
919.05	15348
919.161	15416
919.272	15131
919.383	15218
919.494	15344
919.604	15584
919.715	15367
919.826	15127
919.936	15260
920.047	15340
920.157	15310
920.267	15485
920.378	15329
920.488	15268
920.598	15435
920.708	15633
920.818	15428
920.928	15462
921.038	15523
921.148	15515
921.258	15291
921.368	15089
921.477	15017
921.587	15055
921.697	14960
921.806	14990
921.916	14929
922.025	14727
922.134	14583
922.244	14678
922.353	14648
922.462	14579
922.571	14442
922.68	14343
922.789	14385
922.898	14339
923.007	14153
923.116	14347
923.224	14347
923.333	14263
923.442	14172
923.55	14157
923.659	14103
923.767	14225
923.876	14046
923.984	14077
924.092	13940
924.201	14016
924.309	14012
924.417	14035
924.525	13947
924.633	13978
924.741	14906
924.849	13734
924.956	13902
925.064	13776
925.172	13597
925.279	13632
925.387	13780
925.494	13738
925.602	13830
925.709	13677
925.816	13529
925.924	13628
926.031	13674
926.138	13628
926.245	13643
926.352	13514
926.459	13666
926.566	13738
926.673	13480
926.779	13441
926.886	13483
926.993	13316
927.099	13202
927.206	13110
927.312	13061
927.419	13274
927.525	13202
927.631	13297
927.737	13129
927.843	13145
927.95	12954
928.056	12951
928.162	13149
928.267	13061
928.373	13510
928.479	13019
928.585	12844
928.69	12932
928.796	13023
928.901	12859
929.007	12696
929.112	12840
929.218	12871
929.323	12757
929.428	12852
929.533	12920
929.638	12620
929.743	12635
929.848	12814
929.953	12627
930.058	12540
930.163	12452
930.267	12357
930.372	12570
930.477	12380
930.581	12582
930.685	12532
930.79	12289
930.894	12232
930.998	12285
931.103	12342
931.207	11984
931.311	11931
931.415	11851
931.519	11619
931.623	11532
