Data from test_V78500241_2329.txt Node
Date: Fri Mar 25 15:57:56 CST 2022
User: usil
Spectrometer: V785-0024
Trigger mode: 0
Integration Time (sec): 4.000000E-1
Scans to average: 1
Nonlinearity correction enabled: false
Boxcar width: 0
Storing dark spectrum: false
XAxis mode: Wavelengths
Number of Pixels in Spectrum: 1024
>>>>>Begin Spectral Data<<<<<
801.071	28706
801.214	28831
801.356	28538
801.499	28512
801.641	28519
801.783	28200
801.926	28546
802.068	28375
802.211	28348
802.353	28048
802.496	28154
802.638	28158
802.78	28116
802.923	27975
803.065	28063
803.208	27911
803.35	28234
803.492	28299
803.635	28261
803.777	28124
803.919	28287
804.061	28653
804.204	28382
804.346	28303
804.488	28352
804.63	28215
804.773	28246
804.915	28455
805.057	28489
805.199	28352
805.341	28371
805.483	28596
805.626	28542
805.768	28341
805.91	28489
806.052	28451
806.194	28478
806.336	28702
806.478	28535
806.62	28565
806.762	28698
806.904	28763
807.046	29014
807.188	28812
807.33	28888
807.472	28999
807.614	28980
807.756	28927
807.898	28850
808.04	28774
808.182	28752
808.324	28729
808.465	29025
808.607	29060
808.749	29075
808.891	29143
809.033	29474
809.174	29220
809.316	29102
809.458	29220
809.6	29166
809.741	29265
809.883	29246
810.025	29467
810.166	29429
810.308	29486
810.45	29433
810.591	29391
810.733	29250
810.875	29239
811.016	29136
811.158	28991
811.299	29261
811.441	29509
811.582	29273
811.724	29121
811.865	29189
812.007	29124
812.148	29227
812.29	29360
812.431	29417
812.573	29528
812.714	29589
812.855	29646
812.997	29752
813.138	29946
813.279	29836
813.421	29756
813.562	29722
813.703	29414
813.845	29455
813.986	29143
814.127	29006
814.268	28934
814.41	28923
814.551	28904
814.692	28930
814.833	28900
814.974	28942
815.115	28999
815.256	28850
815.397	28717
815.539	28748
815.68	28744
815.821	28641
815.962	28744
816.103	28786
816.244	28573
816.385	28592
816.526	28447
816.666	28299
816.807	28131
816.948	28291
817.089	28276
817.23	28196
817.371	28181
817.512	28246
817.653	28135
817.793	28086
817.934	28078
818.075	28051
818.216	28196
818.356	28215
818.497	28211
818.638	27964
818.778	27991
818.919	28044
819.06	28029
819.2	28196
819.341	28249
819.481	28143
819.622	28417
819.762	28538
819.903	28352
820.043	28363
820.184	28280
820.324	28299
820.465	28386
820.605	28413
820.746	28428
820.886	28173
821.026	28306
821.167	28325
821.307	28348
821.447	28238
821.588	28223
821.728	28090
821.868	27972
822.008	27686
822.149	27808
822.289	27637
822.429	27416
822.569	27306
822.709	27393
822.849	27169
822.99	27252
823.13	27211
823.27	27135
823.41	26960
823.55	26887
823.69	27020
823.83	27005
823.97	27028
824.11	26804
824.25	26849
824.389	26960
824.529	26979
824.669	26811
824.809	27024
824.949	27123
825.089	27013
825.228	26788
825.368	26689
825.508	26716
825.648	26701
825.787	26788
825.927	26849
826.067	26636
826.206	26830
826.346	26838
826.485	26750
826.625	26746
826.765	26777
826.904	26765
827.044	26533
827.183	26530
827.323	26419
827.462	26549
827.601	26457
827.741	26476
827.88	26533
828.02	26343
828.159	26518
828.298	26286
828.437	26560
828.577	26400
828.716	26473
828.855	26305
828.994	26122
829.134	26267
829.273	26248
829.412	26301
829.551	26008
829.69	26107
829.829	26183
829.968	26290
830.107	26263
830.246	26122
830.385	26031
830.524	26081
830.663	25925
830.802	26020
830.941	25795
831.08	25750
831.219	25772
831.357	25666
831.496	26005
831.635	25826
831.774	25639
831.913	25658
832.051	25544
832.19	25495
832.329	25639
832.467	25479
832.606	25441
832.744	25377
832.883	25521
833.022	25369
833.16	25434
833.299	25377
833.437	25537
833.576	25457
833.714	25464
833.852	25487
833.991	25479
834.129	25616
834.267	25479
834.406	25525
834.544	25681
834.682	25468
834.821	25403
834.959	25605
835.097	25324
835.235	25537
835.373	25597
835.511	25384
835.65	25396
835.788	25369
835.926	25179
836.064	25213
836.202	25202
836.34	25236
836.478	25377
836.615	25297
836.753	25266
836.891	25331
837.029	25259
837.167	25304
837.305	25232
837.443	25198
837.58	25099
837.718	25217
837.856	25160
837.993	25065
838.131	25023
838.269	24913
838.406	24943
838.544	24958
838.681	24863
838.819	24817
838.956	24734
839.094	24536
839.231	24875
839.369	24673
839.506	24981
839.643	24882
839.781	24604
839.918	24357
840.055	24650
840.193	24589
840.33	24498
840.467	24509
840.604	24509
840.742	24677
840.879	24327
841.016	24365
841.153	24418
841.29	24642
841.427	24513
841.564	24452
841.701	24441
841.838	24304
841.975	24437
842.112	24448
842.249	24361
842.385	24266
842.522	24540
842.659	24186
842.796	24270
842.933	24281
843.069	24270
843.206	24232
843.343	24334
843.479	24159
843.616	24144
843.752	23923
843.889	24011
844.025	24133
844.162	23950
844.298	24117
844.435	23973
844.571	24114
844.708	24163
844.844	24083
844.98	24155
845.117	24190
845.253	23927
845.389	23882
845.525	23950
845.661	23882
845.798	23809
845.934	23783
846.07	23703
846.206	23779
846.342	23779
846.478	23684
846.614	23627
846.75	23436
846.886	23429
847.022	23497
847.158	23570
847.294	23501
847.429	23577
847.565	23406
847.701	23741
847.837	23105
847.972	23223
848.108	23379
848.244	23254
848.379	23014
848.515	23067
848.65	23052
848.786	23124
848.921	22972
849.057	23143
849.192	23170
849.328	23136
849.463	23029
849.598	23018
849.734	22835
849.869	22949
850.004	22771
850.14	22854
850.275	22858
850.41	22675
850.545	22828
850.68	22771
850.815	22786
850.95	22850
851.085	22946
851.22	22877
851.355	22843
851.49	22809
851.625	22843
851.76	22816
851.895	22679
852.03	22736
852.165	22725
852.299	22934
852.434	22934
852.569	22847
852.703	22721
852.838	22850
852.973	22911
853.107	22991
853.242	22668
853.376	22649
853.511	22542
853.645	22557
853.78	22672
853.914	22630
854.048	22607
854.183	22611
854.317	22675
854.451	22793
854.585	22656
854.72	22588
854.854	22736
854.988	22626
855.122	22812
855.256	22455
855.39	22611
855.524	22569
855.658	22694
855.792	22687
855.926	22649
856.06	22603
856.194	22706
856.327	22656
856.461	22497
856.595	22599
856.729	22470
856.862	22725
856.996	22656
857.13	22645
857.263	22672
857.397	22702
857.53	22615
857.664	22668
857.797	22774
857.931	22577
858.064	22626
858.197	22710
858.331	22588
858.464	22504
858.597	22489
858.731	22706
858.864	22607
858.997	22580
859.13	22592
859.263	22622
859.396	22736
859.529	22523
859.662	22550
859.795	22489
859.928	22615
860.061	22824
860.194	22957
860.327	22778
860.46	22672
860.592	22850
860.725	22786
860.858	22774
860.99	22660
861.123	22588
861.256	22531
861.388	22626
861.521	23181
861.653	22497
861.786	22409
861.918	22352
862.05	22432
862.183	22618
862.315	22470
862.447	22592
862.58	22508
862.712	22413
862.844	22363
862.976	22360
863.108	22337
863.24	22869
863.372	22352
863.504	22333
863.636	22325
863.768	22352
863.9	22325
864.032	22375
864.164	22348
864.296	22417
864.428	22451
864.559	22325
864.691	22360
864.823	22295
864.954	22291
865.086	22268
865.217	22200
865.349	22124
865.48	22090
865.612	22128
865.743	22246
865.875	22150
866.006	22120
866.137	22207
866.269	22181
866.4	22322
866.531	22181
866.662	22044
866.793	22105
866.924	22257
867.055	22287
867.186	22059
867.317	22128
867.448	21979
867.579	22169
867.71	22059
867.841	22101
867.972	22169
868.103	22196
868.233	22044
868.364	22150
868.495	22329
868.625	22261
868.756	22569
868.886	22379
869.017	22462
869.147	22303
869.278	22527
869.408	22390
869.539	22390
869.669	22375
869.799	22500
869.929	22440
870.06	22489
870.19	22656
870.32	22675
870.45	22637
870.58	22805
870.71	22934
870.84	22873
870.97	22649
871.1	22698
871.23	22930
871.36	23014
871.489	22782
871.619	22885
871.749	23025
871.879	23003
872.008	23174
872.138	22930
872.267	22892
872.397	22862
872.526	22858
872.656	22786
872.785	22733
872.915	22995
873.044	23037
873.173	23003
873.303	22938
873.432	22999
873.561	23178
873.69	23064
873.819	23102
873.948	22961
874.077	23033
874.206	22904
874.335	22923
874.464	23200
874.593	23117
874.722	23155
874.851	23181
874.979	23200
875.108	23269
875.237	23121
875.365	23018
875.494	23265
875.623	23341
875.751	23143
875.88	23269
876.008	23280
876.136	23395
876.265	23623
876.393	23710
876.521	23695
876.65	23596
876.778	23680
876.906	23634
877.034	23661
877.162	23581
877.29	23406
877.418	23642
877.546	23455
877.674	23463
877.802	23680
877.93	23528
878.058	23497
878.185	23429
878.313	23440
878.441	23478
878.568	23296
878.696	23524
878.824	23589
878.951	23691
879.079	23687
879.206	23783
879.333	23707
879.461	23543
879.588	23596
879.715	23623
879.842	23851
879.97	23448
880.097	23414
880.224	23220
880.351	23493
880.478	23326
880.605	23273
880.732	23360
880.859	23554
880.986	23326
881.112	23250
881.239	23155
881.366	23121
881.493	22995
881.619	22957
881.746	23003
881.872	22987
881.999	22801
882.125	22854
882.252	22927
882.378	22946
882.505	23056
882.631	22869
882.757	22687
882.883	22675
883.01	22634
883.136	22668
883.262	22466
883.388	22497
883.514	22466
883.64	22668
883.766	22386
883.892	22314
884.018	22333
884.143	22497
884.269	22637
884.395	22200
884.52	22173
884.646	22150
884.772	22116
884.897	22131
885.023	22322
885.148	22314
885.274	22405
885.399	22329
885.524	22147
885.65	22173
885.775	22173
885.9	22226
886.025	22318
886.15	22226
886.275	22196
886.4	22128
886.525	22010
886.65	22135
886.775	22185
886.9	22280
887.025	22428
887.149	22249
887.274	22055
887.399	22040
887.523	21987
887.648	21915
887.773	21880
887.897	22044
888.021	21968
888.146	21876
888.27	22032
888.395	22067
888.519	21937
888.643	22078
888.767	21983
888.891	21876
889.015	21698
889.139	21831
889.263	21682
889.387	21968
889.511	21945
889.635	21743
889.759	21808
889.883	21751
890.006	21686
890.13	21869
890.254	21644
890.377	21759
890.501	21523
890.624	21367
890.748	21507
890.871	21431
890.995	21302
891.118	21260
891.241	21374
891.364	21272
891.488	21424
891.611	21351
891.734	21351
891.857	21386
891.98	21317
892.103	21359
892.226	21389
892.349	21100
892.471	20956
892.594	21199
892.717	21176
892.839	21058
892.962	21188
893.085	21154
893.207	21192
893.33	21119
893.452	21146
893.575	21260
893.697	21116
893.819	21291
893.941	21249
894.064	21287
894.186	21138
894.308	21062
894.43	21264
894.552	21226
894.674	21249
894.796	21093
894.918	21214
895.04	21268
895.161	21207
895.283	21188
895.405	21066
895.526	21142
895.648	21245
895.769	21184
895.891	21184
896.012	21169
896.134	21218
896.255	21138
896.376	21161
896.498	21207
896.619	21287
896.74	21192
896.861	21150
896.982	21496
897.103	21580
897.224	21557
897.345	21416
897.466	21294
897.587	21389
897.708	21534
897.828	21370
897.949	21351
898.07	21192
898.19	21283
898.311	21393
898.431	21382
898.552	21424
898.672	21416
898.792	21336
898.913	21310
899.033	21336
899.153	21108
899.273	21017
899.393	21112
899.513	21207
899.633	21123
899.753	21138
899.873	20998
899.993	21100
900.113	21047
900.232	21112
900.352	21085
900.472	20982
900.591	20815
900.711	20971
900.83	20845
900.95	20925
901.069	20918
901.189	20758
901.308	20575
901.427	20347
901.546	20427
901.665	20476
901.784	20488
901.904	20267
902.023	20218
902.141	20008
902.26	19955
902.379	19967
902.498	19898
902.617	19833
902.735	19944
902.854	19791
902.973	19765
903.091	19578
903.21	19677
903.328	19601
903.446	19525
903.565	19403
903.683	19491
903.801	19289
903.919	19339
904.038	19362
904.156	19270
904.274	19255
904.392	19122
904.51	19126
904.627	19129
904.745	19141
904.863	19221
904.981	18962
905.098	18772
905.216	18882
905.334	18886
905.451	18802
905.569	18707
905.686	18939
905.803	18806
905.921	18604
906.038	18700
906.155	18616
906.272	18585
906.389	18521
906.506	18350
906.623	18342
906.74	18342
906.857	18323
906.974	18216
907.091	18357
907.208	18536
907.324	18357
907.441	18220
907.557	18140
907.674	18098
907.79	17996
907.907	17980
908.023	18098
908.139	18205
908.256	17996
908.372	17859
908.488	17882
908.604	17729
908.72	17627
908.836	17741
908.952	17741
909.068	17756
909.184	17859
909.3	17779
909.415	17783
909.531	17684
909.647	17490
909.762	17429
909.878	17425
909.993	17417
910.108	17505
910.224	17398
910.339	17414
910.454	17341
910.57	17273
910.685	17159
910.8	17417
910.915	17402
911.03	17170
911.145	17090
911.259	16987
911.374	17022
911.489	16987
911.604	16938
911.718	16717
911.833	16763
911.947	16653
912.062	16622
912.176	16797
912.291	16816
912.405	16725
912.519	16831
912.633	16892
912.748	16824
912.862	16675
912.976	16675
913.09	16558
913.204	16527
913.318	16599
913.431	16584
913.545	16698
913.659	16538
913.772	16535
913.886	16375
914	16394
914.113	16398
914.226	16398
914.34	16493
914.453	16124
914.566	16394
914.68	16280
914.793	16192
914.906	15903
915.019	15903
915.132	15895
915.245	15998
915.358	16021
915.47	15888
915.583	15884
915.696	16048
915.809	16036
915.921	16040
916.034	15895
916.146	15835
916.259	15842
916.371	15937
916.483	15816
916.595	15728
916.708	15698
916.82	15724
916.932	15713
917.044	15576
917.156	15660
917.268	15618
917.38	15641
917.491	15534
917.603	15534
917.715	15599
917.826	15587
917.938	15526
918.049	15401
918.161	15534
918.272	15633
918.384	15542
918.495	15443
918.606	15359
918.717	15192
918.828	15363
918.939	15378
919.05	15138
919.161	15241
919.272	15104
919.383	15112
919.494	15249
919.604	15454
919.715	15283
919.826	15176
919.936	15237
920.047	15431
920.157	15222
920.267	15473
920.378	15329
920.488	15154
920.598	15443
920.708	15492
920.818	15336
920.928	15340
921.038	15519
921.148	15526
921.258	15199
921.368	15089
921.477	14982
921.587	14944
921.697	14830
921.806	15017
921.916	14853
922.025	14674
922.134	14659
922.244	14530
922.353	14568
922.462	14522
922.571	14347
922.68	14206
922.789	14195
922.898	14221
923.007	14275
923.116	14168
923.224	14267
923.333	14229
923.442	14161
923.55	13959
923.659	14046
923.767	14195
923.876	13951
923.984	14046
924.092	13955
924.201	14054
924.309	13997
924.417	13921
924.525	13909
924.633	13944
924.741	14781
924.849	13693
924.956	13833
925.064	13715
925.172	13609
925.279	13734
925.387	13628
925.494	13647
925.602	13738
925.709	13620
925.816	13491
925.924	13533
926.031	13696
926.138	13548
926.245	13582
926.352	13441
926.459	13552
926.566	13594
926.673	13491
926.779	13430
926.886	13278
926.993	13209
927.099	13137
927.206	13103
927.312	13076
927.419	13190
927.525	13187
927.631	13175
927.737	13031
927.843	12962
927.95	12894
928.056	13031
928.162	13027
928.267	13042
928.373	13605
928.479	13019
928.585	12829
928.69	12856
928.796	12897
928.901	12757
929.007	12741
929.112	12806
929.218	12768
929.323	12623
929.428	12662
929.533	12779
929.638	12604
929.743	12608
929.848	12623
929.953	12608
930.058	12540
930.163	12292
930.267	12369
930.372	12464
930.477	12266
930.581	12540
930.685	12334
930.79	12205
930.894	12224
930.998	12144
931.103	12308
931.207	11931
931.311	11935
931.415	11786
931.519	11634
931.623	11554
