Data from test_V78500241_2221.txt Node
Date: Fri Mar 25 15:57:11 CST 2022
User: usil
Spectrometer: V785-0024
Trigger mode: 0
Integration Time (sec): 4.000000E-1
Scans to average: 1
Nonlinearity correction enabled: false
Boxcar width: 0
Storing dark spectrum: false
XAxis mode: Wavelengths
Number of Pixels in Spectrum: 1024
>>>>>Begin Spectral Data<<<<<
801.071	29071
801.214	29044
801.356	28717
801.499	28771
801.641	28672
801.783	28767
801.926	28702
802.068	28656
802.211	28645
802.353	28462
802.496	28440
802.638	28303
802.78	28280
802.923	28299
803.065	28394
803.208	28265
803.35	28318
803.492	28599
803.635	28634
803.777	28417
803.919	28645
804.061	28881
804.204	28736
804.346	28523
804.488	28538
804.63	28599
804.773	28565
804.915	28733
805.057	28713
805.199	28634
805.341	28854
805.483	28736
805.626	28812
805.768	28634
805.91	28790
806.052	28809
806.194	28630
806.336	29022
806.478	28740
806.62	28797
806.762	28995
806.904	29223
807.046	29353
807.188	29223
807.33	29254
807.472	29330
807.614	29159
807.756	29307
807.898	29181
808.04	28980
808.182	29052
808.324	29090
808.465	29086
808.607	29242
808.749	29356
808.891	29649
809.033	29634
809.174	29368
809.316	29463
809.458	29535
809.6	29509
809.741	29600
809.883	29703
810.025	29882
810.166	29672
810.308	29695
810.45	29714
810.591	29707
810.733	29562
810.875	29391
811.016	29375
811.158	29448
811.299	29646
811.441	29726
811.582	29786
811.724	29516
811.865	29482
812.007	29471
812.148	29638
812.29	29581
812.431	29840
812.573	29897
812.714	30030
812.855	30228
812.997	30053
813.138	30216
813.279	30125
813.421	30087
813.562	30049
813.703	29973
813.845	29687
813.986	29512
814.127	29345
814.268	29242
814.41	29322
814.551	29124
814.692	29311
814.833	29178
814.974	29250
815.115	29239
815.256	29128
815.397	29159
815.539	29143
815.68	28984
815.821	28942
815.962	29075
816.103	28930
816.244	28999
816.385	28949
816.526	28649
816.666	28744
816.807	28580
816.948	28691
817.089	28752
817.23	28577
817.371	28565
817.512	28637
817.653	28504
817.793	28360
817.934	28497
818.075	28611
818.216	28428
818.356	28436
818.497	28386
818.638	28371
818.778	28371
818.919	28356
819.06	28390
819.2	28535
819.341	28542
819.481	28618
819.622	28786
819.762	28885
819.903	28809
820.043	28858
820.184	28637
820.324	28664
820.465	28809
820.605	28782
820.746	28736
820.886	28672
821.026	28649
821.167	28622
821.307	28649
821.447	28615
821.588	28535
821.728	28257
821.868	28329
822.008	28150
822.149	28036
822.289	28017
822.429	27823
822.569	27842
822.709	27671
822.849	27618
822.99	27606
823.13	27557
823.27	27447
823.41	27454
823.55	27332
823.69	27340
823.83	27332
823.97	27317
824.11	27355
824.25	27195
824.389	27203
824.529	27192
824.669	27268
824.809	27348
824.949	27367
825.089	27450
825.228	27241
825.368	27077
825.508	27119
825.648	27146
825.787	27184
825.927	27195
826.067	27135
826.206	27070
826.346	27135
826.485	27161
826.625	27146
826.765	27173
826.904	27176
827.044	26982
827.183	26921
827.323	26853
827.462	26883
827.601	26883
827.741	26830
827.88	26781
828.02	26750
828.159	26815
828.298	26880
828.437	26762
828.577	26773
828.716	26773
828.855	26705
828.994	26526
829.134	26629
829.273	26469
829.412	26484
829.551	26419
829.69	26423
829.829	26446
829.968	26423
830.107	26473
830.246	26465
830.385	26275
830.524	26400
830.663	26267
830.802	26180
830.941	26130
831.08	26138
831.219	26122
831.357	26020
831.496	26229
831.635	26172
831.774	26081
831.913	25913
832.051	25951
832.19	25925
832.329	26008
832.467	25769
832.606	25670
832.744	25807
832.883	25723
833.022	25776
833.16	25628
833.299	25883
833.437	25864
833.576	25909
833.714	25890
833.852	25791
833.991	25818
834.129	25890
834.267	25989
834.406	25742
834.544	25788
834.682	25883
834.821	25868
834.959	25982
835.097	25715
835.235	26020
835.373	25833
835.511	25925
835.65	25613
835.788	25723
835.926	25567
836.064	25457
836.202	25464
836.34	25670
836.478	25723
836.615	25700
836.753	25655
836.891	25734
837.029	25712
837.167	25556
837.305	25632
837.443	25597
837.58	25499
837.718	25620
837.856	25537
837.993	25422
838.131	25495
838.269	25377
838.406	25343
838.544	25445
838.681	25152
838.819	25027
838.956	24992
839.094	24951
839.231	24981
839.369	25168
839.506	25133
839.643	25225
839.781	25008
839.918	24939
840.055	24924
840.193	24947
840.33	24905
840.467	24920
840.604	24890
840.742	25050
840.879	24817
841.016	24776
841.153	24798
841.29	25015
841.427	24810
841.564	24878
841.701	24787
841.838	24779
841.975	24684
842.112	24665
842.249	24616
842.385	24696
842.522	24738
842.659	24745
842.796	24486
842.933	24570
843.069	24555
843.206	24513
843.343	24673
843.479	24719
843.616	24509
843.752	24369
843.889	24391
844.025	24559
844.162	24372
844.298	24365
844.435	24330
844.571	24338
844.708	24338
844.844	24703
844.98	24498
845.117	24513
845.253	24232
845.389	24273
845.525	24163
845.661	24201
845.798	24079
845.934	24053
846.07	24072
846.206	24228
846.342	24209
846.478	23965
846.614	23912
846.75	23672
846.886	23832
847.022	23855
847.158	23703
847.294	23790
847.429	23840
847.565	23809
847.701	24072
847.837	23467
847.972	23611
848.108	23687
848.244	23699
848.379	23455
848.515	23501
848.65	23341
848.786	23463
848.921	23436
849.057	23402
849.192	23330
849.328	23474
849.463	23425
849.598	23322
849.734	23277
849.869	23258
850.004	23124
850.14	23166
850.275	23170
850.41	22961
850.545	23170
850.68	23067
850.815	23246
850.95	23109
851.085	23265
851.22	23174
851.355	23197
851.49	23296
851.625	23083
851.76	23216
851.895	23010
852.03	23121
852.165	23140
852.299	23170
852.434	23299
852.569	23121
852.703	23159
852.838	23273
852.973	23284
853.107	23265
853.242	23117
853.376	23075
853.511	22896
853.645	22938
853.78	23022
853.914	23109
854.048	22869
854.183	23060
854.317	23037
854.451	23181
854.585	23022
854.72	22972
854.854	22946
854.988	22972
855.122	22972
855.256	22881
855.39	22949
855.524	23132
855.658	23094
855.792	22831
855.926	23029
856.06	23037
856.194	23018
856.327	22908
856.461	22923
856.595	22869
856.729	22930
856.862	22953
856.996	22987
857.13	23067
857.263	23041
857.397	23010
857.53	22908
857.664	22923
857.797	23052
857.931	23033
858.064	23090
858.197	23117
858.331	23003
858.464	22896
858.597	22889
858.731	22980
858.864	22957
858.997	22869
859.13	22904
859.263	22980
859.396	23037
859.529	22976
859.662	22755
859.795	22987
859.928	23048
860.061	23162
860.194	23132
860.327	23067
860.46	23124
860.592	23178
860.725	23155
860.858	23090
860.99	22957
861.123	22919
861.256	22938
861.388	22980
861.521	23570
861.653	22866
861.786	22759
861.918	22843
862.05	22835
862.183	22873
862.315	22957
862.447	22915
862.58	22930
862.712	22729
862.844	22767
862.976	22820
863.108	22763
863.24	23143
863.372	22584
863.504	22645
863.636	22580
863.768	22706
863.9	22683
864.032	22584
864.164	22675
864.296	22717
864.428	22748
864.559	22824
864.691	22721
864.823	22713
864.954	22717
865.086	22618
865.217	22512
865.349	22455
865.48	22478
865.612	22459
865.743	22603
865.875	22577
866.006	22459
866.137	22436
866.269	22626
866.4	22485
866.531	22360
866.662	22413
866.793	22402
866.924	22451
867.055	22432
867.186	22386
867.317	22428
867.448	22360
867.579	22497
867.71	22459
867.841	22265
867.972	22527
868.103	22462
868.233	22386
868.364	22512
868.495	22478
868.625	22554
868.756	22820
868.886	22535
869.017	22641
869.147	22809
869.278	22904
869.408	22733
869.539	22725
869.669	22835
869.799	22797
869.929	22748
870.06	22679
870.19	23014
870.32	23033
870.45	23121
870.58	23086
870.71	23212
870.84	23239
870.97	23174
871.1	23052
871.23	23181
871.36	23345
871.489	23143
871.619	23254
871.749	23288
871.879	23265
872.008	23341
872.138	23429
872.267	23261
872.397	23208
872.526	23086
872.656	23113
872.785	23098
872.915	23311
873.044	23440
873.173	23299
873.303	23410
873.432	23448
873.561	23421
873.69	23402
873.819	23208
873.948	23406
874.077	23345
874.206	23376
874.335	23303
874.464	23459
874.593	23627
874.722	23459
874.851	23570
874.979	23600
875.108	23459
875.237	23372
875.365	23277
875.494	23551
875.623	23501
875.751	23520
875.88	23649
876.008	23649
876.136	23657
876.265	23920
876.393	23992
876.521	23984
876.65	23999
876.778	23939
876.906	23885
877.034	23904
877.162	23912
877.29	23870
877.418	23912
877.546	23809
877.674	23843
877.802	23805
877.93	23828
878.058	23783
878.185	23817
878.313	23775
878.441	23866
878.568	23687
878.696	23893
878.824	23889
878.951	23988
879.079	23988
879.206	24159
879.333	24057
879.461	23878
879.588	23863
879.715	24022
879.842	24098
879.97	23897
880.097	23604
880.224	23653
880.351	23764
880.478	23718
880.605	23649
880.732	23703
880.859	24057
880.986	23672
881.112	23710
881.239	23497
881.366	23486
881.493	23303
881.619	23098
881.746	23254
881.872	23242
881.999	23162
882.125	23220
882.252	23353
882.378	23296
882.505	23307
882.631	23010
882.757	22904
882.883	23071
883.01	22869
883.136	22740
883.262	22831
883.388	22596
883.514	23003
883.64	22942
883.766	22801
883.892	22550
884.018	22759
884.143	22774
884.269	22843
884.395	22561
884.52	22577
884.646	22527
884.772	22379
884.897	22348
885.023	22459
885.148	22679
885.274	22611
885.399	22622
885.524	22542
885.65	22497
885.775	22622
885.9	22519
886.025	22603
886.15	22508
886.275	22489
886.4	22413
886.525	22481
886.65	22459
886.775	22592
886.9	22554
887.025	22683
887.149	22443
887.274	22234
887.399	22333
887.523	22272
887.648	22363
887.773	22242
887.897	22295
888.021	22367
888.146	22234
888.27	22257
888.395	22455
888.519	22303
888.643	22314
888.767	22348
888.891	22253
889.015	22059
889.139	22112
889.263	22063
889.387	22253
889.511	22246
889.635	22124
889.759	21983
889.883	22059
890.006	22010
890.13	22215
890.254	22067
890.377	21888
890.501	21732
890.624	21781
890.748	21930
890.871	21713
890.995	21618
891.118	21549
891.241	21622
891.364	21648
891.488	21850
891.611	21504
891.734	21606
891.857	21561
891.98	21717
892.103	21595
892.226	21606
892.349	21507
892.471	21332
892.594	21401
892.717	21557
892.839	21523
892.962	21644
893.085	21618
893.207	21564
893.33	21408
893.452	21443
893.575	21564
893.697	21500
893.819	21778
893.941	21675
894.064	21686
894.186	21488
894.308	21439
894.43	21660
894.552	21682
894.674	21523
894.796	21317
894.918	21428
895.04	21405
895.161	21545
895.283	21603
895.405	21485
895.526	21473
895.648	21454
895.769	21549
895.891	21496
896.012	21485
896.134	21496
896.255	21564
896.376	21462
896.498	21374
896.619	21500
896.74	21473
896.861	21454
896.982	21895
897.103	21934
897.224	21652
897.345	21675
897.466	21580
897.587	21622
897.708	21724
897.828	21732
897.949	21587
898.07	21481
898.19	21603
898.311	21778
898.431	21492
898.552	21618
898.672	21614
898.792	21629
898.913	21656
899.033	21431
899.153	21466
899.273	21367
899.393	21336
899.513	21313
899.633	21473
899.753	21393
899.873	21256
899.993	21306
900.113	21294
900.232	21367
900.352	21260
900.472	21211
900.591	21036
900.711	21188
900.83	21017
900.95	21245
901.069	21252
901.189	20979
901.308	20762
901.427	20621
901.546	20644
901.665	20629
901.784	20693
901.904	20484
902.023	20454
902.141	20259
902.26	20256
902.379	20362
902.498	20199
902.617	20191
902.735	20206
902.854	20149
902.973	20084
903.091	19932
903.21	19856
903.328	19906
903.446	19715
903.565	19704
903.683	19681
903.801	19502
903.919	19575
904.038	19700
904.156	19415
904.274	19373
904.392	19483
904.51	19350
904.627	19324
904.745	19441
904.863	19388
904.981	19251
905.098	19065
905.216	19042
905.334	19091
905.451	19038
905.569	19107
905.686	19088
905.803	19065
905.921	18958
906.038	18962
906.155	18867
906.272	18871
906.389	18760
906.506	18597
906.623	18604
906.74	18585
906.857	18555
906.974	18544
907.091	18681
907.208	18612
907.324	18555
907.441	18494
907.557	18327
907.674	18285
907.79	18304
907.907	18281
908.023	18285
908.139	18342
908.256	18220
908.372	18182
908.488	18174
908.604	18125
908.72	18022
908.836	18022
908.952	18019
909.068	18087
909.184	18167
909.3	17977
909.415	18117
909.531	18053
909.647	17847
909.762	17805
909.878	17714
909.993	17699
910.108	17718
910.224	17638
910.339	17684
910.454	17505
910.57	17467
910.685	17429
910.8	17714
910.915	17695
911.03	17554
911.145	17360
911.259	17353
911.374	17204
911.489	17174
911.604	17121
911.718	16987
911.833	17018
911.947	16889
912.062	16949
912.176	17113
912.291	16934
912.405	16987
912.519	17280
912.633	17200
912.748	17083
912.862	17037
912.976	16984
913.09	16831
913.204	16782
913.318	16866
913.431	16972
913.545	16831
913.659	16942
913.772	16755
913.886	16618
914	16630
914.113	16729
914.226	16774
914.34	16637
914.453	16474
914.566	16675
914.68	16481
914.793	16428
914.906	16230
915.019	16173
915.132	16181
915.245	16188
915.358	16166
915.47	16192
915.583	16215
915.696	16150
915.809	16356
915.921	16223
916.034	16112
916.146	16124
916.259	16036
916.371	16116
916.483	16120
916.595	16109
916.708	15949
916.82	15880
916.932	15926
917.044	15869
917.156	15808
917.268	15816
917.38	15747
917.491	15770
917.603	15747
917.715	15915
917.826	15865
917.938	15671
918.049	15587
918.161	15690
918.272	15953
918.384	15816
918.495	15698
918.606	15629
918.717	15443
918.828	15477
918.939	15564
919.05	15412
919.161	15492
919.272	15237
919.383	15306
919.494	15447
919.604	15622
919.715	15511
919.826	15370
919.936	15481
920.047	15507
920.157	15496
920.267	15660
920.378	15564
920.488	15424
920.598	15614
920.708	15724
920.818	15610
920.928	15663
921.038	15633
921.148	15747
921.258	15332
921.368	15401
921.477	15207
921.587	15146
921.697	15074
921.806	15195
921.916	15032
922.025	14910
922.134	14834
922.244	14815
922.353	14861
922.462	14689
922.571	14587
922.68	14465
922.789	14438
922.898	14461
923.007	14404
923.116	14461
923.224	14488
923.333	14469
923.442	14355
923.55	14267
923.659	14305
923.767	14385
923.876	14214
923.984	14320
924.092	14221
924.201	14237
924.309	14103
924.417	14225
924.525	14027
924.633	14256
924.741	14804
924.849	13902
924.956	14058
925.064	13871
925.172	13795
925.279	13780
925.387	13795
925.494	13784
925.602	13909
925.709	13833
925.816	13742
925.924	13704
926.031	13837
926.138	13727
926.245	13693
926.352	13601
926.459	13693
926.566	13784
926.673	13719
926.779	13540
926.886	13491
926.993	13464
927.099	13358
927.206	13422
927.312	13324
927.419	13411
927.525	13392
927.631	13396
927.737	13289
927.843	13274
927.95	13126
928.056	13084
928.162	13194
928.267	13141
928.373	13883
928.479	13190
928.585	12981
928.69	13069
928.796	13095
928.901	13031
929.007	12875
929.112	12951
929.218	12928
929.323	12875
929.428	12932
929.533	12924
929.638	12798
929.743	12852
929.848	12795
929.953	12817
930.058	12654
930.163	12517
930.267	12582
930.372	12696
930.477	12441
930.581	12719
930.685	12547
930.79	12388
930.894	12422
930.998	12441
931.103	12566
931.207	12178
931.311	12072
931.415	11999
931.519	11733
931.623	11703
