Data from test_V78500241_516.txt Node
Date: Fri Mar 25 15:45:22 CST 2022
User: usil
Spectrometer: V785-0024
Trigger mode: 0
Integration Time (sec): 4.000000E-1
Scans to average: 1
Nonlinearity correction enabled: false
Boxcar width: 0
Storing dark spectrum: false
XAxis mode: Wavelengths
Number of Pixels in Spectrum: 1024
>>>>>Begin Spectral Data<<<<<
801.071	27112
801.214	27017
801.356	26914
801.499	26830
801.641	26701
801.783	26530
801.926	26651
802.068	26530
802.211	26571
802.353	26461
802.496	26298
802.638	26233
802.78	26400
802.923	26244
803.065	26187
803.208	26187
803.35	26275
803.492	26320
803.635	26533
803.777	26180
803.919	26336
804.061	26716
804.204	26469
804.346	26408
804.488	26103
804.63	26313
804.773	26187
804.915	26332
805.057	26564
805.199	26400
805.341	26564
805.483	26587
805.626	26526
805.768	26434
805.91	26522
806.052	26488
806.194	26431
806.336	26488
806.478	26549
806.62	26533
806.762	26670
806.904	26746
807.046	26910
807.188	26914
807.33	27051
807.472	27020
807.614	26804
807.756	26762
807.898	26819
808.04	26629
808.182	26705
808.324	26823
808.465	26731
808.607	26887
808.749	27127
808.891	27074
809.033	27321
809.174	27146
809.316	27112
809.458	27135
809.6	27195
809.741	27146
809.883	27169
810.025	27363
810.166	27279
810.308	27348
810.45	27374
810.591	27393
810.733	27127
810.875	27024
811.016	27074
811.158	26933
811.299	27294
811.441	27089
811.582	27112
811.724	27062
811.865	27028
812.007	26918
812.148	27081
812.29	27089
812.431	27199
812.573	27386
812.714	27291
812.855	27511
812.997	27671
813.138	27907
813.279	27747
813.421	27557
813.562	27519
813.703	27504
813.845	27241
813.986	27017
814.127	26857
814.268	26693
814.41	26762
814.551	26659
814.692	26876
814.833	26640
814.974	26632
815.115	26735
815.256	26587
815.397	26613
815.539	26530
815.68	26541
815.821	26469
815.962	26564
816.103	26339
816.244	26446
816.385	26271
816.526	26355
816.666	26138
816.807	26031
816.948	25974
817.089	26244
817.23	26092
817.371	26077
817.512	26138
817.653	26016
817.793	25966
817.934	25978
818.075	26020
818.216	26043
818.356	25898
818.497	25799
818.638	25757
818.778	25822
818.919	25909
819.06	25788
819.2	25940
819.341	25989
819.481	25887
819.622	25974
819.762	26240
819.903	26183
820.043	26180
820.184	26073
820.324	26062
820.465	26206
820.605	26020
820.746	26077
820.886	25902
821.026	26012
821.167	26027
821.307	26149
821.447	25974
821.588	25780
821.728	25761
821.868	25578
822.008	25499
822.149	25483
822.289	25479
822.429	25312
822.569	25236
822.709	25107
822.849	25019
822.99	24863
823.13	25042
823.27	24833
823.41	24825
823.55	24684
823.69	24848
823.83	24791
823.97	24669
824.11	24433
824.25	24517
824.389	24559
824.529	24555
824.669	24563
824.809	24719
824.949	24730
825.089	24696
825.228	24612
825.368	24327
825.508	24513
825.648	24441
825.787	24559
825.927	24585
826.067	24486
826.206	24433
826.346	24369
826.485	24490
826.625	24429
826.765	24467
826.904	24479
827.044	24251
827.183	24186
827.323	24064
827.462	24159
827.601	24030
827.741	24243
827.88	24216
828.02	24072
828.159	24064
828.298	24190
828.437	24098
828.577	24133
828.716	24330
828.855	24007
828.994	23885
829.134	23779
829.273	23824
829.412	23779
829.551	23855
829.69	23809
829.829	23889
829.968	23817
830.107	23961
830.246	23779
830.385	23756
830.524	23710
830.663	23566
830.802	23402
830.941	23512
831.08	23307
831.219	23623
831.357	23512
831.496	23687
831.635	23402
831.774	23326
831.913	23341
832.051	23269
832.19	23185
832.329	23379
832.467	23102
832.606	23086
832.744	22984
832.883	23124
833.022	22991
833.16	23086
833.299	23227
833.437	23204
833.576	23246
833.714	23124
833.852	23204
833.991	23159
834.129	23288
834.267	23318
834.406	23143
834.544	23193
834.682	23109
834.821	23102
834.959	23429
835.097	23064
835.235	23223
835.373	23056
835.511	23200
835.65	22923
835.788	22995
835.926	22824
836.064	22904
836.202	22869
836.34	23022
836.478	23029
836.615	23022
836.753	23022
836.891	23022
837.029	23094
837.167	22957
837.305	22816
837.443	22938
837.58	22908
837.718	22843
837.856	22816
837.993	22778
838.131	22786
838.269	22759
838.406	22736
838.544	22809
838.681	22360
838.819	22493
838.956	22303
839.094	22424
839.231	22394
839.369	22569
839.506	22641
839.643	22561
839.781	22318
839.918	22268
840.055	22226
840.193	22344
840.33	22238
840.467	22272
840.604	22261
840.742	22478
840.879	22139
841.016	22257
841.153	22021
841.29	22356
841.427	22265
841.564	22303
841.701	22200
841.838	22101
841.975	22196
842.112	22200
842.249	22109
842.385	22162
842.522	22375
842.659	22147
842.796	22082
842.933	21934
843.069	21945
843.206	21994
843.343	22135
843.479	22002
843.616	22109
843.752	21770
843.889	21842
844.025	21907
844.162	21831
844.298	21842
844.435	21759
844.571	21690
844.708	21850
844.844	21930
844.98	21918
845.117	21823
845.253	21717
845.389	21625
845.525	21682
845.661	21701
845.798	21488
845.934	21538
846.07	21572
846.206	21526
846.342	21633
846.478	21557
846.614	21317
846.75	21218
846.886	21329
847.022	21291
847.158	21199
847.294	21230
847.429	21340
847.565	21165
847.701	21572
847.837	21009
847.972	21047
848.108	20982
848.244	21077
848.379	21047
848.515	20830
848.65	20891
848.786	20895
848.921	20815
849.057	20967
849.192	20941
849.328	20990
849.463	20838
849.598	20773
849.734	20804
849.869	20765
850.004	20697
850.14	20663
850.275	20609
850.41	20602
850.545	20651
850.68	20663
850.815	20598
850.95	20648
851.085	20769
851.22	20727
851.355	20674
851.49	20636
851.625	20606
851.76	20522
851.895	20552
852.03	20495
852.165	20682
852.299	20609
852.434	20640
852.569	20670
852.703	20708
852.838	20693
852.973	20769
853.107	20705
853.242	20583
853.376	20495
853.511	20339
853.645	20358
853.78	20590
853.914	20594
854.048	20324
854.183	20347
854.317	20587
854.451	20754
854.585	20431
854.72	20461
854.854	20488
854.988	20408
855.122	20442
855.256	20309
855.39	20336
855.524	20473
855.658	20465
855.792	20427
855.926	20454
856.06	20423
856.194	20625
856.327	20389
856.461	20294
856.595	20362
856.729	20484
856.862	20575
856.996	20530
857.13	20530
857.263	20465
857.397	20434
857.53	20465
857.664	20484
857.797	20454
857.931	20446
858.064	20415
858.197	20526
858.331	20400
858.464	20385
858.597	20267
858.731	20286
858.864	20377
858.997	20450
859.13	20343
859.263	20393
859.396	20556
859.529	20381
859.662	20431
859.795	20374
859.928	20343
860.061	20594
860.194	20583
860.327	20556
860.46	20484
860.592	20568
860.725	20541
860.858	20594
860.99	20545
861.123	20404
861.256	20408
861.388	20366
861.521	21135
861.653	20313
861.786	20248
861.918	20149
862.05	20442
862.183	20294
862.315	20514
862.447	20549
862.58	20332
862.712	20119
862.844	20115
862.976	20248
863.108	20122
863.24	20693
863.372	20229
863.504	20240
863.636	20138
863.768	20103
863.9	20225
864.032	20259
864.164	20100
864.296	20206
864.428	20164
864.559	20199
864.691	20199
864.823	20199
864.954	20126
865.086	20122
865.217	19993
865.349	20069
865.48	20039
865.612	20020
865.743	20271
865.875	20081
866.006	19974
866.137	20016
866.269	20016
866.4	20062
866.531	19967
866.662	20115
866.793	19970
866.924	20005
867.055	20016
867.186	19940
867.317	20005
867.448	19970
867.579	19894
867.71	19925
867.841	19925
867.972	19997
868.103	19921
868.233	20058
868.364	20077
868.495	20180
868.625	20168
868.756	20298
868.886	20100
869.017	20202
869.147	20202
869.278	20389
869.408	20263
869.539	20324
869.669	20275
869.799	20278
869.929	20351
870.06	20328
870.19	20564
870.32	20522
870.45	20613
870.58	20667
870.71	20883
870.84	20708
870.97	20678
871.1	20670
871.23	20921
871.36	20720
871.489	20731
871.619	20819
871.749	20868
871.879	20956
872.008	20975
872.138	20750
872.267	20876
872.397	20724
872.526	20636
872.656	20613
872.785	20727
872.915	20918
873.044	20883
873.173	20804
873.303	20834
873.432	20914
873.561	20868
873.69	20941
873.819	20948
873.948	20975
874.077	20823
874.206	20823
874.335	20842
874.464	20982
874.593	21214
874.722	20952
874.851	21173
874.979	21066
875.108	21157
875.237	21051
875.365	21005
875.494	21032
875.623	21169
875.751	21032
875.88	21062
876.008	21272
876.136	21302
876.265	21500
876.393	21778
876.521	21492
876.65	21545
876.778	21534
876.906	21447
877.034	21435
877.162	21348
877.29	21431
877.418	21450
877.546	21561
877.674	21610
877.802	21469
877.93	21557
878.058	21443
878.185	21256
878.313	21348
878.441	21473
878.568	21355
878.696	21294
878.824	21511
878.951	21583
879.079	21698
879.206	21713
879.333	21633
879.461	21545
879.588	21511
879.715	21652
879.842	21682
879.97	21610
880.097	21367
880.224	21233
880.351	21283
880.478	21287
880.605	21127
880.732	21214
880.859	21466
880.986	21344
881.112	21161
881.239	21180
881.366	21138
881.493	20933
881.619	20933
881.746	20933
881.872	20845
881.999	20902
882.125	20754
882.252	20891
882.378	20800
882.505	20929
882.631	20727
882.757	20663
882.883	20758
883.01	20640
883.136	20469
883.262	20530
883.388	20431
883.514	20537
883.64	20564
883.766	20632
883.892	20351
884.018	20381
884.143	20537
884.269	20609
884.395	20240
884.52	20176
884.646	20202
884.772	20191
884.897	20115
885.023	20202
885.148	20248
885.274	20427
885.399	20324
885.524	20271
885.65	20206
885.775	20240
885.9	20233
886.025	20393
886.15	20218
886.275	20221
886.4	20107
886.525	20313
886.65	20119
886.775	20145
886.9	20396
887.025	20484
887.149	20088
887.274	20062
887.399	19928
887.523	20088
887.648	19970
887.773	19921
887.897	20035
888.021	20119
888.146	19909
888.27	20130
888.395	20111
888.519	20054
888.643	20020
888.767	20077
888.891	19955
889.015	19826
889.139	19818
889.263	19875
889.387	19890
889.511	20065
889.635	19989
889.759	19791
889.883	19719
890.006	19780
890.13	19906
890.254	19784
890.377	19670
890.501	19582
890.624	19605
890.748	19624
890.871	19419
890.995	19426
891.118	19324
891.241	19388
891.364	19411
891.488	19483
891.611	19441
891.734	19419
891.857	19487
891.98	19483
892.103	19525
892.226	19365
892.349	19400
892.471	19255
892.594	19396
892.717	19278
892.839	19327
892.962	19377
893.085	19403
893.207	19301
893.33	19202
893.452	19320
893.575	19266
893.697	19278
893.819	19335
893.941	19559
894.064	19480
894.186	19403
894.308	19209
894.43	19510
894.552	19514
894.674	19525
894.796	19179
894.918	19168
895.04	19240
895.161	19426
895.283	19396
895.405	19312
895.526	19343
895.648	19316
895.769	19362
895.891	19377
896.012	19441
896.134	19411
896.255	19400
896.376	19403
896.498	19312
896.619	19384
896.74	19407
896.861	19441
896.982	19643
897.103	19818
897.224	19578
897.345	19655
897.466	19582
897.587	19674
897.708	19647
897.828	19635
897.949	19521
898.07	19487
898.19	19514
898.311	19761
898.431	19499
898.552	19575
898.672	19712
898.792	19731
898.913	19700
899.033	19487
899.153	19377
899.273	19270
899.393	19308
899.513	19304
899.633	19301
899.753	19331
899.873	19259
899.993	19464
900.113	19316
900.232	19240
900.352	19217
900.472	19244
900.591	19004
900.711	19137
900.83	19137
900.95	19266
901.069	19232
901.189	19034
901.308	18875
901.427	18635
901.546	18741
901.665	18753
901.784	18677
901.904	18585
902.023	18525
902.141	18315
902.26	18342
902.379	18357
902.498	18300
902.617	18270
902.735	18308
902.854	18342
902.973	18239
903.091	17965
903.21	17961
903.328	17893
903.446	17786
903.565	17707
903.683	17714
903.801	17653
903.919	17737
904.038	17794
904.156	17474
904.274	17528
904.392	17414
904.51	17566
904.627	17448
904.745	17562
904.863	17726
904.981	17364
905.098	17094
905.216	17227
905.334	17200
905.451	17200
905.569	17075
905.686	17200
905.803	17128
905.921	17003
906.038	17083
906.155	16961
906.272	16869
906.389	16820
906.506	16778
906.623	16748
906.74	16694
906.857	16626
906.974	16649
907.091	16873
907.208	16850
907.324	16736
907.441	16561
907.557	16318
907.674	16481
907.79	16333
907.907	16413
908.023	16447
908.139	16432
908.256	16348
908.372	16291
908.488	16341
908.604	16303
908.72	16211
908.836	16226
908.952	16154
909.068	16181
909.184	16352
909.3	16086
909.415	16124
909.531	16207
909.647	15968
909.762	15895
909.878	15892
909.993	15880
910.108	15865
910.224	15899
910.339	15766
910.454	15747
910.57	15606
910.685	15675
910.8	15857
910.915	15816
911.03	15682
911.145	15595
911.259	15500
911.374	15382
911.489	15481
911.604	15435
911.718	15264
911.833	15313
911.947	15218
912.062	15085
912.176	15275
912.291	15199
912.405	15211
912.519	15378
912.633	15477
912.748	15348
912.862	15252
912.976	15062
913.09	14918
913.204	15043
913.318	15146
913.431	15180
913.545	15199
913.659	15081
913.772	14960
913.886	14918
914	14868
914.113	15017
914.226	14975
914.34	14990
914.453	14823
914.566	14883
914.68	14804
914.793	14686
914.906	14560
915.019	14511
915.132	14396
915.245	14415
915.358	14434
915.47	14507
915.583	14446
915.696	14514
915.809	14648
915.921	14651
916.034	14480
916.146	14400
916.259	14358
916.371	14423
916.483	14408
916.595	14309
916.708	14313
916.82	14317
916.932	14339
917.044	14328
917.156	14157
917.268	14267
917.38	14240
917.491	14088
917.603	14259
917.715	14256
917.826	14355
917.938	14103
918.049	13963
918.161	14145
918.272	14305
918.384	14164
918.495	14138
918.606	14046
918.717	13913
918.828	14008
918.939	14012
919.05	13841
919.161	13917
919.272	13757
919.383	13871
919.494	14046
919.604	14058
919.715	13917
919.826	13868
919.936	13887
920.047	13970
920.157	13925
920.267	14195
920.378	13955
920.488	13894
920.598	14096
920.708	14164
920.818	14054
920.928	14020
921.038	14168
921.148	14096
921.258	13936
921.368	13833
921.477	13715
921.587	13677
921.697	13556
921.806	13681
921.916	13556
922.025	13381
922.134	13373
922.244	13331
922.353	13365
922.462	13320
922.571	13114
922.68	13122
922.789	12901
922.898	13015
923.007	12924
923.116	13012
923.224	12943
923.333	12894
923.442	12814
923.55	12753
923.659	12821
923.767	12837
923.876	12783
923.984	12863
924.092	12833
924.201	12703
924.309	12677
924.417	12749
924.525	12658
924.633	12684
924.741	13472
924.849	12525
924.956	12532
925.064	12513
925.172	12460
925.279	12403
925.387	12418
925.494	12483
925.602	12566
925.709	12475
925.816	12346
925.924	12445
926.031	12490
926.138	12483
926.245	12464
926.352	12304
926.459	12399
926.566	12384
926.673	12372
926.779	12194
926.886	12197
926.993	12034
927.099	12011
927.206	11984
927.312	12003
927.419	12098
927.525	12095
927.631	12030
927.737	11889
927.843	11904
927.95	11805
928.056	11752
928.162	11863
928.267	11821
928.373	12506
928.479	11935
928.585	11707
928.69	11843
928.796	11843
928.901	11741
929.007	11581
929.112	11752
929.218	11646
929.323	11611
929.428	11726
929.533	11695
929.638	11566
929.743	11547
929.848	11668
929.953	11585
930.058	11516
930.163	11307
930.267	11223
930.372	11539
930.477	11147
930.581	11512
930.685	11330
930.79	11250
930.894	11231
930.998	11143
931.103	11235
931.207	10987
931.311	10862
931.415	10778
931.519	10554
931.623	10577
