Data from test_V78500241_2832.txt Node
Date: Fri Mar 25 16:01:25 CST 2022
User: usil
Spectrometer: V785-0024
Trigger mode: 0
Integration Time (sec): 4.000000E-1
Scans to average: 1
Nonlinearity correction enabled: false
Boxcar width: 0
Storing dark spectrum: false
XAxis mode: Wavelengths
Number of Pixels in Spectrum: 1024
>>>>>Begin Spectral Data<<<<<
801.071	29216
801.214	29060
801.356	28976
801.499	28885
801.641	28790
801.783	28987
801.926	28885
802.068	28793
802.211	28797
802.353	28900
802.496	28527
802.638	28577
802.78	28440
802.923	28451
803.065	28519
803.208	28557
803.35	28531
803.492	28660
803.635	28599
803.777	28668
803.919	28847
804.061	29151
804.204	28828
804.346	28752
804.488	28873
804.63	28828
804.773	28755
804.915	28862
805.057	28900
805.199	28778
805.341	28843
805.483	28908
805.626	28828
805.768	28820
805.91	29060
806.052	29037
806.194	28729
806.336	29124
806.478	28934
806.62	29018
806.762	29025
806.904	29261
807.046	29448
807.188	29398
807.33	29387
807.472	29455
807.614	29254
807.756	29421
807.898	29459
808.04	29223
808.182	29231
808.324	29391
808.465	29375
808.607	29322
808.749	29752
808.891	29862
809.033	29889
809.174	29824
809.316	29733
809.458	29657
809.6	29756
809.741	29737
809.883	29726
810.025	29969
810.166	29996
810.308	30068
810.45	30007
810.591	29958
810.733	29817
810.875	29726
811.016	29600
811.158	29592
811.299	29836
811.441	29897
811.582	29893
811.724	29676
811.865	29604
812.007	29809
812.148	29581
812.29	29570
812.431	29859
812.573	30239
812.714	30045
812.855	30144
812.997	30315
813.138	30349
813.279	30254
813.421	30304
813.562	30194
813.703	29969
813.845	29961
813.986	29634
814.127	29615
814.268	29551
814.41	29406
814.551	29440
814.692	29566
814.833	29318
814.974	29520
815.115	29528
815.256	29296
815.397	29493
815.539	29322
815.68	29231
815.821	29227
815.962	29261
816.103	29280
816.244	29212
816.385	29159
816.526	29052
816.666	28934
816.807	28801
816.948	28957
817.089	28831
817.23	28881
817.371	28820
817.512	28869
817.653	28755
817.793	28618
817.934	28702
818.075	28790
818.216	28843
818.356	28778
818.497	28580
818.638	28512
818.778	28565
818.919	28485
819.06	28538
819.2	28637
819.341	28710
819.481	28786
819.622	28919
819.762	29250
819.903	28953
820.043	29071
820.184	28888
820.324	28984
820.465	28934
820.605	28930
820.746	28873
820.886	28748
821.026	28873
821.167	28828
821.307	28881
821.447	28896
821.588	28668
821.728	28569
821.868	28219
822.008	28363
822.149	28158
822.289	28196
822.429	27911
822.569	27953
822.709	27823
822.849	27911
822.99	27846
823.13	27812
823.27	27736
823.41	27641
823.55	27576
823.69	27557
823.83	27580
823.97	27507
824.11	27321
824.25	27374
824.389	27397
824.529	27549
824.669	27370
824.809	27553
824.949	27488
825.089	27504
825.228	27488
825.368	27336
825.508	27310
825.648	27340
825.787	27435
825.927	27351
826.067	27389
826.206	27351
826.346	27405
826.485	27367
826.625	27325
826.765	27416
826.904	27306
827.044	27100
827.183	27119
827.323	27127
827.462	27062
827.601	27157
827.741	26998
827.88	27116
828.02	26971
828.159	26982
828.298	26895
828.437	27047
828.577	26982
828.716	27146
828.855	26982
828.994	26765
829.134	26724
829.273	26644
829.412	26594
829.551	26670
829.69	26712
829.829	26648
829.968	26883
830.107	26712
830.246	26727
830.385	26636
830.524	26648
830.663	26465
830.802	26438
830.941	26332
831.08	26328
831.219	26442
831.357	26396
831.496	26583
831.635	26305
831.774	26221
831.913	26263
832.051	26180
832.19	26107
832.329	26199
832.467	26115
832.606	25909
832.744	25902
832.883	25993
833.022	25982
833.16	25989
833.299	26046
833.437	26016
833.576	26153
833.714	26069
833.852	26073
833.991	26062
834.129	26130
834.267	26081
834.406	26092
834.544	26122
834.682	26020
834.821	26088
834.959	26187
835.097	25970
835.235	26027
835.373	26077
835.511	26100
835.65	25925
835.788	25963
835.926	25746
836.064	25746
836.202	25734
836.34	25803
836.478	26027
836.615	25989
836.753	25776
836.891	26035
837.029	25906
837.167	25761
837.305	25734
837.443	25662
837.58	25674
837.718	25795
837.856	25712
837.993	25655
838.131	25734
838.269	25594
838.406	25495
838.544	25506
838.681	25403
838.819	25350
838.956	24958
839.094	25183
839.231	25244
839.369	25354
839.506	25499
839.643	25415
839.781	25206
839.918	25023
840.055	25088
840.193	25095
840.33	25057
840.467	25107
840.604	25069
840.742	25339
840.879	24909
841.016	24973
841.153	24814
841.29	25126
841.427	25034
841.564	25088
841.701	25084
841.838	24981
841.975	24871
842.112	24932
842.249	24856
842.385	24791
842.522	25023
842.659	24954
842.796	24707
842.933	24795
843.069	24741
843.206	24814
843.343	24810
843.479	24916
843.616	24760
843.752	24544
843.889	24639
844.025	24852
844.162	24570
844.298	24578
844.435	24555
844.571	24479
844.708	24654
844.844	24719
844.98	24719
845.117	24642
845.253	24585
845.389	24494
845.525	24475
845.661	24464
845.798	24239
845.934	24353
846.07	24292
846.206	24418
846.342	24403
846.478	24235
846.614	24243
846.75	24102
846.886	23973
847.022	24041
847.158	24079
847.294	24125
847.429	24216
847.565	23973
847.701	24319
847.837	23790
847.972	23672
848.108	23722
848.244	23805
848.379	23646
848.515	23676
848.65	23760
848.786	23608
848.921	23649
849.057	23775
849.192	23676
849.328	23707
849.463	23531
849.598	23687
849.734	23391
849.869	23391
850.004	23391
850.14	23463
850.275	23429
850.41	23273
850.545	23258
850.68	23349
850.815	23414
850.95	23433
851.085	23535
851.22	23440
851.355	23216
851.49	23387
851.625	23353
851.76	23433
851.895	23307
852.03	23315
852.165	23242
852.299	23459
852.434	23459
852.569	23410
852.703	23307
852.838	23512
852.973	23398
853.107	23337
853.242	23429
853.376	23124
853.511	23140
853.645	23273
853.78	23197
853.914	23140
854.048	23136
854.183	23159
854.317	23162
854.451	23417
854.585	23151
854.72	23239
854.854	23356
854.988	23200
855.122	23265
855.256	23029
855.39	23337
855.524	23242
855.658	23235
855.792	23136
855.926	23235
856.06	23288
856.194	23280
856.327	23121
856.461	23022
856.595	23178
856.729	23162
856.862	23254
856.996	23181
857.13	23299
857.263	23284
857.397	23292
857.53	23181
857.664	23200
857.797	23277
857.931	23284
858.064	23239
858.197	23311
858.331	23269
858.464	23025
858.597	23159
858.731	23143
858.864	23181
858.997	23132
859.13	23231
859.263	23102
859.396	23284
859.529	23121
859.662	23090
859.795	23208
859.928	23254
860.061	23334
860.194	23280
860.327	23284
860.46	23227
860.592	23204
860.725	23486
860.858	23258
860.99	23288
861.123	23098
861.256	23204
861.388	23124
861.521	23847
861.653	23075
861.786	22972
861.918	23052
862.05	23010
862.183	23132
862.315	23094
862.447	23105
862.58	23094
862.712	22900
862.844	22911
862.976	22911
863.108	22927
863.24	23368
863.372	22911
863.504	22873
863.636	22889
863.768	22968
863.9	22881
864.032	22812
864.164	22812
864.296	23060
864.428	22934
864.559	22942
864.691	22953
864.823	22930
864.954	22759
865.086	22755
865.217	22645
865.349	22573
865.48	22710
865.612	22816
865.743	22942
865.875	22778
866.006	22824
866.137	22774
866.269	22721
866.4	22729
866.531	22702
866.662	22645
866.793	22653
866.924	22626
867.055	22607
867.186	22713
867.317	22626
867.448	22596
867.579	22656
867.71	22679
867.841	22497
867.972	22675
868.103	22694
868.233	22660
868.364	22698
868.495	22801
868.625	22858
868.756	22953
868.886	22828
869.017	22885
869.147	23060
869.278	23094
869.408	22949
869.539	22961
869.669	22995
869.799	22991
869.929	23117
870.06	23048
870.19	23117
870.32	23322
870.45	23242
870.58	23235
870.71	23311
870.84	23459
870.97	23372
871.1	23337
871.23	23554
871.36	23478
871.489	23417
871.619	23501
871.749	23417
871.879	23608
872.008	23684
872.138	23497
872.267	23535
872.397	23387
872.526	23406
872.656	23391
872.785	23383
872.915	23707
873.044	23543
873.173	23554
873.303	23551
873.432	23661
873.561	23653
873.69	23554
873.819	23478
873.948	23596
874.077	23509
874.206	23391
874.335	23547
874.464	23676
874.593	23779
874.722	23691
874.851	23836
874.979	23661
875.108	23851
875.237	23665
875.365	23497
875.494	23710
875.623	23813
875.751	23691
875.88	23687
876.008	23817
876.136	23954
876.265	24034
876.393	24228
876.521	24270
876.65	24239
876.778	24121
876.906	24079
877.034	24163
877.162	24083
877.29	24018
877.418	23996
877.546	24220
877.674	23996
877.802	23950
877.93	24049
878.058	23969
878.185	23931
878.313	23901
878.441	23958
878.568	23977
878.696	23992
878.824	24087
878.951	24216
879.079	24216
879.206	24277
879.333	24243
879.461	24152
879.588	24186
879.715	24106
879.842	24369
879.97	24144
880.097	23817
880.224	23866
880.351	23931
880.478	23851
880.605	23783
880.732	23855
880.859	23973
880.986	23969
881.112	23954
881.239	23752
881.366	23634
881.493	23448
881.619	23436
881.746	23410
881.872	23360
881.999	23433
882.125	23395
882.252	23410
882.378	23387
882.505	23414
882.631	23292
882.757	23109
882.883	23121
883.01	23170
883.136	23033
883.262	23143
883.388	22862
883.514	23197
883.64	23132
883.766	23022
883.892	22850
884.018	22938
884.143	23029
884.269	23018
884.395	22706
884.52	22706
884.646	22774
884.772	22622
884.897	22656
885.023	22797
885.148	22816
885.274	22809
885.399	22862
885.524	22752
885.65	22767
885.775	22740
885.9	22706
886.025	22805
886.15	22763
886.275	22866
886.4	22694
886.525	22706
886.65	22580
886.775	22592
886.9	22793
887.025	22938
887.149	22736
887.274	22538
887.399	22519
887.523	22474
887.648	22474
887.773	22440
887.897	22542
888.021	22542
888.146	22436
888.27	22504
888.395	22649
888.519	22504
888.643	22459
888.767	22508
888.891	22402
889.015	22295
889.139	22348
889.263	22306
889.387	22360
889.511	22352
889.635	22478
889.759	22238
889.883	22097
890.006	22280
890.13	22394
890.254	22200
890.377	22192
890.501	22002
890.624	21941
890.748	21880
890.871	22029
890.995	21671
891.118	21876
891.241	21819
891.364	21884
891.488	21869
891.611	21762
891.734	21762
891.857	21831
891.98	21922
892.103	21838
892.226	21751
892.349	21751
892.471	21530
892.594	21606
892.717	21808
892.839	21766
892.962	21660
893.085	21625
893.207	21778
893.33	21625
893.452	21557
893.575	21774
893.697	21739
893.819	21922
893.941	21892
894.064	21675
894.186	21644
894.308	21633
894.43	21618
894.552	21888
894.674	21709
894.796	21477
894.918	21622
895.04	21690
895.161	21663
895.283	21637
895.405	21732
895.526	21720
895.648	21656
895.769	21755
895.891	21622
896.012	21774
896.134	21652
896.255	21595
896.376	21526
896.498	21686
896.619	21762
896.74	21663
896.861	21743
896.982	21926
897.103	22063
897.224	21960
897.345	21880
897.466	21648
897.587	21972
897.708	21854
897.828	21797
897.949	21739
898.07	21781
898.19	21838
898.311	21895
898.431	21774
898.552	21838
898.672	21915
898.792	21930
898.913	21842
899.033	21652
899.153	21587
899.273	21576
899.393	21671
899.513	21545
899.633	21637
899.753	21641
899.873	21526
899.993	21530
900.113	21553
900.232	21439
900.352	21466
900.472	21359
900.591	21268
900.711	21302
900.83	21268
900.95	21412
901.069	21416
901.189	21211
901.308	20868
901.427	20937
901.546	20842
901.665	21001
901.784	20925
901.904	20686
902.023	20549
902.141	20484
902.26	20400
902.379	20514
902.498	20301
902.617	20362
902.735	20366
902.854	20370
902.973	20176
903.091	19993
903.21	19936
903.328	19902
903.446	19940
903.565	19788
903.683	19849
903.801	19666
903.919	19727
904.038	19780
904.156	19700
904.274	19628
904.392	19563
904.51	19480
904.627	19449
904.745	19491
904.863	19525
904.981	19346
905.098	19137
905.216	19232
905.334	19346
905.451	19209
905.569	19274
905.686	19289
905.803	19194
905.921	19050
906.038	19244
906.155	18973
906.272	18867
906.389	18951
906.506	18734
906.623	18776
906.74	18760
906.857	18696
906.974	18696
907.091	18840
907.208	18882
907.324	18730
907.441	18654
907.557	18441
907.674	18547
907.79	18365
907.907	18433
908.023	18464
908.139	18422
908.256	18433
908.372	18380
908.488	18357
908.604	18232
908.72	18239
908.836	18216
908.952	18270
909.068	18243
909.184	18239
909.3	18213
909.415	18129
909.531	18190
909.647	17916
909.762	17885
909.878	17866
909.993	17786
910.108	17847
910.224	17779
910.339	17904
910.454	17703
910.57	17691
910.685	17623
910.8	17859
910.915	17767
911.03	17589
911.145	17463
911.259	17421
911.374	17463
911.489	17376
911.604	17250
911.718	17166
911.833	17178
911.947	17147
912.062	16984
912.176	17220
912.291	17162
912.405	17204
912.519	17307
912.633	17318
912.748	17220
912.862	17212
912.976	17045
913.09	16847
913.204	16953
913.318	16953
913.431	17102
913.545	17079
913.659	17075
913.772	16911
913.886	16843
914	16736
914.113	16866
914.226	16850
914.34	16839
914.453	16637
914.566	16782
914.68	16641
914.793	16615
914.906	16478
915.019	16249
915.132	16261
915.245	16287
915.358	16363
915.47	16367
915.583	16291
915.696	16333
915.809	16428
915.921	16474
916.034	16215
916.146	16185
916.259	16192
916.371	16272
916.483	16223
916.595	16105
916.708	16109
916.82	16200
916.932	16116
917.044	16059
917.156	16074
917.268	15895
917.38	16139
917.491	15968
917.603	15869
917.715	16059
917.826	15991
917.938	15854
918.049	15732
918.161	15827
918.272	15953
918.384	16029
918.495	15808
918.606	15701
918.717	15675
918.828	15671
918.939	15610
919.05	15504
919.161	15675
919.272	15496
919.383	15515
919.494	15637
919.604	15793
919.715	15644
919.826	15492
919.936	15667
920.047	15686
920.157	15682
920.267	15774
920.378	15595
920.488	15538
920.598	15751
920.708	15857
920.818	15698
920.928	15667
921.038	15800
921.148	15831
921.258	15553
921.368	15359
921.477	15351
921.587	15294
921.697	15199
921.806	15374
921.916	15131
922.025	14990
922.134	14902
922.244	14918
922.353	15020
922.462	14689
922.571	14807
922.68	14621
922.789	14549
922.898	14640
923.007	14571
923.116	14583
923.224	14613
923.333	14503
923.442	14404
923.55	14320
923.659	14438
923.767	14499
923.876	14317
923.984	14465
924.092	14358
924.201	14282
924.309	14332
924.417	14317
924.525	14259
924.633	14240
924.741	15127
924.849	13989
924.956	14031
925.064	13997
925.172	13978
925.279	13830
925.387	13921
925.494	13970
925.602	14005
925.709	13982
925.816	13830
925.924	13879
926.031	13928
926.138	13814
926.245	13879
926.352	13875
926.459	13852
926.566	13868
926.673	13818
926.779	13689
926.886	13636
926.993	13487
927.099	13460
927.206	13480
927.312	13430
927.419	13548
927.525	13449
927.631	13495
927.737	13400
927.843	13266
927.95	13171
928.056	13187
928.162	13225
928.267	13350
928.373	13928
928.479	13308
928.585	13076
928.69	13190
928.796	13175
928.901	13069
929.007	13114
929.112	13076
929.218	13088
929.323	13046
929.428	12985
929.533	13061
929.638	12905
929.743	12935
929.848	13000
929.953	12943
930.058	12764
930.163	12559
930.267	12711
930.372	12764
930.477	12681
930.581	12840
930.685	12726
930.79	12597
930.894	12532
930.998	12452
931.103	12662
931.207	12262
931.311	12175
931.415	12144
931.519	11893
931.623	11843
