Data from test_V78500241_3170.txt Node
Date: Fri Mar 25 16:03:45 CST 2022
User: usil
Spectrometer: V785-0024
Trigger mode: 0
Integration Time (sec): 4.000000E-1
Scans to average: 1
Nonlinearity correction enabled: false
Boxcar width: 0
Storing dark spectrum: false
XAxis mode: Wavelengths
Number of Pixels in Spectrum: 1024
>>>>>Begin Spectral Data<<<<<
801.071	28691
801.214	28538
801.356	28455
801.499	28478
801.641	28276
801.783	28360
801.926	28177
802.068	28265
802.211	28268
802.353	28112
802.496	28204
802.638	27876
802.78	28021
802.923	27880
803.065	27953
803.208	27941
803.35	28048
803.492	28036
803.635	28086
803.777	28135
803.919	28124
804.061	28512
804.204	28226
804.346	28234
804.488	28128
804.63	28261
804.773	28253
804.915	28246
805.057	28363
805.199	28306
805.341	28192
805.483	28375
805.626	28405
805.768	28318
805.91	28531
806.052	28401
806.194	28516
806.336	28470
806.478	28371
806.62	28500
806.762	28447
806.904	28668
807.046	28866
807.188	28820
807.33	28888
807.472	28965
807.614	28713
807.756	28793
807.898	28679
808.04	28603
808.182	28679
808.324	28698
808.465	28850
808.607	28968
808.749	28980
808.891	29170
809.033	29128
809.174	29098
809.316	29064
809.458	29048
809.6	29003
809.741	29181
809.883	29349
810.025	29334
810.166	29356
810.308	29406
810.45	29288
810.591	29261
810.733	29174
810.875	29109
811.016	28930
811.158	28934
811.299	29193
811.441	29197
811.582	29170
811.724	29208
811.865	29109
812.007	29003
812.148	29033
812.29	29090
812.431	29250
812.573	29497
812.714	29547
812.855	29710
812.997	29665
813.138	29817
813.279	29733
813.421	29589
813.562	29665
813.703	29512
813.845	29421
813.986	29162
814.127	28946
814.268	28949
814.41	28801
814.551	28816
814.692	28828
814.833	28706
814.974	28694
815.115	28885
815.256	28675
815.397	28725
815.539	28668
815.68	28713
815.821	28451
815.962	28599
816.103	28516
816.244	28641
816.385	28295
816.526	28333
816.666	28173
816.807	28131
816.948	28223
817.089	28211
817.23	28105
817.371	28128
817.512	28078
817.653	28188
817.793	27953
817.934	28048
818.075	28112
818.216	28112
818.356	28234
818.497	27960
818.638	27979
818.778	27960
818.919	27869
819.06	27994
819.2	28032
819.341	28036
819.481	28090
819.622	28131
819.762	28546
819.903	28462
820.043	28204
820.184	28352
820.324	28272
820.465	28265
820.605	28158
820.746	28200
820.886	28040
821.026	28280
821.167	28013
821.307	28261
821.447	28234
821.588	28029
821.728	27949
821.868	27774
822.008	27705
822.149	27720
822.289	27603
822.429	27435
822.569	27116
822.709	27264
822.849	27127
822.99	27024
823.13	27074
823.27	27066
823.41	26880
823.55	26895
823.69	27009
823.83	26990
823.97	26864
824.11	26701
824.25	26689
824.389	26845
824.529	26853
824.669	26800
824.809	27028
824.949	26918
825.089	26777
825.228	26769
825.368	26587
825.508	26655
825.648	26640
825.787	26686
825.927	26773
826.067	26659
826.206	26663
826.346	26769
826.485	26697
826.625	26705
826.765	26697
826.904	26655
827.044	26492
827.183	26423
827.323	26324
827.462	26377
827.601	26438
827.741	26377
827.88	26389
828.02	26294
828.159	26305
828.298	26480
828.437	26336
828.577	26275
828.716	26450
828.855	26161
828.994	26054
829.134	26168
829.273	26195
829.412	26126
829.551	26031
829.69	26100
829.829	26035
829.968	26191
830.107	25974
830.246	25936
830.385	26001
830.524	25871
830.663	25799
830.802	25719
830.941	25594
831.08	25700
831.219	25837
831.357	25765
831.496	25807
831.635	25719
831.774	25567
831.913	25548
832.051	25502
832.19	25495
832.329	25544
832.467	25335
832.606	25419
832.744	25324
832.883	25259
833.022	25377
833.16	25335
833.299	25381
833.437	25392
833.576	25373
833.714	25441
833.852	25426
833.991	25411
834.129	25510
834.267	25434
834.406	25358
834.544	25365
834.682	25438
834.821	25419
834.959	25518
835.097	25316
835.235	25422
835.373	25304
835.511	25320
835.65	25297
835.788	25259
835.926	25015
836.064	25145
836.202	24913
836.34	25213
836.478	25362
836.615	25156
836.753	25133
836.891	25346
837.029	25266
837.167	25198
837.305	25107
837.443	25110
837.58	24962
837.718	25187
837.856	25126
837.993	25000
838.131	24992
838.269	24924
838.406	24894
838.544	24962
838.681	24734
838.819	24696
838.956	24509
839.094	24426
839.231	24646
839.369	24848
839.506	24992
839.643	24738
839.781	24452
839.918	24376
840.055	24433
840.193	24384
840.33	24467
840.467	24380
840.604	24441
840.742	24639
840.879	24247
841.016	24289
841.153	24300
841.29	24551
841.427	24399
841.564	24395
841.701	24277
841.838	24353
841.975	24281
842.112	24281
842.249	24209
842.385	24205
842.522	24509
842.659	24129
842.796	24254
842.933	24251
843.069	24091
843.206	24034
843.343	24258
843.479	24243
843.616	24281
843.752	23954
843.889	24060
844.025	24038
844.162	23965
844.298	24076
844.435	23931
844.571	23958
844.708	23996
844.844	24129
844.98	24102
845.117	23969
845.253	23973
845.389	23939
845.525	23828
845.661	23824
845.798	23623
845.934	23771
846.07	23554
846.206	23737
846.342	23843
846.478	23741
846.614	23425
846.75	23277
846.886	23398
847.022	23558
847.158	23467
847.294	23471
847.429	23417
847.565	23261
847.701	23695
847.837	23189
847.972	23117
848.108	23170
848.244	23212
848.379	23029
848.515	22961
848.65	23052
848.786	23117
848.921	22976
849.057	23208
849.192	23064
849.328	22968
849.463	23090
849.598	22923
849.734	22866
849.869	22801
850.004	22744
850.14	22805
850.275	22721
850.41	22672
850.545	22672
850.68	22801
850.815	22786
850.95	22782
851.085	22957
851.22	22885
851.355	22763
851.49	22679
851.625	22668
851.76	22634
851.895	22774
852.03	22809
852.165	22771
852.299	22744
852.434	22850
852.569	22759
852.703	22752
852.838	22831
852.973	22961
853.107	22911
853.242	22698
853.376	22645
853.511	22466
853.645	22687
853.78	22641
853.914	22455
854.048	22500
854.183	22653
854.317	22653
854.451	22828
854.585	22694
854.72	22611
854.854	22634
854.988	22660
855.122	22664
855.256	22451
855.39	22523
855.524	22668
855.658	22649
855.792	22702
855.926	22634
856.06	22698
856.194	22618
856.327	22516
856.461	22607
856.595	22550
856.729	22580
856.862	22653
856.996	22748
857.13	22729
857.263	22584
857.397	22649
857.53	22618
857.664	22660
857.797	22683
857.931	22740
858.064	22713
858.197	22725
858.331	22523
858.464	22546
858.597	22470
858.731	22599
858.864	22432
858.997	22512
859.13	22599
859.263	22683
859.396	22653
859.529	22500
859.662	22489
859.795	22569
859.928	22573
860.061	22782
860.194	22774
860.327	22752
860.46	22577
860.592	22683
860.725	22896
860.858	22767
860.99	22634
861.123	22554
861.256	22489
861.388	22535
861.521	23277
861.653	22500
861.786	22333
861.918	22402
862.05	22474
862.183	22489
862.315	22599
862.447	22466
862.58	22603
862.712	22367
862.844	22253
862.976	22379
863.108	22417
863.24	22603
863.372	22234
863.504	22341
863.636	22322
863.768	22352
863.9	22333
864.032	22196
864.164	22287
864.296	22352
864.428	22333
864.559	22303
864.691	22242
864.823	22261
864.954	22303
865.086	22291
865.217	22261
865.349	22067
865.48	22211
865.612	22196
865.743	22375
865.875	22253
866.006	22135
866.137	22131
866.269	22238
866.4	22162
866.531	22097
866.662	22158
866.793	22040
866.924	22044
867.055	22063
867.186	22143
867.317	21972
867.448	21918
867.579	22086
867.71	22070
867.841	21983
867.972	22177
868.103	22074
868.233	22048
868.364	22055
868.495	22177
868.625	22394
868.756	22451
868.886	22257
869.017	22367
869.147	22314
869.278	22394
869.408	22348
869.539	22299
869.669	22413
869.799	22360
869.929	22584
870.06	22398
870.19	22679
870.32	22588
870.45	22721
870.58	22740
870.71	22805
870.84	22786
870.97	22717
871.1	22763
871.23	22961
871.36	22965
871.489	22828
871.619	22999
871.749	22896
871.879	22934
872.008	23174
872.138	22904
872.267	22942
872.397	22694
872.526	22733
872.656	22850
872.785	22820
872.915	22987
873.044	23147
873.173	22987
873.303	23025
873.432	22896
873.561	23189
873.69	22972
873.819	22976
873.948	23033
874.077	22892
874.206	22972
874.335	23037
874.464	23193
874.593	23231
874.722	23170
874.851	23200
874.979	23239
875.108	23197
875.237	22999
875.365	23155
875.494	23071
875.623	23334
875.751	23128
875.88	23124
876.008	23307
876.136	23151
876.265	23539
876.393	23531
876.521	23608
876.65	23729
876.778	23615
876.906	23528
877.034	23554
877.162	23566
877.29	23436
877.418	23509
877.546	23608
877.674	23471
877.802	23558
877.93	23524
878.058	23364
878.185	23402
878.313	23482
878.441	23493
878.568	23296
878.696	23341
878.824	23547
878.951	23627
879.079	23600
879.206	23695
879.333	23707
879.461	23505
879.588	23421
879.715	23611
879.842	23870
879.97	23554
880.097	23334
880.224	23364
880.351	23387
880.478	23376
880.605	23376
880.732	23398
880.859	23543
880.986	23376
881.112	23406
881.239	23083
881.366	23022
881.493	23048
881.619	22965
881.746	23136
881.872	22953
881.999	22786
882.125	22908
882.252	22984
882.378	22965
882.505	22885
882.631	22660
882.757	22542
882.883	22607
883.01	22470
883.136	22516
883.262	22386
883.388	22394
883.514	22500
883.64	22535
883.766	22474
883.892	22341
884.018	22253
884.143	22500
884.269	22611
884.395	22238
884.52	22238
884.646	22139
884.772	22124
884.897	21987
885.023	22204
885.148	22242
885.274	22360
885.399	22219
885.524	22128
885.65	22200
885.775	22173
885.9	22158
886.025	22276
886.15	22211
886.275	22116
886.4	22177
886.525	22120
886.65	22093
886.775	22082
886.9	22265
887.025	22318
887.149	22200
887.274	21873
887.399	22021
887.523	21975
887.648	21979
887.773	21819
887.897	22010
888.021	21937
888.146	21835
888.27	21987
888.395	22135
888.519	21998
888.643	21979
888.767	22101
888.891	21888
889.015	21812
889.139	21812
889.263	21720
889.387	21759
889.511	21922
889.635	21876
889.759	21785
889.883	21724
890.006	21781
890.13	21842
890.254	21667
890.377	21622
890.501	21469
890.624	21641
890.748	21439
890.871	21481
890.995	21272
891.118	21249
891.241	21260
891.364	21310
891.488	21397
891.611	21389
891.734	21298
891.857	21298
891.98	21306
892.103	21332
892.226	21344
892.349	21287
892.471	21036
892.594	21245
892.717	21241
892.839	21135
892.962	21218
893.085	21180
893.207	21138
893.33	21020
893.452	21100
893.575	21176
893.697	21173
893.819	21340
893.941	21386
894.064	21222
894.186	21176
894.308	21081
894.43	21287
894.552	21310
894.674	21188
894.796	21108
894.918	21116
895.04	21237
895.161	21310
895.283	21157
895.405	21142
895.526	21096
895.648	21192
895.769	21093
895.891	21222
896.012	21302
896.134	21329
896.255	21116
896.376	21135
896.498	21184
896.619	21089
896.74	21077
896.861	21188
896.982	21389
897.103	21583
897.224	21405
897.345	21405
897.466	21211
897.587	21397
897.708	21572
897.828	21363
897.949	21313
898.07	21169
898.19	21230
898.311	21408
898.431	21199
898.552	21268
898.672	21428
898.792	21313
898.913	21302
899.033	21214
899.153	21173
899.273	21055
899.393	20994
899.513	21180
899.633	21203
899.753	21180
899.873	21093
899.993	21138
900.113	21032
900.232	21013
900.352	21036
900.472	20971
900.591	20773
900.711	20895
900.83	20765
900.95	21055
901.069	20979
901.189	20640
901.308	20522
901.427	20446
901.546	20457
901.665	20473
901.784	20412
901.904	20206
902.023	20142
902.141	19982
902.26	19940
902.379	20016
902.498	19906
902.617	19750
902.735	19887
902.854	19883
902.973	19860
903.091	19495
903.21	19613
903.328	19540
903.446	19445
903.565	19426
903.683	19384
903.801	19282
903.919	19396
904.038	19350
904.156	19114
904.274	19251
904.392	19164
904.51	19053
904.627	19065
904.745	19183
904.863	19183
904.981	18867
905.098	18829
905.216	18821
905.334	18745
905.451	18677
905.569	18700
905.686	18738
905.803	18688
905.921	18517
906.038	18825
906.155	18631
906.272	18437
906.389	18578
906.506	18315
906.623	18391
906.74	18323
906.857	18194
906.974	18209
907.091	18350
907.208	18445
907.324	18391
907.441	18235
907.557	18117
907.674	18064
907.79	17942
907.907	18110
908.023	18060
908.139	17961
908.256	18068
908.372	17904
908.488	17908
908.604	17828
908.72	17619
908.836	17703
908.952	17741
909.068	17726
909.184	17798
909.3	17752
909.415	17737
909.531	17710
909.647	17497
909.762	17315
909.878	17463
909.993	17570
910.108	17284
910.224	17322
910.339	17330
910.454	17235
910.57	17200
910.685	17193
910.8	17349
910.915	17322
911.03	17269
911.145	17098
911.259	17052
911.374	16995
911.489	16938
911.604	16877
911.718	16843
911.833	16801
911.947	16763
912.062	16710
912.176	16713
912.291	16721
912.405	16706
912.519	17029
912.633	16862
912.748	16740
912.862	16664
912.976	16512
913.09	16462
913.204	16535
913.318	16519
913.431	16694
913.545	16550
913.659	16668
913.772	16554
913.886	16413
914	16379
914.113	16398
914.226	16508
914.34	16394
914.453	16272
914.566	16341
914.68	16295
914.793	16215
914.906	16071
915.019	15994
915.132	15949
915.245	15941
915.358	15994
915.47	15895
915.583	15968
915.696	15979
915.809	16055
915.921	16173
916.034	15778
916.146	15793
916.259	15884
916.371	15960
916.483	15903
916.595	15850
916.708	15915
916.82	15717
916.932	15690
917.044	15595
917.156	15705
917.268	15629
917.38	15587
917.491	15519
917.603	15519
917.715	15717
917.826	15622
917.938	15515
918.049	15469
918.161	15374
918.272	15644
918.384	15618
918.495	15504
918.606	15306
918.717	15237
918.828	15340
918.939	15397
919.05	15165
919.161	15336
919.272	15055
919.383	15127
919.494	15317
919.604	15443
919.715	15272
919.826	15176
919.936	15218
920.047	15348
920.157	15275
920.267	15382
920.378	15252
920.488	15195
920.598	15405
920.708	15511
920.818	15363
920.928	15317
921.038	15401
921.148	15519
921.258	15260
921.368	15116
921.477	15070
921.587	14956
921.697	14830
921.806	14963
921.916	14731
922.025	14632
922.134	14663
922.244	14590
922.353	14686
922.462	14564
922.571	14393
922.68	14282
922.789	14298
922.898	14252
923.007	14206
923.116	14229
923.224	14164
923.333	14176
923.442	14111
923.55	14016
923.659	14149
923.767	14081
923.876	13993
923.984	14065
924.092	13906
924.201	13947
924.309	13947
924.417	13974
924.525	13890
924.633	13879
924.741	14613
924.849	13605
924.956	13788
925.064	13685
925.172	13571
925.279	13563
925.387	13674
925.494	13620
925.602	13803
925.709	13677
925.816	13468
925.924	13586
926.031	13590
926.138	13559
926.245	13632
926.352	13422
926.459	13582
926.566	13601
926.673	13419
926.779	13297
926.886	13327
926.993	13255
927.099	13168
927.206	13088
927.312	13103
927.419	13228
927.525	13137
927.631	13183
927.737	13061
927.843	12996
927.95	12871
928.056	12966
928.162	13015
928.267	13004
928.373	13677
928.479	12996
928.585	12783
928.69	12894
928.796	13000
928.901	12772
929.007	12700
929.112	12802
929.218	12753
929.323	12734
929.428	12658
929.533	12741
929.638	12662
929.743	12658
929.848	12658
929.953	12585
930.058	12437
930.163	12403
930.267	12369
930.372	12445
930.477	12289
930.581	12490
930.685	12410
930.79	12175
930.894	12243
930.998	12155
931.103	12334
931.207	12019
931.311	11969
931.415	11786
931.519	11554
931.623	11551
