Data from test_V78500241_2684.txt Node
Date: Fri Mar 25 16:00:23 CST 2022
User: usil
Spectrometer: V785-0024
Trigger mode: 0
Integration Time (sec): 4.000000E-1
Scans to average: 1
Nonlinearity correction enabled: false
Boxcar width: 0
Storing dark spectrum: false
XAxis mode: Wavelengths
Number of Pixels in Spectrum: 1024
>>>>>Begin Spectral Data<<<<<
801.071	28763
801.214	28778
801.356	28607
801.499	28386
801.641	28478
801.783	28379
801.926	28405
802.068	28246
802.211	28363
802.353	28158
802.496	28177
802.638	28109
802.78	28067
802.923	28059
803.065	28097
803.208	27934
803.35	28204
803.492	28329
803.635	28219
803.777	28287
803.919	28284
804.061	28683
804.204	28280
804.346	28318
804.488	28257
804.63	28139
804.773	28348
804.915	28379
805.057	28512
805.199	28341
805.341	28485
805.483	28470
805.626	28371
805.768	28447
805.91	28436
806.052	28504
806.194	28470
806.336	28634
806.478	28542
806.62	28356
806.762	28668
806.904	28805
807.046	29029
807.188	28801
807.33	28957
807.472	29105
807.614	28888
807.756	28949
807.898	28843
808.04	28691
808.182	28683
808.324	28854
808.465	28908
808.607	29025
808.749	29094
808.891	29398
809.033	29261
809.174	29227
809.316	29318
809.458	29200
809.6	29083
809.741	29280
809.883	29330
810.025	29345
810.166	29444
810.308	29356
810.45	29490
810.591	29448
810.733	29246
810.875	29204
811.016	29197
811.158	29071
811.299	29345
811.441	29311
811.582	29417
811.724	29311
811.865	29239
812.007	29128
812.148	29094
812.29	29368
812.431	29395
812.573	29516
812.714	29551
812.855	29695
812.997	29836
813.138	29935
813.279	29874
813.421	29809
813.562	29657
813.703	29486
813.845	29474
813.986	29132
814.127	28972
814.268	28911
814.41	28919
814.551	28904
814.692	28877
814.833	28919
814.974	28782
815.115	28984
815.256	28679
815.397	28710
815.539	28847
815.68	28809
815.821	28615
815.962	28839
816.103	28744
816.244	28607
816.385	28504
816.526	28367
816.666	28272
816.807	28211
816.948	28337
817.089	28219
817.23	28261
817.371	28303
817.512	28192
817.653	28090
817.793	28299
817.934	28223
818.075	28051
818.216	28147
818.356	28185
818.497	28048
818.638	28025
818.778	28025
818.919	27945
819.06	27930
819.2	28067
819.341	28173
819.481	28177
819.622	28306
819.762	28577
819.903	28432
820.043	28561
820.184	28436
820.324	28238
820.465	28474
820.605	28363
820.746	28150
820.886	28318
821.026	28253
821.167	28386
821.307	28523
821.447	28177
821.588	28128
821.728	27869
821.868	27922
822.008	27682
822.149	27774
822.289	27644
822.429	27545
822.569	27294
822.709	27435
822.849	27169
822.99	27272
823.13	27264
823.27	27131
823.41	27032
823.55	26994
823.69	27032
823.83	27062
823.97	26940
824.11	26765
824.25	26781
824.389	26781
824.529	26952
824.669	26845
824.809	26823
824.949	26910
825.089	26944
825.228	26960
825.368	26724
825.508	26765
825.648	26800
825.787	26826
825.927	26746
826.067	26754
826.206	26815
826.346	26758
826.485	26811
826.625	26731
826.765	26785
826.904	26758
827.044	26499
827.183	26575
827.323	26537
827.462	26594
827.601	26412
827.741	26362
827.88	26545
828.02	26301
828.159	26366
828.298	26465
828.437	26469
828.577	26469
828.716	26522
828.855	26210
828.994	26248
829.134	26214
829.273	26229
829.412	26096
829.551	26092
829.69	25993
829.829	26176
829.968	26233
830.107	26142
830.246	26100
830.385	25982
830.524	26062
830.663	25913
830.802	25856
830.941	25761
831.08	25761
831.219	25784
831.357	25769
831.496	25921
831.635	25662
831.774	25601
831.913	25662
832.051	25506
832.19	25457
832.329	25632
832.467	25483
832.606	25369
832.744	25320
832.883	25335
833.022	25331
833.16	25354
833.299	25499
833.437	25350
833.576	25468
833.714	25510
833.852	25457
833.991	25632
834.129	25628
834.267	25537
834.406	25320
834.544	25582
834.682	25483
834.821	25563
834.959	25552
835.097	25449
835.235	25567
835.373	25464
835.511	25529
835.65	25312
835.788	25308
835.926	25175
836.064	25099
836.202	25141
836.34	25278
836.478	25426
836.615	25289
836.753	25362
836.891	25297
837.029	25327
837.167	25274
837.305	25365
837.443	25251
837.58	25145
837.718	25107
837.856	25202
837.993	25027
838.131	25072
838.269	24992
838.406	25000
838.544	24966
838.681	24802
838.819	24776
838.956	24658
839.094	24513
839.231	24642
839.369	24684
839.506	24943
839.643	24970
839.781	24608
839.918	24456
840.055	24684
840.193	24563
840.33	24589
840.467	24597
840.604	24601
840.742	24757
840.879	24422
841.016	24388
841.153	24384
841.29	24528
841.427	24448
841.564	24616
841.701	24433
841.838	24323
841.975	24311
842.112	24418
842.249	24258
842.385	24369
842.522	24456
842.659	24342
842.796	24251
842.933	24110
843.069	24091
843.206	24148
843.343	24353
843.479	24243
843.616	24201
843.752	23980
843.889	24117
844.025	24178
844.162	23942
844.298	24110
844.435	24121
844.571	24018
844.708	24022
844.844	24026
844.98	24224
845.117	24216
845.253	23996
845.389	23760
845.525	23958
845.661	23920
845.798	23771
845.934	23901
846.07	23710
846.206	23859
846.342	23988
846.478	23783
846.614	23596
846.75	23406
846.886	23493
847.022	23535
847.158	23562
847.294	23512
847.429	23467
847.565	23493
847.701	23699
847.837	23208
847.972	23185
848.108	23284
848.244	23258
848.379	23094
848.515	23033
848.65	22961
848.786	23121
848.921	23128
849.057	23178
849.192	23124
849.328	23246
849.463	23003
849.598	23044
849.734	22984
849.869	22968
850.004	22736
850.14	22866
850.275	22915
850.41	22771
850.545	22748
850.68	22778
850.815	22793
850.95	22809
851.085	22850
851.22	22908
851.355	22816
851.49	22908
851.625	22828
851.76	22729
851.895	22653
852.03	22771
852.165	22774
852.299	22896
852.434	22961
852.569	22778
852.703	22839
852.838	22976
852.973	22927
853.107	22908
853.242	22771
853.376	22519
853.511	22554
853.645	22679
853.78	22599
853.914	22577
854.048	22702
854.183	22649
854.317	22599
854.451	22957
854.585	22561
854.72	22653
854.854	22573
854.988	22577
855.122	22679
855.256	22615
855.39	22679
855.524	22710
855.658	22710
855.792	22687
855.926	22774
856.06	22653
856.194	22778
856.327	22660
856.461	22554
856.595	22653
856.729	22698
856.862	22713
856.996	22584
857.13	22752
857.263	22869
857.397	22691
857.53	22607
857.664	22653
857.797	22698
857.931	22767
858.064	22675
858.197	22820
858.331	22656
858.464	22557
858.597	22504
858.731	22634
858.864	22440
858.997	22656
859.13	22683
859.263	22592
859.396	22771
859.529	22626
859.662	22561
859.795	22706
859.928	22634
860.061	22816
860.194	22850
860.327	22710
860.46	22622
860.592	22740
860.725	22736
860.858	22649
860.99	22645
861.123	22626
861.256	22641
861.388	22634
861.521	23364
861.653	22470
861.786	22405
861.918	22462
862.05	22497
862.183	22535
862.315	22500
862.447	22645
862.58	22546
862.712	22402
862.844	22333
862.976	22455
863.108	22455
863.24	22809
863.372	22371
863.504	22310
863.636	22382
863.768	22325
863.9	22447
864.032	22310
864.164	22348
864.296	22489
864.428	22474
864.559	22432
864.691	22440
864.823	22284
864.954	22234
865.086	22329
865.217	22223
865.349	22192
865.48	22265
865.612	22234
865.743	22371
865.875	22242
866.006	22234
866.137	22200
866.269	22284
866.4	22154
866.531	22181
866.662	22097
866.793	22131
866.924	22063
867.055	22211
867.186	22253
867.317	22082
867.448	21994
867.579	22067
867.71	22097
867.841	22032
867.972	22124
868.103	22181
868.233	22162
868.364	22211
868.495	22204
868.625	22318
868.756	22470
868.886	22382
869.017	22257
869.147	22470
869.278	22535
869.408	22379
869.539	22436
869.669	22466
869.799	22451
869.929	22561
870.06	22519
870.19	22691
870.32	22691
870.45	22713
870.58	22687
870.71	22968
870.84	22786
870.97	22694
871.1	22721
871.23	22915
871.36	23102
871.489	22892
871.619	22930
871.749	22889
871.879	23010
872.008	23159
872.138	22858
872.267	22923
872.397	22752
872.526	22793
872.656	22923
872.785	22854
872.915	22999
873.044	23094
873.173	22889
873.303	23200
873.432	23155
873.561	23159
873.69	22968
873.819	22965
873.948	23067
874.077	22923
874.206	23003
874.335	22968
874.464	23170
874.593	23299
874.722	23212
874.851	23376
874.979	23239
875.108	23250
875.237	23258
875.365	23193
875.494	23105
875.623	23212
875.751	23246
875.88	23269
876.008	23254
876.136	23490
876.265	23562
876.393	23676
876.521	23684
876.65	23821
876.778	23623
876.906	23501
877.034	23646
877.162	23630
877.29	23539
877.418	23455
877.546	23577
877.674	23535
877.802	23581
877.93	23471
878.058	23589
878.185	23353
878.313	23611
878.441	23490
878.568	23360
878.696	23505
878.824	23665
878.951	23516
879.079	23771
879.206	23767
879.333	23680
879.461	23676
879.588	23691
879.715	23809
879.842	23882
879.97	23604
880.097	23360
880.224	23326
880.351	23490
880.478	23562
880.605	23265
880.732	23349
880.859	23570
880.986	23414
881.112	23429
881.239	23387
881.366	23086
881.493	22999
881.619	23067
881.746	23037
881.872	22805
881.999	22839
882.125	22919
882.252	23003
882.378	22991
882.505	23060
882.631	22824
882.757	22557
882.883	22748
883.01	22603
883.136	22508
883.262	22512
883.388	22516
883.514	22645
883.64	22584
883.766	22615
883.892	22443
884.018	22367
884.143	22417
884.269	22668
884.395	22341
884.52	22284
884.646	22299
884.772	22086
884.897	22238
885.023	22322
885.148	22402
885.274	22481
885.399	22211
885.524	22272
885.65	22291
885.775	22234
885.9	22295
886.025	22333
886.15	22417
886.275	22196
886.4	22158
886.525	22116
886.65	22006
886.775	22116
886.9	22341
887.025	22443
887.149	22196
887.274	21998
887.399	21907
887.523	21953
887.648	21991
887.773	21937
887.897	22002
888.021	21987
888.146	22055
888.27	22044
888.395	22112
888.519	22051
888.643	22017
888.767	22044
888.891	21964
889.015	21778
889.139	21895
889.263	21762
889.387	21937
889.511	21930
889.635	21945
889.759	21873
889.883	21701
890.006	21641
890.13	21823
890.254	21656
890.377	21774
890.501	21557
890.624	21633
890.748	21538
890.871	21458
890.995	21294
891.118	21211
891.241	21382
891.364	21317
891.488	21606
891.611	21336
891.734	21336
891.857	21405
891.98	21428
892.103	21355
892.226	21469
892.349	21230
892.471	21104
892.594	21150
892.717	21336
892.839	21112
892.962	21218
893.085	21275
893.207	21203
893.33	21207
893.452	21135
893.575	21340
893.697	21112
893.819	21450
893.941	21389
894.064	21370
894.186	21161
894.308	21070
894.43	21207
894.552	21401
894.674	21355
894.796	21123
894.918	21127
895.04	21233
895.161	21325
895.283	21344
895.405	21165
895.526	21154
895.648	21180
895.769	21188
895.891	21237
896.012	21226
896.134	21218
896.255	21123
896.376	21066
896.498	21146
896.619	21302
896.74	21230
896.861	21275
896.982	21583
897.103	21682
897.224	21374
897.345	21310
897.466	21454
897.587	21469
897.708	21469
897.828	21370
897.949	21351
898.07	21283
898.19	21313
898.311	21488
898.431	21374
898.552	21405
898.672	21325
898.792	21275
898.913	21439
899.033	21230
899.153	21245
899.273	21043
899.393	21154
899.513	21230
899.633	21055
899.753	21142
899.873	21104
899.993	21176
900.113	21013
900.232	21005
900.352	21001
900.472	20876
900.591	20838
900.711	20857
900.83	20765
900.95	20990
901.069	20838
901.189	20788
901.308	20549
901.427	20381
901.546	20484
901.665	20446
901.784	20492
901.904	20351
902.023	20218
902.141	20043
902.26	20096
902.379	20020
902.498	19913
902.617	19902
902.735	19974
902.854	20062
902.973	19814
903.091	19719
903.21	19563
903.328	19578
903.446	19468
903.565	19388
903.683	19430
903.801	19343
903.919	19312
904.038	19403
904.156	19194
904.274	19312
904.392	19156
904.51	19179
904.627	19129
904.745	19129
904.863	19133
904.981	19091
905.098	18722
905.216	18859
905.334	18863
905.451	18859
905.569	18783
905.686	18825
905.803	18814
905.921	18642
906.038	18726
906.155	18669
906.272	18509
906.389	18650
906.506	18353
906.623	18350
906.74	18448
906.857	18292
906.974	18235
907.091	18437
907.208	18544
907.324	18350
907.441	18209
907.557	18144
907.674	17992
907.79	17920
907.907	18068
908.023	18095
908.139	18045
908.256	18049
908.372	17958
908.488	17893
908.604	17786
908.72	17760
908.836	17805
908.952	17783
909.068	17805
909.184	17961
909.3	17699
909.415	17745
909.531	17832
909.647	17414
909.762	17486
909.878	17539
909.993	17486
910.108	17402
910.224	17497
910.339	17490
910.454	17402
910.57	17204
910.685	17261
910.8	17539
910.915	17512
911.03	17159
911.145	17143
911.259	17090
911.374	17045
911.489	16972
911.604	16934
911.718	16782
911.833	16774
911.947	16736
912.062	16630
912.176	16790
912.291	16653
912.405	16771
912.519	16968
912.633	16999
912.748	16774
912.862	16748
912.976	16573
913.09	16577
913.204	16637
913.318	16573
913.431	16744
913.545	16622
913.659	16713
913.772	16470
913.886	16394
914	16432
914.113	16375
914.226	16455
914.34	16451
914.453	16314
914.566	16390
914.68	16223
914.793	16211
914.906	16029
915.019	16006
915.132	15903
915.245	16029
915.358	15991
915.47	15979
915.583	15895
915.696	16071
915.809	16097
915.921	16109
916.034	15846
916.146	15941
916.259	15838
916.371	15937
916.483	15873
916.595	15705
916.708	15739
916.82	15743
916.932	15774
917.044	15766
917.156	15808
917.268	15595
917.38	15625
917.491	15557
917.603	15481
917.715	15629
917.826	15618
917.938	15492
918.049	15454
918.161	15549
918.272	15599
918.384	15675
918.495	15462
918.606	15298
918.717	15218
918.828	15382
918.939	15397
919.05	15226
919.161	15313
919.272	15112
919.383	15180
919.494	15340
919.604	15553
919.715	15355
919.826	15131
919.936	15233
920.047	15348
920.157	15218
920.267	15466
920.378	15332
920.488	15291
920.598	15439
920.708	15523
920.818	15386
920.928	15389
921.038	15580
921.148	15568
921.258	15237
921.368	15093
921.477	15058
921.587	15009
921.697	14868
921.806	15032
921.916	14823
922.025	14769
922.134	14621
922.244	14549
922.353	14659
922.462	14473
922.571	14457
922.68	14362
922.789	14252
922.898	14313
923.007	14206
923.116	14336
923.224	14313
923.333	14244
923.442	14100
923.55	14103
923.659	14046
923.767	14126
923.876	14046
923.984	14115
924.092	14005
924.201	14024
924.309	13951
924.417	14050
924.525	13963
924.633	13993
924.741	14781
924.849	13651
924.956	13868
925.064	13731
925.172	13594
925.279	13674
925.387	13666
925.494	13696
925.602	13708
925.709	13647
925.816	13495
925.924	13636
926.031	13632
926.138	13586
926.245	13597
926.352	13540
926.459	13620
926.566	13647
926.673	13472
926.779	13369
926.886	13411
926.993	13213
927.099	13266
927.206	13069
927.312	13171
927.419	13164
927.525	13091
927.631	13228
927.737	13160
927.843	13019
927.95	12894
928.056	12966
928.162	13061
928.267	13000
928.373	13559
928.479	13038
928.585	12703
928.69	12935
928.796	13012
928.901	12791
929.007	12684
929.112	12852
929.218	12901
929.323	12772
929.428	12707
929.533	12738
929.638	12616
929.743	12635
929.848	12658
929.953	12665
930.058	12467
930.163	12346
930.267	12414
930.372	12448
930.477	12361
930.581	12612
930.685	12384
930.79	12251
930.894	12197
930.998	12277
931.103	12330
931.207	12030
931.311	11904
931.415	11874
931.519	11646
931.623	11627
