Data from test_V78500241_3031.txt Node
Date: Fri Mar 25 16:02:47 CST 2022
User: usil
Spectrometer: V785-0024
Trigger mode: 0
Integration Time (sec): 4.000000E-1
Scans to average: 1
Nonlinearity correction enabled: false
Boxcar width: 0
Storing dark spectrum: false
XAxis mode: Wavelengths
Number of Pixels in Spectrum: 1024
>>>>>Begin Spectral Data<<<<<
801.071	28672
801.214	28740
801.356	28451
801.499	28459
801.641	28341
801.783	28249
801.926	28314
802.068	28417
802.211	28219
802.353	28219
802.496	28010
802.638	27918
802.78	27861
802.923	27873
803.065	27903
803.208	27838
803.35	28105
803.492	28181
803.635	28177
803.777	28082
803.919	28246
804.061	28474
804.204	28363
804.346	28272
804.488	28177
804.63	28223
804.773	28291
804.915	28295
805.057	28344
805.199	28226
805.341	28344
805.483	28481
805.626	28322
805.768	28306
805.91	28500
806.052	28306
806.194	28318
806.336	28584
806.478	28447
806.62	28390
806.762	28542
806.904	28748
807.046	28892
807.188	28900
807.33	28752
807.472	28968
807.614	28774
807.756	28900
807.898	28744
808.04	28618
808.182	28763
808.324	28790
808.465	28748
808.607	28953
808.749	29075
808.891	29159
809.033	29364
809.174	29227
809.316	29185
809.458	29170
809.6	29071
809.741	29155
809.883	29239
810.025	29379
810.166	29379
810.308	29315
810.45	29208
810.591	29303
810.733	29147
810.875	29132
811.016	29018
811.158	29121
811.299	29239
811.441	29315
811.582	29231
811.724	29098
811.865	29022
812.007	29003
812.148	29193
812.29	29071
812.431	29299
812.573	29341
812.714	29577
812.855	29592
812.997	29657
813.138	29752
813.279	29760
813.421	29566
813.562	29516
813.703	29444
813.845	29368
813.986	29128
814.127	28995
814.268	28824
814.41	28961
814.551	28809
814.692	28797
814.833	28782
814.974	28930
815.115	28858
815.256	28710
815.397	28740
815.539	28698
815.68	28603
815.821	28413
815.962	28592
816.103	28664
816.244	28516
816.385	28287
816.526	28478
816.666	28360
816.807	28055
816.948	28128
817.089	28272
817.23	28116
817.371	28097
817.512	28090
817.653	28185
817.793	28147
817.934	28166
818.075	28185
818.216	28150
818.356	28059
818.497	28010
818.638	27895
818.778	27827
818.919	27922
819.06	27850
819.2	28120
819.341	28093
819.481	28188
819.622	28394
819.762	28554
819.903	28268
820.043	28478
820.184	28246
820.324	28230
820.465	28386
820.605	28223
820.746	28188
820.886	28044
821.026	28261
821.167	28154
821.307	28287
821.447	28200
821.588	27987
821.728	27914
821.868	27713
822.008	27675
822.149	27644
822.289	27633
822.429	27279
822.569	27249
822.709	27272
822.849	27142
822.99	27123
823.13	27024
823.27	27119
823.41	27005
823.55	26979
823.69	26925
823.83	26933
823.97	26918
824.11	26853
824.25	26792
824.389	26785
824.529	26823
824.669	26583
824.809	26868
824.949	26933
825.089	26906
825.228	26910
825.368	26560
825.508	26705
825.648	26705
825.787	26663
825.927	26762
826.067	26606
826.206	26670
826.346	26807
826.485	26735
826.625	26701
826.765	26746
826.904	26765
827.044	26431
827.183	26507
827.323	26427
827.462	26514
827.601	26347
827.741	26408
827.88	26442
828.02	26351
828.159	26431
828.298	26313
828.437	26313
828.577	26317
828.716	26320
828.855	26343
828.994	26100
829.134	25966
829.273	26035
829.412	26035
829.551	25906
829.69	26046
829.829	26077
829.968	26100
830.107	26138
830.246	26172
830.385	26027
830.524	25978
830.663	25864
830.802	25609
830.941	25681
831.08	25506
831.219	25719
831.357	25605
831.496	25845
831.635	25651
831.774	25563
831.913	25548
832.051	25392
832.19	25525
832.329	25529
832.467	25320
832.606	25320
832.744	25202
832.883	25377
833.022	25202
833.16	25293
833.299	25354
833.437	25304
833.576	25506
833.714	25384
833.852	25373
833.991	25476
834.129	25449
834.267	25419
834.406	25354
834.544	25362
834.682	25441
834.821	25419
834.959	25479
835.097	25381
835.235	25468
835.373	25510
835.511	25350
835.65	25221
835.788	25384
835.926	25129
836.064	24977
836.202	25012
836.34	25285
836.478	25236
836.615	25308
836.753	25194
836.891	25312
837.029	25263
837.167	25206
837.305	25145
837.443	25129
837.58	25160
837.718	25012
837.856	25015
837.993	25042
838.131	25015
838.269	25000
838.406	24913
838.544	24837
838.681	24673
838.819	24684
838.956	24547
839.094	24570
839.231	24513
839.369	24700
839.506	24909
839.643	24829
839.781	24505
839.918	24304
840.055	24483
840.193	24509
840.33	24445
840.467	24391
840.604	24464
840.742	24642
840.879	24251
841.016	24418
841.153	24365
841.29	24521
841.427	24350
841.564	24471
841.701	24437
841.838	24380
841.975	24281
842.112	24289
842.249	24311
842.385	24144
842.522	24338
842.659	24239
842.796	24133
842.933	24258
843.069	24251
843.206	24125
843.343	24262
843.479	24224
843.616	24030
843.752	24041
843.889	24026
844.025	24072
844.162	23942
844.298	23950
844.435	24026
844.571	23923
844.708	23958
844.844	24049
844.98	23977
845.117	24148
845.253	23882
845.389	23783
845.525	23859
845.661	23779
845.798	23783
845.934	23729
846.07	23604
846.206	23653
846.342	23783
846.478	23634
846.614	23436
846.75	23364
846.886	23383
847.022	23570
847.158	23490
847.294	23478
847.429	23429
847.565	23417
847.701	23524
847.837	23132
847.972	23048
848.108	23181
848.244	23220
848.379	23067
848.515	23147
848.65	22854
848.786	23044
848.921	23018
849.057	23052
849.192	23041
849.328	23151
849.463	22999
849.598	23014
849.734	22797
849.869	22740
850.004	22706
850.14	22710
850.275	22755
850.41	22565
850.545	22679
850.68	22759
850.815	22900
850.95	22774
851.085	22889
851.22	22953
851.355	22771
851.49	22869
851.625	22713
851.76	22847
851.895	22729
852.03	22694
852.165	22763
852.299	22881
852.434	22877
852.569	22797
852.703	22748
852.838	22771
852.973	22908
853.107	22809
853.242	22687
853.376	22592
853.511	22504
853.645	22413
853.78	22660
853.914	22786
854.048	22542
854.183	22580
854.317	22527
854.451	22740
854.585	22565
854.72	22744
854.854	22679
854.988	22645
855.122	22611
855.256	22409
855.39	22580
855.524	22660
855.658	22592
855.792	22573
855.926	22618
856.06	22557
856.194	22656
856.327	22516
856.461	22626
856.595	22557
856.729	22565
856.862	22706
856.996	22580
857.13	22588
857.263	22691
857.397	22599
857.53	22409
857.664	22611
857.797	22736
857.931	22672
858.064	22584
858.197	22599
858.331	22592
858.464	22500
858.597	22474
858.731	22573
858.864	22626
858.997	22542
859.13	22580
859.263	22512
859.396	22660
859.529	22542
859.662	22542
859.795	22557
859.928	22599
860.061	22797
860.194	22767
860.327	22542
860.46	22607
860.592	22740
860.725	22752
860.858	22740
860.99	22592
861.123	22493
861.256	22402
861.388	22485
861.521	23433
861.653	22462
861.786	22481
861.918	22470
862.05	22523
862.183	22424
862.315	22500
862.447	22599
862.58	22550
862.712	22360
862.844	22436
862.976	22352
863.108	22405
863.24	22573
863.372	22150
863.504	22322
863.636	22257
863.768	22322
863.9	22291
864.032	22109
864.164	22219
864.296	22230
864.428	22318
864.559	22318
864.691	22280
864.823	22344
864.954	22268
865.086	22284
865.217	22154
865.349	22112
865.48	22090
865.612	22226
865.743	22253
865.875	22230
866.006	22120
866.137	22162
866.269	22234
866.4	22162
866.531	22147
866.662	22029
866.793	22067
866.924	22051
867.055	22086
867.186	22109
867.317	22078
867.448	21937
867.579	22154
867.71	21975
867.841	21983
867.972	22025
868.103	22040
868.233	22204
868.364	22074
868.495	22082
868.625	22261
868.756	22398
868.886	22268
869.017	22318
869.147	22436
869.278	22413
869.408	22367
869.539	22341
869.669	22447
869.799	22306
869.929	22337
870.06	22413
870.19	22637
870.32	22672
870.45	22527
870.58	22755
870.71	22797
870.84	22858
870.97	22797
871.1	22774
871.23	22869
871.36	22869
871.489	22835
871.619	22801
871.749	23048
871.879	22889
872.008	23086
872.138	22828
872.267	22938
872.397	22801
872.526	22774
872.656	22831
872.785	22759
872.915	23010
873.044	23052
873.173	23014
873.303	23018
873.432	22987
873.561	22991
873.69	23064
873.819	22938
873.948	23094
874.077	23014
874.206	22771
874.335	22980
874.464	23064
874.593	23155
874.722	23052
874.851	23151
874.979	23052
875.108	23185
875.237	23044
875.365	23003
875.494	23159
875.623	23162
875.751	23197
875.88	23250
876.008	23277
876.136	23315
876.265	23672
876.393	23676
876.521	23668
876.65	23805
876.778	23646
876.906	23627
877.034	23425
877.162	23665
877.29	23531
877.418	23497
877.546	23501
877.674	23402
877.802	23512
877.93	23398
878.058	23417
878.185	23509
878.313	23429
878.441	23497
878.568	23360
878.696	23360
878.824	23543
878.951	23535
879.079	23760
879.206	23840
879.333	23543
879.461	23531
879.588	23642
879.715	23748
879.842	23741
879.97	23748
880.097	23345
880.224	23307
880.351	23337
880.478	23307
880.605	23250
880.732	23341
880.859	23570
880.986	23258
881.112	23284
881.239	23273
881.366	23044
881.493	23003
881.619	22949
881.746	22915
881.872	22843
881.999	22782
882.125	22782
882.252	22824
882.378	22843
882.505	22972
882.631	22717
882.757	22421
882.883	22649
883.01	22478
883.136	22306
883.262	22413
883.388	22322
883.514	22618
883.64	22653
883.766	22508
883.892	22386
884.018	22367
884.143	22398
884.269	22546
884.395	22234
884.52	22223
884.646	22207
884.772	22120
884.897	22124
885.023	22238
885.148	22268
885.274	22280
885.399	22348
885.524	22173
885.65	22257
885.775	22154
885.9	22135
886.025	22299
886.15	22287
886.275	22128
886.4	22120
886.525	22105
886.65	22029
886.775	22116
886.9	22204
887.025	22352
887.149	22185
887.274	21979
887.399	22051
887.523	21934
887.648	21922
887.773	21876
887.897	21983
888.021	21991
888.146	21789
888.27	21945
888.395	22029
888.519	21987
888.643	21968
888.767	21998
888.891	21797
889.015	21785
889.139	21827
889.263	21743
889.387	21732
889.511	21975
889.635	21857
889.759	21838
889.883	21736
890.006	21671
890.13	21755
890.254	21675
890.377	21671
890.501	21515
890.624	21420
890.748	21386
890.871	21523
890.995	21264
891.118	21203
891.241	21241
891.364	21397
891.488	21374
891.611	21401
891.734	21298
891.857	21401
891.98	21211
892.103	21173
892.226	21214
892.349	21207
892.471	21066
892.594	21127
892.717	21180
892.839	21104
892.962	21298
893.085	21192
893.207	21230
893.33	20929
893.452	21119
893.575	21138
893.697	21192
893.819	21348
893.941	21249
894.064	21237
894.186	21074
894.308	21108
894.43	21256
894.552	21256
894.674	21184
894.796	21062
894.918	21176
895.04	21104
895.161	21260
895.283	21142
895.405	21138
895.526	21058
895.648	21203
895.769	21112
895.891	21199
896.012	21233
896.134	21089
896.255	21096
896.376	21089
896.498	21104
896.619	21279
896.74	21089
896.861	21142
896.982	21485
897.103	21447
897.224	21443
897.345	21340
897.466	21226
897.587	21211
897.708	21462
897.828	21389
897.949	21359
898.07	21195
898.19	21233
898.311	21519
898.431	21355
898.552	21302
898.672	21450
898.792	21466
898.913	21405
899.033	21192
899.153	21017
899.273	21077
899.393	21104
899.513	21169
899.633	21127
899.753	21058
899.873	21043
899.993	21131
900.113	21104
900.232	21028
900.352	20986
900.472	20948
900.591	20754
900.711	20834
900.83	20876
900.95	20979
901.069	20891
901.189	20686
901.308	20541
901.427	20404
901.546	20514
901.665	20499
901.784	20469
901.904	20202
902.023	20195
902.141	19993
902.26	19967
902.379	20069
902.498	19921
902.617	19860
902.735	19928
902.854	19864
902.973	19894
903.091	19571
903.21	19639
903.328	19514
903.446	19422
903.565	19396
903.683	19278
903.801	19354
903.919	19373
904.038	19339
904.156	19103
904.274	19175
904.392	19141
904.51	19122
904.627	19015
904.745	19133
904.863	19137
904.981	18916
905.098	18753
905.216	18829
905.334	18890
905.451	18795
905.569	18776
905.686	18856
905.803	18741
905.921	18582
906.038	18578
906.155	18661
906.272	18456
906.389	18536
906.506	18319
906.623	18380
906.74	18296
906.857	18232
906.974	18197
907.091	18350
907.208	18429
907.324	18391
907.441	18228
907.557	18068
907.674	18019
907.79	17984
907.907	17916
908.023	17992
908.139	17954
908.256	17942
908.372	17916
908.488	17866
908.604	17790
908.72	17733
908.836	17748
908.952	17707
909.068	17668
909.184	17836
909.3	17832
909.415	17794
909.531	17760
909.647	17592
909.762	17493
909.878	17512
909.993	17421
910.108	17448
910.224	17455
910.339	17440
910.454	17364
910.57	17265
910.685	17102
910.8	17463
910.915	17406
911.03	17200
911.145	17060
911.259	17018
911.374	17018
911.489	16930
911.604	16839
911.718	16828
911.833	16892
911.947	16687
912.062	16542
912.176	16725
912.291	16801
912.405	16767
912.519	16984
912.633	16927
912.748	16831
912.862	16683
912.976	16508
913.09	16489
913.204	16592
913.318	16527
913.431	16672
913.545	16641
913.659	16672
913.772	16481
913.886	16398
914	16322
914.113	16474
914.226	16504
914.34	16295
914.453	16207
914.566	16390
914.68	16169
914.793	16173
914.906	15983
915.019	15918
915.132	15903
915.245	15983
915.358	15907
915.47	15926
915.583	15953
915.696	15884
915.809	15975
915.921	16078
916.034	15831
916.146	15819
916.259	15781
916.371	15895
916.483	15835
916.595	15701
916.708	15781
916.82	15739
916.932	15705
917.044	15724
917.156	15629
917.268	15523
917.38	15641
917.491	15485
917.603	15599
917.715	15625
917.826	15667
917.938	15469
918.049	15382
918.161	15466
918.272	15663
918.384	15641
918.495	15443
918.606	15230
918.717	15272
918.828	15405
918.939	15340
919.05	15249
919.161	15199
919.272	15184
919.383	15184
919.494	15363
919.604	15534
919.715	15313
919.826	15211
919.936	15173
920.047	15268
920.157	15351
920.267	15313
920.378	15264
920.488	15241
920.598	15344
920.708	15545
920.818	15336
920.928	15389
921.038	15557
921.148	15553
921.258	15131
921.368	15039
921.477	14960
921.587	14910
921.697	14830
921.806	15020
921.916	14769
922.025	14697
922.134	14678
922.244	14530
922.353	14735
922.462	14499
922.571	14442
922.68	14237
922.789	14244
922.898	14214
923.007	14187
923.116	14317
923.224	14187
923.333	14195
923.442	14046
923.55	14100
923.659	14084
923.767	14031
923.876	14043
923.984	14031
924.092	13940
924.201	14016
924.309	13970
924.417	13944
924.525	13799
924.633	13811
924.741	14693
924.849	13670
924.956	13807
925.064	13727
925.172	13616
925.279	13636
925.387	13594
925.494	13601
925.602	13655
925.709	13632
925.816	13529
925.924	13476
926.031	13643
926.138	13540
926.245	13537
926.352	13457
926.459	13590
926.566	13620
926.673	13476
926.779	13350
926.886	13289
926.993	13194
927.099	13168
927.206	13156
927.312	13156
927.419	13168
927.525	13141
927.631	13263
927.737	12947
927.843	12966
927.95	12837
928.056	12970
928.162	12977
928.267	13061
928.373	13609
928.479	12996
928.585	12791
928.69	12977
928.796	12905
928.901	12814
929.007	12650
929.112	12852
929.218	12726
929.323	12673
929.428	12745
929.533	12692
929.638	12620
929.743	12684
929.848	12654
929.953	12650
930.058	12479
930.163	12300
930.267	12323
930.372	12479
930.477	12338
930.581	12506
930.685	12380
930.79	12213
930.894	12281
930.998	12201
931.103	12342
931.207	11927
931.311	11992
931.415	11741
931.519	11554
931.623	11512
