Data from test_V78500241_2384.txt Node
Date: Fri Mar 25 15:58:18 CST 2022
User: usil
Spectrometer: V785-0024
Trigger mode: 0
Integration Time (sec): 4.000000E-1
Scans to average: 1
Nonlinearity correction enabled: false
Boxcar width: 0
Storing dark spectrum: false
XAxis mode: Wavelengths
Number of Pixels in Spectrum: 1024
>>>>>Begin Spectral Data<<<<<
801.071	28596
801.214	28622
801.356	28344
801.499	28485
801.641	28295
801.783	28234
801.926	28211
802.068	28219
802.211	28242
802.353	28169
802.496	28074
802.638	27888
802.78	27941
802.923	27812
803.065	27797
803.208	27884
803.35	27918
803.492	28139
803.635	28139
803.777	28063
803.919	28249
804.061	28497
804.204	28219
804.346	28055
804.488	28055
804.63	28314
804.773	28086
804.915	28249
805.057	28322
805.199	28280
805.341	28337
805.483	28303
805.626	28394
805.768	28337
805.91	28257
806.052	28185
806.194	28147
806.336	28508
806.478	28455
806.62	28382
806.762	28459
806.904	28645
807.046	28755
807.188	28721
807.33	28656
807.472	28809
807.614	28706
807.756	28744
807.898	28771
808.04	28455
808.182	28504
808.324	28569
808.465	28721
808.607	28923
808.749	28919
808.891	29143
809.033	29242
809.174	29064
809.316	29109
809.458	28908
809.6	28953
809.741	29086
809.883	29223
810.025	29174
810.166	29208
810.308	29280
810.45	29208
810.591	29197
810.733	28980
810.875	29075
811.016	28968
811.158	28831
811.299	29102
811.441	29193
811.582	29341
811.724	29159
811.865	28987
812.007	29022
812.148	29018
812.29	28999
812.431	29166
812.573	29421
812.714	29436
812.855	29672
812.997	29524
813.138	29843
813.279	29707
813.421	29551
813.562	29482
813.703	29349
813.845	29212
813.986	28953
814.127	28911
814.268	28748
814.41	28790
814.551	28763
814.692	28649
814.833	28755
814.974	28672
815.115	28793
815.256	28713
815.397	28653
815.539	28710
815.68	28489
815.821	28440
815.962	28611
816.103	28554
816.244	28440
816.385	28265
816.526	28287
816.666	28169
816.807	27960
816.948	28181
817.089	28120
817.23	27983
817.371	27964
817.512	28101
817.653	28055
817.793	27998
817.934	27979
818.075	27937
818.216	27968
818.356	28006
818.497	27895
818.638	27682
818.778	27888
818.919	27937
819.06	27804
819.2	27918
819.341	28139
819.481	28078
819.622	28135
819.762	28268
819.903	28344
820.043	28192
820.184	28257
820.324	28135
820.465	28363
820.605	28135
820.746	28116
820.886	27975
821.026	28226
821.167	28109
821.307	28093
821.447	28086
821.588	27979
821.728	27854
821.868	27614
822.008	27580
822.149	27641
822.289	27454
822.429	27237
822.569	27291
822.709	27245
822.849	26971
822.99	27138
823.13	27001
823.27	26887
823.41	26982
823.55	26651
823.69	26838
823.83	26842
823.97	26838
824.11	26560
824.25	26648
824.389	26621
824.529	26705
824.669	26716
824.809	26727
824.949	26686
825.089	26788
825.228	26754
825.368	26530
825.508	26564
825.648	26438
825.787	26598
825.927	26549
826.067	26404
826.206	26636
826.346	26594
826.485	26507
826.625	26503
826.765	26579
826.904	26579
827.044	26290
827.183	26339
827.323	26301
827.462	26427
827.601	26149
827.741	26183
827.88	26298
828.02	26195
828.159	26339
828.298	26278
828.437	26366
828.577	26271
828.716	26324
828.855	26172
828.994	26031
829.134	25932
829.273	26027
829.412	25944
829.551	25734
829.69	25883
829.829	25966
829.968	26046
830.107	25970
830.246	25959
830.385	26031
830.524	25795
830.663	25746
830.802	25540
830.941	25628
831.08	25563
831.219	25731
831.357	25677
831.496	25628
831.635	25586
831.774	25693
831.913	25430
832.051	25369
832.19	25358
832.329	25419
832.467	25236
832.606	25244
832.744	25221
832.883	25164
833.022	25156
833.16	25221
833.299	25179
833.437	25304
833.576	25316
833.714	25285
833.852	25373
833.991	25396
834.129	25308
834.267	25396
834.406	25304
834.544	25251
834.682	25251
834.821	25217
834.959	25502
835.097	25187
835.235	25354
835.373	25278
835.511	25270
835.65	25126
835.788	25004
835.926	24989
836.064	24901
836.202	24924
836.34	25164
836.478	25270
836.615	25004
836.753	25034
836.891	25069
837.029	25023
837.167	25152
837.305	25057
837.443	24951
837.58	25019
837.718	24924
837.856	24875
837.993	24871
838.131	24951
838.269	24848
838.406	24867
838.544	24787
838.681	24566
838.819	24578
838.956	24334
839.094	24357
839.231	24494
839.369	24509
839.506	24886
839.643	24700
839.781	24448
839.918	24319
840.055	24490
840.193	24372
840.33	24372
840.467	24365
840.604	24353
840.742	24483
840.879	24159
841.016	24315
841.153	24106
841.29	24330
841.427	24292
841.564	24437
841.701	24334
841.838	24182
841.975	24194
842.112	24174
842.249	24197
842.385	24102
842.522	24300
842.659	24213
842.796	24026
842.933	24155
843.069	24106
843.206	23973
843.343	24205
843.479	24114
843.616	24003
843.752	23832
843.889	23805
844.025	23927
844.162	23882
844.298	24003
844.435	23802
844.571	23973
844.708	23866
844.844	23984
844.98	24091
845.117	24030
845.253	23779
845.389	23707
845.525	23722
845.661	23703
845.798	23558
845.934	23615
846.07	23497
846.206	23608
846.342	23558
846.478	23741
846.614	23254
846.75	23227
846.886	23277
847.022	23353
847.158	23349
847.294	23280
847.429	23258
847.565	23227
847.701	23368
847.837	23060
847.972	22927
848.108	23128
848.244	23212
848.379	22961
848.515	22831
848.65	22889
848.786	22885
848.921	22889
849.057	23022
849.192	22991
849.328	22797
849.463	22930
849.598	22812
849.734	22740
849.869	22744
850.004	22672
850.14	22691
850.275	22710
850.41	22538
850.545	22561
850.68	22584
850.815	22717
850.95	22554
851.085	22831
851.22	22687
851.355	22691
851.49	22618
851.625	22645
851.76	22542
851.895	22535
852.03	22577
852.165	22664
852.299	22675
852.434	22698
852.569	22577
852.703	22626
852.838	22752
852.973	22698
853.107	22702
853.242	22546
853.376	22394
853.511	22310
853.645	22379
853.78	22542
853.914	22466
854.048	22443
854.183	22550
854.317	22451
854.451	22607
854.585	22497
854.72	22394
854.854	22546
854.988	22295
855.122	22493
855.256	22360
855.39	22322
855.524	22500
855.658	22527
855.792	22379
855.926	22432
856.06	22512
856.194	22519
856.327	22508
856.461	22375
856.595	22360
856.729	22535
856.862	22497
856.996	22550
857.13	22554
857.263	22592
857.397	22557
857.53	22436
857.664	22478
857.797	22462
857.931	22542
858.064	22447
858.197	22421
858.331	22337
858.464	22531
858.597	22386
858.731	22409
858.864	22367
858.997	22318
859.13	22474
859.263	22504
859.396	22554
859.529	22447
859.662	22573
859.795	22474
859.928	22542
860.061	22542
860.194	22675
860.327	22607
860.46	22398
860.592	22554
860.725	22569
860.858	22577
860.99	22523
861.123	22352
861.256	22386
861.388	22542
861.521	23166
861.653	22310
861.786	22158
861.918	22185
862.05	22314
862.183	22390
862.315	22291
862.447	22413
862.58	22481
862.712	22234
862.844	22090
862.976	22200
863.108	22261
863.24	22683
863.372	22150
863.504	22169
863.636	22105
863.768	22192
863.9	22124
864.032	22086
864.164	22215
864.296	22112
864.428	22299
864.559	22196
864.691	22135
864.823	22185
864.954	22154
865.086	22078
865.217	22128
865.349	21903
865.48	22082
865.612	22078
865.743	22135
865.875	22059
866.006	21956
866.137	22078
866.269	22074
866.4	22063
866.531	22051
866.662	21968
866.793	21922
866.924	21953
867.055	22086
867.186	22029
867.317	21857
867.448	21831
867.579	21956
867.71	21854
867.841	21907
867.972	21869
868.103	21918
868.233	22006
868.364	21934
868.495	22059
868.625	22177
868.756	22325
868.886	22025
869.017	22116
869.147	22325
869.278	22341
869.408	22303
869.539	22188
869.669	22375
869.799	22257
869.929	22382
870.06	22398
870.19	22455
870.32	22542
870.45	22565
870.58	22630
870.71	22816
870.84	22622
870.97	22611
871.1	22679
871.23	22797
871.36	22740
871.489	22691
871.619	22816
871.749	22831
871.879	22892
872.008	22850
872.138	22904
872.267	22839
872.397	22717
872.526	22672
872.656	22706
872.785	22485
872.915	22854
873.044	22957
873.173	22816
873.303	22987
873.432	22854
873.561	22957
873.69	22911
873.819	22824
873.948	22835
874.077	22816
874.206	22828
874.335	22828
874.464	22908
874.593	23124
874.722	23048
874.851	23056
874.979	22995
875.108	23071
875.237	23090
875.365	22847
875.494	22961
875.623	23048
875.751	22938
875.88	22957
876.008	23124
876.136	23200
876.265	23509
876.393	23570
876.521	23455
876.65	23604
876.778	23497
876.906	23429
877.034	23372
877.162	23471
877.29	23322
877.418	23429
877.546	23315
877.674	23307
877.802	23372
877.93	23429
878.058	23307
878.185	23337
878.313	23341
878.441	23353
878.568	23162
878.696	23349
878.824	23414
878.951	23417
879.079	23493
879.206	23608
879.333	23509
879.461	23425
879.588	23471
879.715	23547
879.842	23672
879.97	23531
880.097	23284
880.224	23261
880.351	23140
880.478	23258
880.605	23239
880.732	23128
880.859	23345
880.986	23250
881.112	23204
881.239	23037
881.366	22999
881.493	22839
881.619	22755
881.746	22782
881.872	22809
881.999	22717
882.125	22702
882.252	22805
882.378	22767
882.505	22904
882.631	22637
882.757	22603
882.883	22519
883.01	22554
883.136	22367
883.262	22272
883.388	22363
883.514	22443
883.64	22561
883.766	22306
883.892	22246
884.018	22158
884.143	22386
884.269	22417
884.395	22192
884.52	22112
884.646	22067
884.772	22013
884.897	22048
885.023	22154
885.148	22135
885.274	22124
885.399	22112
885.524	21941
885.65	22090
885.775	22074
885.9	22002
886.025	22215
886.15	22116
886.275	21945
886.4	22010
886.525	22135
886.65	21987
886.775	21876
886.9	22173
887.025	22314
887.149	21994
887.274	21827
887.399	21869
887.523	21945
887.648	21781
887.773	21713
887.897	21888
888.021	21884
888.146	21774
888.27	21835
888.395	21880
888.519	21831
888.643	21789
888.767	21808
888.891	21709
889.015	21633
889.139	21629
889.263	21519
889.387	21648
889.511	21793
889.635	21724
889.759	21629
889.883	21633
890.006	21633
890.13	21679
890.254	21572
890.377	21755
890.501	21325
890.624	21275
890.748	21378
890.871	21313
890.995	21116
891.118	21043
891.241	21176
891.364	21169
891.488	21359
891.611	21180
891.734	21222
891.857	21214
891.98	21211
892.103	21138
892.226	21077
892.349	21135
892.471	20944
892.594	20982
892.717	21154
892.839	20918
892.962	21116
893.085	21043
893.207	21211
893.33	20910
893.452	21074
893.575	21017
893.697	21020
893.819	21249
893.941	21241
894.064	21249
894.186	20986
894.308	21001
894.43	21165
894.552	21138
894.674	21138
894.796	20990
894.918	20975
895.04	20979
895.161	21176
895.283	21055
895.405	20876
895.526	20979
895.648	21055
895.769	20994
895.891	21104
896.012	21260
896.134	21116
896.255	21058
896.376	20967
896.498	20956
896.619	21165
896.74	21047
896.861	21116
896.982	21378
897.103	21519
897.224	21348
897.345	21283
897.466	21169
897.587	21176
897.708	21344
897.828	21260
897.949	21116
898.07	21089
898.19	21116
898.311	21450
898.431	21146
898.552	21176
898.672	21275
898.792	21351
898.913	21233
899.033	21188
899.153	21150
899.273	20971
899.393	20960
899.513	21001
899.633	20967
899.753	21047
899.873	21028
899.993	20948
900.113	20952
900.232	20883
900.352	20823
900.472	20849
900.591	20838
900.711	20727
900.83	20644
900.95	20842
901.069	20842
901.189	20587
901.308	20317
901.427	20347
901.546	20278
901.665	20366
901.784	20374
901.904	20233
902.023	20100
902.141	19875
902.26	19970
902.379	19944
902.498	19780
902.617	19757
902.735	19811
902.854	19849
902.973	19788
903.091	19438
903.21	19499
903.328	19487
903.446	19430
903.565	19362
903.683	19228
903.801	19156
903.919	19141
904.038	19213
904.156	19004
904.274	19198
904.392	19038
904.51	18981
904.627	19023
904.745	19065
904.863	19091
904.981	18905
905.098	18764
905.216	18779
905.334	18734
905.451	18703
905.569	18669
905.686	18631
905.803	18738
905.921	18445
906.038	18540
906.155	18490
906.272	18327
906.389	18365
906.506	18224
906.623	18258
906.74	18235
906.857	18003
906.974	18098
907.091	18266
907.208	18338
907.324	18121
907.441	18140
907.557	18011
907.674	18038
907.79	17874
907.907	17984
908.023	17904
908.139	17958
908.256	17809
908.372	17752
908.488	17798
908.604	17786
908.72	17509
908.836	17703
908.952	17600
909.068	17668
909.184	17710
909.3	17627
909.415	17699
909.531	17695
909.647	17337
909.762	17433
909.878	17364
909.993	17315
910.108	17280
910.224	17261
910.339	17288
910.454	17121
910.57	17102
910.685	17155
910.8	17376
910.915	17246
911.03	17045
911.145	16934
911.259	16904
911.374	16957
911.489	16828
911.604	16725
911.718	16622
911.833	16725
911.947	16531
912.062	16474
912.176	16656
912.291	16736
912.405	16672
912.519	16908
912.633	16866
912.748	16649
912.862	16653
912.976	16535
913.09	16360
913.204	16382
913.318	16485
913.431	16512
913.545	16516
913.659	16523
913.772	16417
913.886	16356
914	16169
914.113	16318
914.226	16451
914.34	16360
914.453	16147
914.566	16211
914.68	16082
914.793	16101
914.906	15956
915.019	15804
915.132	15778
915.245	15770
915.358	15831
915.47	15812
915.583	15800
915.696	15774
915.809	15899
915.921	15979
916.034	15823
916.146	15717
916.259	15682
916.371	15762
916.483	15804
916.595	15591
916.708	15675
916.82	15736
916.932	15648
917.044	15648
917.156	15561
917.268	15462
917.38	15481
917.491	15462
917.603	15424
917.715	15553
917.826	15587
917.938	15340
918.049	15230
918.161	15485
918.272	15507
918.384	15511
918.495	15264
918.606	15306
918.717	15154
918.828	15268
918.939	15154
919.05	15085
919.161	15188
919.272	14963
919.383	15028
919.494	15176
919.604	15340
919.715	15150
919.826	15062
919.936	15123
920.047	15207
920.157	15116
920.267	15336
920.378	15192
920.488	15142
920.598	15207
920.708	15450
920.818	15264
920.928	15176
921.038	15424
921.148	15268
921.258	15085
921.368	15085
921.477	14914
921.587	14960
921.697	14746
921.806	14872
921.916	14708
922.025	14625
922.134	14575
922.244	14442
922.353	14670
922.462	14275
922.571	14351
922.68	14119
922.789	14168
922.898	14183
923.007	14081
923.116	14202
923.224	14103
923.333	14096
923.442	13967
923.55	13928
923.659	14012
923.767	14077
923.876	13909
923.984	13932
924.092	13944
924.201	13906
924.309	13902
924.417	13780
924.525	13803
924.633	13757
924.741	14644
924.849	13548
924.956	13731
925.064	13609
925.172	13559
925.279	13590
925.387	13495
925.494	13586
925.602	13670
925.709	13548
925.816	13335
925.924	13464
926.031	13548
926.138	13415
926.245	13460
926.352	13331
926.459	13575
926.566	13495
926.673	13304
926.779	13285
926.886	13301
926.993	13072
927.099	13099
927.206	13110
927.312	12970
927.419	13149
927.525	13088
927.631	13149
927.737	12897
927.843	12916
927.95	12825
928.056	12928
928.162	12856
928.267	12947
928.373	13487
928.479	12932
928.585	12745
928.69	12825
928.796	12825
928.901	12779
929.007	12601
929.112	12776
929.218	12646
929.323	12635
929.428	12582
929.533	12783
929.638	12532
929.743	12506
929.848	12502
929.953	12536
930.058	12433
930.163	12213
930.267	12308
930.372	12388
930.477	12228
930.581	12486
930.685	12338
930.79	12095
930.894	12182
930.998	12133
931.103	12224
931.207	11904
931.311	11726
931.415	11745
931.519	11543
931.623	11509
