Data from test_V78500241_2468.txt Node
Date: Fri Mar 25 15:58:53 CST 2022
User: usil
Spectrometer: V785-0024
Trigger mode: 0
Integration Time (sec): 4.000000E-1
Scans to average: 1
Nonlinearity correction enabled: false
Boxcar width: 0
Storing dark spectrum: false
XAxis mode: Wavelengths
Number of Pixels in Spectrum: 1024
>>>>>Begin Spectral Data<<<<<
801.071	27876
801.214	27956
801.356	27778
801.499	27622
801.641	27485
801.783	27599
801.926	27599
802.068	27534
802.211	27568
802.353	27466
802.496	27226
802.638	27214
802.78	27222
802.923	27020
803.065	27123
803.208	27074
803.35	27188
803.492	27344
803.635	27351
803.777	27169
803.919	27481
804.061	27675
804.204	27496
804.346	27367
804.488	27367
804.63	27344
804.773	27553
804.915	27545
805.057	27682
805.199	27466
805.341	27557
805.483	27599
805.626	27564
805.768	27344
805.91	27485
806.052	27614
806.194	27450
806.336	27625
806.478	27663
806.62	27500
806.762	27720
806.904	27789
807.046	27987
807.188	27857
807.33	28002
807.472	27998
807.614	28010
807.756	27979
807.898	27914
808.04	27827
808.182	27819
808.324	27857
808.465	27793
808.607	28032
808.749	28112
808.891	28443
809.033	28363
809.174	28154
809.316	28135
809.458	28325
809.6	28116
809.741	28226
809.883	28310
810.025	28329
810.166	28379
810.308	28352
810.45	28462
810.591	28268
810.733	28284
810.875	28257
811.016	28067
811.158	28074
811.299	28181
811.441	28405
811.582	28371
811.724	28173
811.865	28207
812.007	28162
812.148	28322
812.29	28299
812.431	28421
812.573	28409
812.714	28561
812.855	28660
812.997	28630
813.138	28946
813.279	28793
813.421	28630
813.562	28580
813.703	28569
813.845	28421
813.986	28147
814.127	27846
814.268	27914
814.41	27983
814.551	27854
814.692	27964
814.833	27892
814.974	27781
815.115	27819
815.256	27808
815.397	27644
815.539	27724
815.68	27595
815.821	27682
815.962	27785
816.103	27652
816.244	27652
816.385	27576
816.526	27488
816.666	27195
816.807	27085
816.948	27203
817.089	27313
817.23	27161
817.371	27131
817.512	27085
817.653	27222
817.793	27093
817.934	27249
818.075	27112
818.216	27161
818.356	26982
818.497	27009
818.638	26823
818.778	26990
818.919	26910
819.06	26994
819.2	27089
819.341	27089
819.481	27138
819.622	27340
819.762	27603
819.903	27439
820.043	27310
820.184	27226
820.324	27256
820.465	27447
820.605	27119
820.746	27161
820.886	27199
821.026	27203
821.167	27294
821.307	27287
821.447	27154
821.588	27066
821.728	26963
821.868	26811
822.008	26583
822.149	26648
822.289	26682
822.429	26396
822.569	26309
822.709	26145
822.849	26088
822.99	26062
823.13	26096
823.27	26100
823.41	25963
823.55	25845
823.69	25913
823.83	25909
823.97	25982
824.11	25742
824.25	25727
824.389	25590
824.529	25791
824.669	25776
824.809	25830
824.949	25772
825.089	25803
825.228	25784
825.368	25563
825.508	25639
825.648	25677
825.787	25696
825.927	25723
826.067	25693
826.206	25651
826.346	25708
826.485	25715
826.625	25544
826.765	25712
826.904	25677
827.044	25453
827.183	25464
827.323	25240
827.462	25445
827.601	25430
827.741	25396
827.88	25400
828.02	25289
828.159	25183
828.298	25407
828.437	25301
828.577	25331
828.716	25362
828.855	25396
828.994	25126
829.134	25042
829.273	25084
829.412	25019
829.551	25061
829.69	24985
829.829	25072
829.968	24985
830.107	25145
830.246	24962
830.385	24913
830.524	24901
830.663	24871
830.802	24837
830.941	24661
831.08	24623
831.219	24707
831.357	24658
831.496	24897
831.635	24700
831.774	24593
831.913	24597
832.051	24464
832.19	24395
832.329	24395
832.467	24505
832.606	24376
832.744	24273
832.883	24357
833.022	24247
833.16	24281
833.299	24357
833.437	24410
833.576	24365
833.714	24410
833.852	24304
833.991	24426
834.129	24445
834.267	24422
834.406	24350
834.544	24460
834.682	24315
834.821	24391
834.959	24532
835.097	24372
835.235	24437
835.373	24422
835.511	24399
835.65	24258
835.788	24174
835.926	24106
836.064	23961
836.202	24034
836.34	24152
836.478	24311
836.615	24152
836.753	24186
836.891	24232
837.029	24285
837.167	24155
837.305	24072
837.443	24148
837.58	23954
837.718	24201
837.856	23980
837.993	24034
838.131	24159
838.269	23908
838.406	23942
838.544	23977
838.681	23752
838.819	23630
838.956	23490
839.094	23391
839.231	23573
839.369	23691
839.506	24018
839.643	23756
839.781	23653
839.918	23353
840.055	23551
840.193	23444
840.33	23349
840.467	23448
840.604	23486
840.742	23718
840.879	23379
841.016	23379
841.153	23292
841.29	23535
841.427	23478
841.564	23406
841.701	23505
841.838	23345
841.975	23258
842.112	23322
842.249	23299
842.385	23166
842.522	23429
842.659	23391
842.796	23166
842.933	23220
843.069	23170
843.206	23052
843.343	23246
843.479	23204
843.616	23277
843.752	22949
843.889	22873
844.025	23128
844.162	22968
844.298	22991
844.435	22923
844.571	22892
844.708	22999
844.844	22968
844.98	23029
845.117	22987
845.253	22934
845.389	22797
845.525	22923
845.661	22759
845.798	22691
845.934	22790
846.07	22660
846.206	22641
846.342	22824
846.478	22660
846.614	22512
846.75	22424
846.886	22306
847.022	22432
847.158	22577
847.294	22344
847.429	22344
847.565	22398
847.701	22554
847.837	22082
847.972	22150
848.108	22177
848.244	22333
848.379	21994
848.515	22032
848.65	21968
848.786	22029
848.921	22070
849.057	22101
849.192	22051
849.328	21960
849.463	21983
849.598	21998
849.734	21975
849.869	21907
850.004	21701
850.14	21869
850.275	21819
850.41	21778
850.545	21686
850.68	21606
850.815	21907
850.95	21736
851.085	21895
851.22	21827
851.355	21835
851.49	21698
851.625	21614
851.76	21675
851.895	21698
852.03	21705
852.165	21793
852.299	21770
852.434	21842
852.569	21732
852.703	21755
852.838	21625
852.973	21911
853.107	21808
853.242	21622
853.376	21599
853.511	21443
853.645	21553
853.78	21701
853.914	21644
854.048	21515
854.183	21553
854.317	21603
854.451	21804
854.585	21557
854.72	21648
854.854	21644
854.988	21564
855.122	21542
855.256	21397
855.39	21496
855.524	21648
855.658	21633
855.792	21652
855.926	21629
856.06	21583
856.194	21667
856.327	21568
856.461	21580
856.595	21488
856.729	21637
856.862	21701
856.996	21633
857.13	21732
857.263	21671
857.397	21633
857.53	21568
857.664	21679
857.797	21534
857.931	21759
858.064	21614
858.197	21641
858.331	21485
858.464	21500
858.597	21473
858.731	21580
858.864	21545
858.997	21511
859.13	21534
859.263	21701
859.396	21660
859.529	21583
859.662	21561
859.795	21530
859.928	21595
860.061	21682
860.194	21812
860.327	21698
860.46	21663
860.592	21743
860.725	21762
860.858	21633
860.99	21671
861.123	21485
861.256	21496
861.388	21545
861.521	22421
861.653	21545
861.786	21481
861.918	21321
862.05	21431
862.183	21405
862.315	21576
862.447	21663
862.58	21397
862.712	21370
862.844	21222
862.976	21298
863.108	21435
863.24	21816
863.372	21230
863.504	21268
863.636	21431
863.768	21291
863.9	21367
864.032	21195
864.164	21233
864.296	21370
864.428	21405
864.559	21378
864.691	21321
864.823	21332
864.954	21306
865.086	21431
865.217	21344
865.349	21093
865.48	21127
865.612	21275
865.743	21458
865.875	21256
866.006	21108
866.137	21313
866.269	21146
866.4	21207
866.531	21169
866.662	21036
866.793	21093
866.924	21112
867.055	21116
867.186	21142
867.317	21142
867.448	21009
867.579	21051
867.71	21047
867.841	21116
867.972	21100
868.103	21089
868.233	21093
868.364	21283
868.495	21138
868.625	21317
868.756	21386
868.886	21138
869.017	21340
869.147	21583
869.278	21443
869.408	21443
869.539	21481
869.669	21393
869.799	21412
869.929	21526
870.06	21538
870.19	21679
870.32	21766
870.45	21804
870.58	21781
870.71	21922
870.84	21785
870.97	21686
871.1	21827
871.23	22021
871.36	21899
871.489	21838
871.619	21880
871.749	21949
871.879	21941
872.008	22147
872.138	22002
872.267	21785
872.397	21838
872.526	21926
872.656	21956
872.785	21747
872.915	21987
873.044	22055
873.173	22044
873.303	22074
873.432	22086
873.561	22166
873.69	21907
873.819	22040
873.948	22128
874.077	22078
874.206	21987
874.335	21926
874.464	22070
874.593	22318
874.722	22265
874.851	22242
874.979	22215
875.108	22196
875.237	22044
875.365	22223
875.494	22143
875.623	22223
875.751	22192
875.88	22280
876.008	22455
876.136	22352
876.265	22725
876.393	22687
876.521	22717
876.65	22763
876.778	22653
876.906	22538
877.034	22489
877.162	22584
877.29	22561
877.418	22569
877.546	22660
877.674	22478
877.802	22607
877.93	22592
878.058	22531
878.185	22573
878.313	22557
878.441	22577
878.568	22341
878.696	22478
878.824	22630
878.951	22672
879.079	22698
879.206	22908
879.333	22679
879.461	22569
879.588	22645
879.715	22759
879.842	22889
879.97	22691
880.097	22386
880.224	22329
880.351	22409
880.478	22440
880.605	22440
880.732	22265
880.859	22573
880.986	22375
881.112	22390
881.239	22207
881.366	22143
881.493	22116
881.619	22070
881.746	22013
881.872	21842
881.999	21953
882.125	21987
882.252	21998
882.378	21857
882.505	22204
882.631	21804
882.757	21728
882.883	21743
883.01	21564
883.136	21660
883.262	21599
883.388	21431
883.514	21701
883.64	21572
883.766	21507
883.892	21447
884.018	21420
884.143	21595
884.269	21656
884.395	21279
884.52	21199
884.646	21351
884.772	21230
884.897	21169
885.023	21310
885.148	21382
885.274	21466
885.399	21279
885.524	21264
885.65	21294
885.775	21188
885.9	21291
886.025	21393
886.15	21264
886.275	21218
886.4	21203
886.525	21237
886.65	21146
886.775	21195
886.9	21389
887.025	21469
887.149	21370
887.274	21093
887.399	21009
887.523	21150
887.648	21001
887.773	21066
887.897	21165
888.021	20975
888.146	20990
888.27	21138
888.395	21161
888.519	21058
888.643	21001
888.767	21085
888.891	20944
889.015	20876
889.139	20845
889.263	20845
889.387	20956
889.511	20960
889.635	20876
889.759	20861
889.883	20830
890.006	20811
890.13	21017
890.254	20727
890.377	20807
890.501	20598
890.624	20537
890.748	20705
890.871	20488
890.995	20362
891.118	20225
891.241	20454
891.364	20560
891.488	20552
891.611	20465
891.734	20488
891.857	20423
891.98	20454
892.103	20473
892.226	20393
892.349	20191
892.471	20168
892.594	20301
892.717	20218
892.839	20263
892.962	20263
893.085	20473
893.207	20282
893.33	20149
893.452	20271
893.575	20305
893.697	20180
893.819	20442
893.941	20579
894.064	20545
894.186	20263
894.308	20229
894.43	20469
894.552	20499
894.674	20324
894.796	20252
894.918	20195
895.04	20282
895.161	20412
895.283	20427
895.405	20286
895.526	20377
895.648	20366
895.769	20263
895.891	20415
896.012	20396
896.134	20381
896.255	20400
896.376	20252
896.498	20267
896.619	20286
896.74	20309
896.861	20408
896.982	20667
897.103	20739
897.224	20598
897.345	20419
897.466	20568
897.587	20564
897.708	20594
897.828	20530
897.949	20461
898.07	20320
898.19	20442
898.311	20636
898.431	20450
898.552	20564
898.672	20667
898.792	20598
898.913	20602
899.033	20454
899.153	20377
899.273	20237
899.393	20339
899.513	20381
899.633	20366
899.753	20301
899.873	20126
899.993	20278
900.113	20195
900.232	20263
900.352	20176
900.472	20153
900.591	20111
900.711	20027
900.83	19986
900.95	20138
901.069	20195
901.189	20043
901.308	19788
901.427	19738
901.546	19693
901.665	19624
901.784	19685
901.904	19544
902.023	19468
902.141	19225
902.26	19209
902.379	19240
902.498	19240
902.617	19095
902.735	19225
902.854	19091
902.973	19088
903.091	18856
903.21	18863
903.328	18840
903.446	18776
903.565	18692
903.683	18696
903.801	18547
903.919	18616
904.038	18528
904.156	18433
904.274	18486
904.392	18357
904.51	18361
904.627	18369
904.745	18399
904.863	18422
904.981	18186
905.098	18030
905.216	18144
905.334	18064
905.451	18034
905.569	17969
905.686	17996
905.803	18083
905.921	17805
906.038	17999
906.155	17809
906.272	17809
906.389	18007
906.506	17581
906.623	17615
906.74	17657
906.857	17383
906.974	17440
907.091	17638
907.208	17802
907.324	17684
907.441	17455
907.557	17269
907.674	17292
907.79	17227
907.907	17280
908.023	17364
908.139	17296
908.256	17208
908.372	17254
908.488	17185
908.604	17003
908.72	16889
908.836	16999
908.952	16930
909.068	17094
909.184	17079
909.3	16976
909.415	17037
909.531	17033
909.647	16755
909.762	16752
909.878	16596
909.993	16755
910.108	16630
910.224	16626
910.339	16744
910.454	16519
910.57	16565
910.685	16470
910.8	16694
910.915	16645
911.03	16478
911.145	16402
911.259	16204
911.374	16303
911.489	16272
911.604	16268
911.718	16166
911.833	16044
911.947	15956
912.062	15979
912.176	15994
912.291	16147
912.405	16036
912.519	16234
912.633	16280
912.748	16128
912.862	16067
912.976	15766
913.09	15705
913.204	15842
913.318	15926
913.431	16002
913.545	15979
913.659	15949
913.772	15865
913.886	15675
914	15648
914.113	15682
914.226	15838
914.34	15770
914.453	15553
914.566	15694
914.68	15584
914.793	15382
914.906	15306
915.019	15211
915.132	15226
915.245	15298
915.358	15211
915.47	15287
915.583	15321
915.696	15313
915.809	15370
915.921	15428
916.034	15230
916.146	15161
916.259	15055
916.371	15199
916.483	15233
916.595	15100
916.708	15089
916.82	15055
916.932	14982
917.044	15085
917.156	15028
917.268	14861
917.38	14941
917.491	14891
917.603	14838
917.715	14986
917.826	14948
917.938	14773
918.049	14800
918.161	14834
918.272	14918
918.384	14948
918.495	14910
918.606	14743
918.717	14606
918.828	14777
918.939	14727
919.05	14598
919.161	14648
919.272	14484
919.383	14533
919.494	14792
919.604	14982
919.715	14686
919.826	14537
919.936	14552
920.047	14667
920.157	14644
920.267	14750
920.378	14674
920.488	14648
920.598	14773
920.708	14933
920.818	14834
920.928	14800
921.038	14921
921.148	14956
921.258	14545
921.368	14457
921.477	14434
921.587	14377
921.697	14225
921.806	14343
921.916	14278
922.025	14088
922.134	14046
922.244	14027
922.353	14191
922.462	13906
922.571	13906
922.68	13727
922.789	13708
922.898	13715
923.007	13750
923.116	13715
923.224	13544
923.333	13632
923.442	13510
923.55	13464
923.659	13491
923.767	13624
923.876	13518
923.984	13537
924.092	13396
924.201	13502
924.309	13487
924.417	13449
924.525	13327
924.633	13331
924.741	14229
924.849	13194
924.956	13388
925.064	13228
925.172	13053
925.279	13034
925.387	13179
925.494	13110
925.602	13217
925.709	13103
925.816	13027
925.924	13034
926.031	13183
926.138	13012
926.245	13053
926.352	12966
926.459	13110
926.566	13183
926.673	13004
926.779	12882
926.886	12814
926.993	12658
927.099	12719
927.206	12639
927.312	12612
927.419	12623
927.525	12563
927.631	12692
927.737	12627
927.843	12513
927.95	12369
928.056	12509
928.162	12544
928.267	12547
928.373	13137
928.479	12513
928.585	12410
928.69	12426
928.796	12460
928.901	12251
929.007	12171
929.112	12323
929.218	12319
929.323	12258
929.428	12232
929.533	12369
929.638	12201
929.743	12133
929.848	12171
929.953	12167
930.058	11965
930.163	11794
930.267	11912
930.372	11935
930.477	11809
930.581	12041
930.685	11961
930.79	11760
930.894	11760
930.998	11707
931.103	11855
931.207	11528
931.311	11505
931.415	11444
931.519	11094
931.623	11227
