Data from test_V78500241_2391.txt Node
Date: Fri Mar 25 15:58:21 CST 2022
User: usil
Spectrometer: V785-0024
Trigger mode: 0
Integration Time (sec): 4.000000E-1
Scans to average: 1
Nonlinearity correction enabled: false
Boxcar width: 0
Storing dark spectrum: false
XAxis mode: Wavelengths
Number of Pixels in Spectrum: 1024
>>>>>Begin Spectral Data<<<<<
801.071	28904
801.214	28687
801.356	28512
801.499	28489
801.641	28421
801.783	28573
801.926	28481
802.068	28401
802.211	28405
802.353	28344
802.496	28211
802.638	28128
802.78	28067
802.923	27994
803.065	27991
803.208	28059
803.35	28032
803.492	28109
803.635	28436
803.777	28078
803.919	28284
804.061	28778
804.204	28215
804.346	28261
804.488	28242
804.63	28287
804.773	28382
804.915	28379
805.057	28417
805.199	28310
805.341	28398
805.483	28409
805.626	28466
805.768	28287
805.91	28386
806.052	28436
806.194	28531
806.336	28645
806.478	28424
806.62	28432
806.762	28565
806.904	28774
807.046	29041
807.188	28984
807.33	29003
807.472	28953
807.614	28854
807.756	28900
807.898	28721
808.04	28782
808.182	28854
808.324	28854
808.465	28908
808.607	29117
808.749	29235
808.891	29261
809.033	29235
809.174	29105
809.316	29189
809.458	29212
809.6	29064
809.741	29337
809.883	29368
810.025	29482
810.166	29429
810.308	29490
810.45	29512
810.591	29429
810.733	29140
810.875	29227
811.016	29143
811.158	28949
811.299	29212
811.441	29391
811.582	29216
811.724	29155
811.865	29223
812.007	29235
812.148	29178
812.29	29136
812.431	29509
812.573	29524
812.714	29604
812.855	29703
812.997	29722
813.138	29950
813.279	29832
813.421	29581
813.562	29611
813.703	29387
813.845	29414
813.986	29223
814.127	28919
814.268	28869
814.41	28991
814.551	28839
814.692	28991
814.833	28835
814.974	28957
815.115	28976
815.256	28782
815.397	28706
815.539	28873
815.68	28668
815.821	28557
815.962	28793
816.103	28656
816.244	28698
816.385	28394
816.526	28500
816.666	28401
816.807	28078
816.948	28230
817.089	28360
817.23	28249
817.371	28204
817.512	28166
817.653	28253
817.793	28124
817.934	28238
818.075	28143
818.216	28314
818.356	28192
818.497	28097
818.638	27983
818.778	27926
818.919	27918
819.06	28017
819.2	28181
819.341	28207
819.481	28139
819.622	28284
819.762	28512
819.903	28466
820.043	28405
820.184	28409
820.324	28470
820.465	28443
820.605	28238
820.746	28436
820.886	28196
821.026	28287
821.167	28375
821.307	28318
821.447	28124
821.588	28135
821.728	28010
821.868	27823
822.008	27724
822.149	27622
822.289	27629
822.429	27344
822.569	27336
822.709	27222
822.849	27283
822.99	27116
823.13	27233
823.27	27066
823.41	26979
823.55	27001
823.69	27028
823.83	27005
823.97	26971
824.11	27001
824.25	26834
824.389	26785
824.529	26857
824.669	26849
824.809	27009
824.949	26948
825.089	26921
825.228	26933
825.368	26682
825.508	26739
825.648	26796
825.787	26720
825.927	26883
826.067	26727
826.206	26758
826.346	26739
826.485	26735
826.625	26857
826.765	26845
826.904	26845
827.044	26495
827.183	26457
827.323	26427
827.462	26564
827.601	26495
827.741	26412
827.88	26648
828.02	26328
828.159	26381
828.298	26389
828.437	26389
828.577	26552
828.716	26503
828.855	26355
828.994	26309
829.134	26107
829.273	26092
829.412	26187
829.551	26062
829.69	26008
829.829	26259
829.968	26168
830.107	26210
830.246	26081
830.385	26012
830.524	26103
830.663	25947
830.802	25940
830.941	25647
831.08	25772
831.219	25715
831.357	25784
831.496	25936
831.635	25791
831.774	25613
831.913	25643
832.051	25476
832.19	25529
832.329	25502
832.467	25449
832.606	25491
832.744	25430
832.883	25228
833.022	25415
833.16	25350
833.299	25331
833.437	25403
833.576	25472
833.714	25346
833.852	25441
833.991	25544
834.129	25666
834.267	25544
834.406	25415
834.544	25529
834.682	25400
834.821	25479
834.959	25567
835.097	25411
835.235	25434
835.373	25392
835.511	25476
835.65	25213
835.788	25316
835.926	25160
836.064	25000
836.202	25122
836.34	25232
836.478	25335
836.615	25453
836.753	25259
836.891	25327
837.029	25301
837.167	25129
837.305	25133
837.443	25133
837.58	25187
837.718	25156
837.856	25061
837.993	25061
838.131	25122
838.269	24897
838.406	25019
838.544	25023
838.681	24859
838.819	24604
838.956	24589
839.094	24517
839.231	24536
839.369	24646
839.506	24943
839.643	24856
839.781	24722
839.918	24467
840.055	24566
840.193	24585
840.33	24429
840.467	24551
840.604	24536
840.742	24791
840.879	24334
841.016	24490
841.153	24350
841.29	24608
841.427	24346
841.564	24509
841.701	24513
841.838	24372
841.975	24342
842.112	24540
842.249	24365
842.385	24273
842.522	24395
842.659	24338
842.796	24327
842.933	24247
843.069	24216
843.206	24376
843.343	24327
843.479	24285
843.616	24304
843.752	24003
843.889	24045
844.025	24117
844.162	23977
844.298	24087
844.435	24041
844.571	24110
844.708	24079
844.844	24209
844.98	24190
845.117	24121
845.253	23996
845.389	23851
845.525	23920
845.661	23874
845.798	23649
845.934	23779
846.07	23699
846.206	23813
846.342	23824
846.478	23672
846.614	23627
846.75	23273
846.886	23474
847.022	23531
847.158	23512
847.294	23444
847.429	23490
847.565	23516
847.701	23668
847.837	23265
847.972	22999
848.108	23368
848.244	23296
848.379	23064
848.515	23033
848.65	23056
848.786	23029
848.921	23105
849.057	23033
849.192	23132
849.328	23098
849.463	23105
849.598	23003
849.734	22949
849.869	22915
850.004	22873
850.14	22942
850.275	22824
850.41	22797
850.545	22900
850.68	22797
850.815	22896
850.95	22843
851.085	23014
851.22	22995
851.355	22858
851.49	22828
851.625	22816
851.76	22729
851.895	22771
852.03	22691
852.165	22755
852.299	22881
852.434	22831
852.569	22915
852.703	22812
852.838	22881
852.973	22984
853.107	23006
853.242	22736
853.376	22706
853.511	22462
853.645	22618
853.78	22816
853.914	22710
854.048	22500
854.183	22611
854.317	22607
854.451	22786
854.585	22733
854.72	22645
854.854	22801
854.988	22637
855.122	22668
855.256	22523
855.39	22683
855.524	22691
855.658	22622
855.792	22630
855.926	22683
856.06	22713
856.194	22759
856.327	22588
856.461	22706
856.595	22675
856.729	22683
856.862	22710
856.996	22740
857.13	22759
857.263	22763
857.397	22809
857.53	22702
857.664	22634
857.797	22656
857.931	22812
858.064	22637
858.197	22744
858.331	22672
858.464	22573
858.597	22398
858.731	22691
858.864	22653
858.997	22744
859.13	22546
859.263	22592
859.396	22675
859.529	22531
859.662	22577
859.795	22622
859.928	22649
860.061	22774
860.194	22748
860.327	22771
860.46	22565
860.592	22805
860.725	22854
860.858	22694
860.99	22675
861.123	22436
861.256	22550
861.388	22611
861.521	23395
861.653	22508
861.786	22531
861.918	22478
862.05	22603
862.183	22557
862.315	22512
862.447	22713
862.58	22687
862.712	22356
862.844	22242
862.976	22432
863.108	22455
863.24	22831
863.372	22268
863.504	22379
863.636	22382
863.768	22310
863.9	22371
864.032	22409
864.164	22234
864.296	22322
864.428	22379
864.559	22489
864.691	22451
864.823	22371
864.954	22398
865.086	22382
865.217	22253
865.349	22200
865.48	22166
865.612	22093
865.743	22299
865.875	22242
866.006	22219
866.137	22185
866.269	22234
866.4	22211
866.531	22093
866.662	22188
866.793	22291
866.924	22204
867.055	22074
867.186	22158
867.317	22120
867.448	22040
867.579	22105
867.71	22120
867.841	22048
867.972	22128
868.103	22067
868.233	22112
868.364	22154
868.495	22291
868.625	22379
868.756	22443
868.886	22466
869.017	22268
869.147	22367
869.278	22512
869.408	22405
869.539	22306
869.669	22577
869.799	22470
869.929	22538
870.06	22459
870.19	22656
870.32	22622
870.45	22687
870.58	22763
870.71	22919
870.84	22877
870.97	22839
871.1	22793
871.23	22930
871.36	22900
871.489	22938
871.619	22984
871.749	22968
871.879	23014
872.008	23041
872.138	23048
872.267	23102
872.397	22927
872.526	22778
872.656	22782
872.785	22816
872.915	22980
873.044	23117
873.173	23075
873.303	23090
873.432	23090
873.561	23010
873.69	23098
873.819	22980
873.948	23067
874.077	23052
874.206	22980
874.335	23056
874.464	22980
874.593	23246
874.722	23109
874.851	23128
874.979	23250
875.108	23178
875.237	23044
875.365	23166
875.494	23227
875.623	23292
875.751	23132
875.88	23364
876.008	23334
876.136	23250
876.265	23672
876.393	23691
876.521	23630
876.65	23615
876.778	23512
876.906	23589
877.034	23524
877.162	23596
877.29	23535
877.418	23471
877.546	23600
877.674	23520
877.802	23638
877.93	23433
878.058	23459
878.185	23455
878.313	23490
878.441	23551
878.568	23292
878.696	23570
878.824	23668
878.951	23630
879.079	23783
879.206	23870
879.333	23680
879.461	23528
879.588	23699
879.715	23642
879.842	23809
879.97	23558
880.097	23349
880.224	23330
880.351	23330
880.478	23364
880.605	23433
880.732	23512
880.859	23646
880.986	23349
881.112	23402
881.239	23178
881.366	23060
881.493	22885
881.619	22911
881.746	22869
881.872	22877
881.999	22923
882.125	22900
882.252	23041
882.378	22927
882.505	22934
882.631	22900
882.757	22618
882.883	22668
883.01	22622
883.136	22683
883.262	22466
883.388	22440
883.514	22516
883.64	22527
883.766	22367
883.892	22360
884.018	22379
884.143	22466
884.269	22637
884.395	22325
884.52	22109
884.646	22329
884.772	22192
884.897	22177
885.023	22223
885.148	22162
885.274	22348
885.399	22322
885.524	22211
885.65	22158
885.775	22333
885.9	22139
886.025	22257
886.15	22303
886.275	22226
886.4	22059
886.525	22276
886.65	22109
886.775	22063
886.9	22348
887.025	22493
887.149	22192
887.274	21991
887.399	22074
887.523	21968
887.648	21975
887.773	21953
887.897	21991
888.021	22032
888.146	21918
888.27	22048
888.395	22059
888.519	21998
888.643	22036
888.767	22090
888.891	21850
889.015	21816
889.139	21770
889.263	21762
889.387	21819
889.511	22036
889.635	21789
889.759	21644
889.883	21671
890.006	21934
890.13	21804
890.254	21660
890.377	21618
890.501	21424
890.624	21454
890.748	21568
890.871	21416
890.995	21283
891.118	21237
891.241	21241
891.364	21302
891.488	21317
891.611	21374
891.734	21389
891.857	21401
891.98	21325
892.103	21294
892.226	21340
892.349	21173
892.471	21135
892.594	21165
892.717	21180
892.839	21226
892.962	21241
893.085	21306
893.207	21203
893.33	21020
893.452	21093
893.575	21283
893.697	21112
893.819	21348
893.941	21416
894.064	21416
894.186	21077
894.308	21055
894.43	21249
894.552	21313
894.674	21211
894.796	21138
894.918	21184
895.04	21112
895.161	21195
895.283	21211
895.405	21100
895.526	21096
895.648	21119
895.769	21260
895.891	21203
896.012	21287
896.134	21272
896.255	21150
896.376	21165
896.498	21074
896.619	21173
896.74	21154
896.861	21230
896.982	21386
897.103	21717
897.224	21523
897.345	21477
897.466	21279
897.587	21435
897.708	21386
897.828	21431
897.949	21283
898.07	21226
898.19	21340
898.311	21439
898.431	21306
898.552	21389
898.672	21336
898.792	21405
898.913	21443
899.033	21264
899.153	21146
899.273	21039
899.393	21135
899.513	21192
899.633	21150
899.753	21085
899.873	21131
899.993	21127
900.113	20941
900.232	21119
900.352	21047
900.472	20956
900.591	20807
900.711	20864
900.83	20705
900.95	20960
901.069	20986
901.189	20864
901.308	20575
901.427	20427
901.546	20358
901.665	20499
901.784	20355
901.904	20339
902.023	20256
902.141	20084
902.26	19978
902.379	20130
902.498	20024
902.617	19875
902.735	19909
902.854	19913
902.973	19818
903.091	19575
903.21	19647
903.328	19639
903.446	19548
903.565	19453
903.683	19411
903.801	19217
903.919	19460
904.038	19362
904.156	19171
904.274	19293
904.392	19187
904.51	19065
904.627	19133
904.745	19110
904.863	19221
904.981	18981
905.098	18871
905.216	18760
905.334	18905
905.451	18814
905.569	18768
905.686	18947
905.803	18772
905.921	18669
906.038	18745
906.155	18703
906.272	18555
906.389	18490
906.506	18448
906.623	18403
906.74	18372
906.857	18243
906.974	18129
907.091	18467
907.208	18547
907.324	18346
907.441	18140
907.557	18076
907.674	18129
907.79	18041
907.907	18030
908.023	18007
908.139	18019
908.256	18003
908.372	17984
908.488	17889
908.604	17851
908.72	17630
908.836	17767
908.952	17710
909.068	17901
909.184	17836
909.3	17604
909.415	17824
909.531	17741
909.647	17452
909.762	17486
909.878	17444
909.993	17448
910.108	17341
910.224	17398
910.339	17398
910.454	17406
910.57	17239
910.685	17189
910.8	17490
910.915	17322
911.03	17364
911.145	17117
911.259	17048
911.374	17033
911.489	16946
911.604	16919
911.718	16801
911.833	16759
911.947	16721
912.062	16603
912.176	16793
912.291	16850
912.405	16740
912.519	16938
912.633	16881
912.748	16816
912.862	16729
912.976	16713
913.09	16485
913.204	16546
913.318	16550
913.431	16702
913.545	16675
913.659	16702
913.772	16519
913.886	16535
914	16428
914.113	16417
914.226	16561
914.34	16451
914.453	16341
914.566	16417
914.68	16276
914.793	16185
914.906	16006
915.019	16059
915.132	15926
915.245	15930
915.358	16006
915.47	15945
915.583	15941
915.696	16025
915.809	16101
915.921	16177
916.034	15903
916.146	15922
916.259	15941
916.371	15880
916.483	15915
916.595	15785
916.708	15842
916.82	15739
916.932	15812
917.044	15724
917.156	15713
917.268	15545
917.38	15694
917.491	15553
917.603	15591
917.715	15675
917.826	15705
917.938	15629
918.049	15424
918.161	15492
918.272	15603
918.384	15682
918.495	15576
918.606	15386
918.717	15287
918.828	15336
918.939	15393
919.05	15233
919.161	15256
919.272	15173
919.383	15123
919.494	15329
919.604	15519
919.715	15447
919.826	15313
919.936	15317
920.047	15435
920.157	15336
920.267	15473
920.378	15325
920.488	15264
920.598	15405
920.708	15625
920.818	15393
920.928	15302
921.038	15523
921.148	15557
921.258	15169
921.368	15142
921.477	15112
921.587	15020
921.697	14845
921.806	15024
921.916	14910
922.025	14746
922.134	14735
922.244	14571
922.353	14610
922.462	14446
922.571	14552
922.68	14336
922.789	14225
922.898	14324
923.007	14248
923.116	14351
923.224	14305
923.333	14263
923.442	14115
923.55	14115
923.659	14100
923.767	14221
923.876	13978
923.984	14031
924.092	13982
924.201	14001
924.309	13963
924.417	14062
924.525	13932
924.633	13917
924.741	14834
924.849	13776
924.956	13989
925.064	13674
925.172	13586
925.279	13636
925.387	13696
925.494	13719
925.602	13708
925.709	13700
925.816	13533
925.924	13601
926.031	13655
926.138	13594
926.245	13651
926.352	13495
926.459	13670
926.566	13655
926.673	13609
926.779	13441
926.886	13407
926.993	13278
927.099	13141
927.206	13156
927.312	13137
927.419	13202
927.525	13103
927.631	13221
927.737	13122
927.843	12996
927.95	12916
928.056	12981
928.162	12905
928.267	13034
928.373	13632
928.479	13053
928.585	12821
928.69	12966
928.796	12970
928.901	12943
929.007	12730
929.112	12909
929.218	12730
929.323	12760
929.428	12749
929.533	12821
929.638	12642
929.743	12669
929.848	12776
929.953	12738
930.058	12601
930.163	12441
930.267	12399
930.372	12532
930.477	12323
930.581	12566
930.685	12445
930.79	12190
930.894	12254
930.998	12292
931.103	12418
931.207	11996
931.311	11980
931.415	11859
931.519	11707
931.623	11634
