Data from test_V78500241_2314.txt Node
Date: Fri Mar 25 15:57:49 CST 2022
User: usil
Spectrometer: V785-0024
Trigger mode: 0
Integration Time (sec): 4.000000E-1
Scans to average: 1
Nonlinearity correction enabled: false
Boxcar width: 0
Storing dark spectrum: false
XAxis mode: Wavelengths
Number of Pixels in Spectrum: 1024
>>>>>Begin Spectral Data<<<<<
801.071	28934
801.214	28938
801.356	28694
801.499	28622
801.641	28546
801.783	28489
801.926	28527
802.068	28729
802.211	28398
802.353	28489
802.496	28405
802.638	28120
802.78	28268
802.923	28162
803.065	28055
803.208	28223
803.35	28242
803.492	28379
803.635	28436
803.777	28443
803.919	28371
804.061	28911
804.204	28493
804.346	28432
804.488	28386
804.63	28481
804.773	28451
804.915	28660
805.057	28588
805.199	28569
805.341	28580
805.483	28694
805.626	28675
805.768	28466
805.91	28831
806.052	28713
806.194	28523
806.336	28771
806.478	28691
806.62	28580
806.762	28740
806.904	28953
807.046	29181
807.188	29105
807.33	29136
807.472	29052
807.614	29079
807.756	29128
807.898	28972
808.04	28919
808.182	28896
808.324	29102
808.465	29041
808.607	29250
808.749	29296
808.891	29296
809.033	29433
809.174	29528
809.316	29349
809.458	29493
809.6	29292
809.741	29414
809.883	29436
810.025	29596
810.166	29562
810.308	29581
810.45	29657
810.591	29638
810.733	29299
810.875	29379
811.016	29414
811.158	29478
811.299	29467
811.441	29505
811.582	29547
811.724	29410
811.865	29311
812.007	29368
812.148	29505
812.29	29509
812.431	29676
812.573	29718
812.714	29600
812.855	29771
812.997	30091
813.138	30186
813.279	29931
813.421	29946
813.562	29939
813.703	29710
813.845	29767
813.986	29444
814.127	29162
814.268	29124
814.41	29185
814.551	29178
814.692	29170
814.833	28980
814.974	29143
815.115	29121
815.256	28862
815.397	29022
815.539	28961
815.68	28805
815.821	28915
815.962	28980
816.103	28938
816.244	28767
816.385	28717
816.526	28733
816.666	28497
816.807	28306
816.948	28519
817.089	28474
817.23	28417
817.371	28303
817.512	28375
817.653	28386
817.793	28261
817.934	28455
818.075	28557
818.216	28481
818.356	28371
818.497	28348
818.638	28120
818.778	28010
818.919	28181
819.06	28215
819.2	28413
819.341	28432
819.481	28318
819.622	28584
819.762	28797
819.903	28694
820.043	28618
820.184	28481
820.324	28523
820.465	28630
820.605	28569
820.746	28599
820.886	28466
821.026	28550
821.167	28535
821.307	28554
821.447	28573
821.588	28371
821.728	28230
821.868	28093
822.008	27991
822.149	28017
822.289	27975
822.429	27603
822.569	27644
822.709	27511
822.849	27393
822.99	27382
823.13	27340
823.27	27431
823.41	27260
823.55	27222
823.69	27321
823.83	27096
823.97	27169
824.11	27093
824.25	27074
824.389	26982
824.529	27195
824.669	26982
824.809	27260
824.949	27173
825.089	27344
825.228	27222
825.368	26994
825.508	26929
825.648	26895
825.787	26998
825.927	26952
826.067	26777
826.206	26906
826.346	26842
826.485	27058
826.625	26910
826.765	26933
826.904	26921
827.044	26781
827.183	26689
827.323	26861
827.462	26613
827.601	26636
827.741	26659
827.88	26651
828.02	26606
828.159	26632
828.298	26693
828.437	26746
828.577	26682
828.716	26811
828.855	26617
828.994	26362
829.134	26370
829.273	26381
829.412	26446
829.551	26206
829.69	26313
829.829	26393
829.968	26442
830.107	26412
830.246	26317
830.385	26187
830.524	26240
830.663	26187
830.802	26020
830.941	26027
831.08	25928
831.219	25944
831.357	25925
831.496	26142
831.635	25890
831.774	25780
831.913	25826
832.051	25723
832.19	25647
832.329	25712
832.467	25578
832.606	25647
832.744	25472
832.883	25499
833.022	25518
833.16	25521
833.299	25670
833.437	25632
833.576	25738
833.714	25784
833.852	25681
833.991	25750
834.129	25852
834.267	25723
834.406	25696
834.544	25689
834.682	25734
834.821	25575
834.959	25852
835.097	25609
835.235	25658
835.373	25677
835.511	25670
835.65	25616
835.788	25460
835.926	25381
836.064	25251
836.202	25316
836.34	25590
836.478	25624
836.615	25502
836.753	25499
836.891	25601
837.029	25529
837.167	25460
837.305	25483
837.443	25388
837.58	25331
837.718	25304
837.856	25392
837.993	25255
838.131	25168
838.269	25202
838.406	25354
838.544	25175
838.681	25057
838.819	24958
838.956	24741
839.094	24817
839.231	24916
839.369	24973
839.506	25236
839.643	25080
839.781	24726
839.918	24795
840.055	24726
840.193	24673
840.33	24669
840.467	24700
840.604	24620
840.742	25027
840.879	24566
841.016	24635
841.153	24616
841.29	24764
841.427	24623
841.564	24650
841.701	24715
841.838	24669
841.975	24525
842.112	24608
842.249	24635
842.385	24521
842.522	24852
842.659	24589
842.796	24365
842.933	24410
843.069	24391
843.206	24350
843.343	24467
843.479	24505
843.616	24464
843.752	24300
843.889	24190
844.025	24289
844.162	24365
844.298	24323
844.435	24346
844.571	24171
844.708	24251
844.844	24414
844.98	24372
845.117	24262
845.253	24311
845.389	23973
845.525	24102
845.661	24087
845.798	23836
845.934	23931
846.07	23935
846.206	23996
846.342	24030
846.478	23950
846.614	23748
846.75	23661
846.886	23619
847.022	23581
847.158	23539
847.294	23642
847.429	23745
847.565	23642
847.701	23916
847.837	23368
847.972	23337
848.108	23471
848.244	23501
848.379	23261
848.515	23337
848.65	23246
848.786	23246
848.921	23311
849.057	23425
849.192	23269
849.328	23391
849.463	23155
849.598	23174
849.734	23109
849.869	23098
850.004	23067
850.14	23079
850.275	22961
850.41	22930
850.545	22835
850.68	22976
850.815	22957
850.95	22900
851.085	23132
851.22	23181
851.355	23041
851.49	23041
851.625	22957
851.76	23022
851.895	22904
852.03	22854
852.165	22995
852.299	23147
852.434	23075
852.569	23060
852.703	23060
852.838	23090
852.973	23136
853.107	23178
853.242	22820
853.376	22778
853.511	22717
853.645	22744
853.78	22866
853.914	22938
854.048	22869
854.183	22839
854.317	22858
854.451	23090
854.585	22759
854.72	22839
854.854	22877
854.988	22812
855.122	22930
855.256	22694
855.39	22702
855.524	23022
855.658	22771
855.792	22744
855.926	22923
856.06	22862
856.194	22927
856.327	22740
856.461	22782
856.595	22706
856.729	22752
856.862	23018
856.996	22866
857.13	22889
857.263	23003
857.397	23037
857.53	22831
857.664	22923
857.797	22885
857.931	22927
858.064	22710
858.197	22984
858.331	22793
858.464	22877
858.597	22641
858.731	22691
858.864	22816
858.997	22736
859.13	22896
859.263	22831
859.396	22866
859.529	22862
859.662	22752
859.795	22805
859.928	22858
860.061	22968
860.194	23018
860.327	22900
860.46	22824
860.592	22900
860.725	22972
860.858	22877
860.99	22889
861.123	22683
861.256	22702
861.388	22774
861.521	23543
861.653	22675
861.786	22584
861.918	22748
862.05	22752
862.183	22748
862.315	22873
862.447	22885
862.58	22588
862.712	22565
862.844	22455
862.976	22588
863.108	22622
863.24	23056
863.372	22466
863.504	22622
863.636	22557
863.768	22557
863.9	22561
864.032	22485
864.164	22462
864.296	22489
864.428	22603
864.559	22622
864.691	22645
864.823	22573
864.954	22512
865.086	22474
865.217	22508
865.349	22314
865.48	22352
865.612	22363
865.743	22413
865.875	22375
866.006	22360
866.137	22238
866.269	22363
866.4	22348
866.531	22287
866.662	22280
866.793	22390
866.924	22329
867.055	22226
867.186	22291
867.317	22295
867.448	22242
867.579	22280
867.71	22257
867.841	22329
867.972	22440
868.103	22265
868.233	22287
868.364	22314
868.495	22367
868.625	22550
868.756	22584
868.886	22455
869.017	22660
869.147	22664
869.278	22683
869.408	22675
869.539	22656
869.669	22630
869.799	22542
869.929	22641
870.06	22752
870.19	22927
870.32	22957
870.45	22816
870.58	22953
870.71	23071
870.84	23075
870.97	22965
871.1	22942
871.23	23109
871.36	23128
871.489	23022
871.619	23022
871.749	23258
871.879	23269
872.008	23288
872.138	23159
872.267	23147
872.397	22976
872.526	22927
872.656	22881
872.785	23044
872.915	23208
873.044	23227
873.173	23200
873.303	23189
873.432	23250
873.561	23345
873.69	23212
873.819	23273
873.948	23166
874.077	23250
874.206	23136
874.335	23197
874.464	23368
874.593	23376
874.722	23356
874.851	23421
874.979	23448
875.108	23436
875.237	23425
875.365	23330
875.494	23326
875.623	23425
875.751	23406
875.88	23364
876.008	23387
876.136	23585
876.265	23657
876.393	23965
876.521	23813
876.65	23847
876.778	23737
876.906	23676
877.034	23851
877.162	23699
877.29	23771
877.418	23710
877.546	23718
877.674	23802
877.802	23687
877.93	23585
878.058	23577
878.185	23718
878.313	23649
878.441	23687
878.568	23509
878.696	23741
878.824	23687
878.951	23824
879.079	23866
879.206	23931
879.333	23897
879.461	23729
879.588	23866
879.715	24007
879.842	23984
879.97	23748
880.097	23501
880.224	23604
880.351	23592
880.478	23642
880.605	23444
880.732	23531
880.859	23813
880.986	23589
881.112	23589
881.239	23486
881.366	23261
881.493	23254
881.619	23174
881.746	23113
881.872	23147
881.999	23083
882.125	22953
882.252	23003
882.378	23067
882.505	23174
882.631	22942
882.757	22805
882.883	22858
883.01	22626
883.136	22626
883.262	22645
883.388	22546
883.514	22679
883.64	22839
883.766	22691
883.892	22626
884.018	22519
884.143	22748
884.269	22828
884.395	22443
884.52	22493
884.646	22405
884.772	22371
884.897	22257
885.023	22337
885.148	22561
885.274	22462
885.399	22440
885.524	22443
885.65	22455
885.775	22538
885.9	22402
886.025	22485
886.15	22554
886.275	22318
886.4	22322
886.525	22379
886.65	22325
886.775	22348
886.9	22371
887.025	22611
887.149	22333
887.274	22128
887.399	22131
887.523	22230
887.648	22109
887.773	22177
887.897	22181
888.021	22257
888.146	21994
888.27	22181
888.395	22379
888.519	22196
888.643	22166
888.767	22207
888.891	22105
889.015	21960
889.139	22013
889.263	21983
889.387	22070
889.511	22188
889.635	22097
889.759	21937
889.883	21998
890.006	21953
890.13	21968
890.254	21953
890.377	21949
890.501	21751
890.624	21728
890.748	21709
890.871	21652
890.995	21526
891.118	21466
891.241	21583
891.364	21595
891.488	21580
891.611	21583
891.734	21408
891.857	21610
891.98	21519
892.103	21511
892.226	21557
892.349	21439
892.471	21351
892.594	21466
892.717	21496
892.839	21526
892.962	21500
893.085	21443
893.207	21325
893.33	21195
893.452	21412
893.575	21443
893.697	21428
893.819	21511
893.941	21618
894.064	21462
894.186	21298
894.308	21233
894.43	21359
894.552	21568
894.674	21447
894.796	21321
894.918	21313
895.04	21313
895.161	21462
895.283	21287
895.405	21310
895.526	21355
895.648	21374
895.769	21310
895.891	21405
896.012	21477
896.134	21329
896.255	21405
896.376	21336
896.498	21291
896.619	21492
896.74	21348
896.861	21443
896.982	21694
897.103	21804
897.224	21690
897.345	21625
897.466	21492
897.587	21614
897.708	21614
897.828	21629
897.949	21458
898.07	21397
898.19	21542
898.311	21644
898.431	21485
898.552	21576
898.672	21614
898.792	21488
898.913	21606
899.033	21564
899.153	21370
899.273	21340
899.393	21272
899.513	21348
899.633	21291
899.753	21386
899.873	21306
899.993	21264
900.113	21192
900.232	21214
900.352	21184
900.472	21199
900.591	21032
900.711	21066
900.83	21039
900.95	21272
901.069	21108
901.189	20891
901.308	20682
901.427	20583
901.546	20609
901.665	20655
901.784	20552
901.904	20431
902.023	20412
902.141	20142
902.26	20187
902.379	20275
902.498	20180
902.617	20115
902.735	20206
902.854	20073
902.973	19947
903.091	19845
903.21	19776
903.328	19845
903.446	19662
903.565	19658
903.683	19605
903.801	19525
903.919	19453
904.038	19453
904.156	19472
904.274	19392
904.392	19354
904.51	19308
904.627	19381
904.745	19411
904.863	19365
904.981	19221
905.098	19023
905.216	19008
905.334	19091
905.451	18993
905.569	18966
905.686	19061
905.803	19084
905.921	18779
906.038	18951
906.155	18753
906.272	18719
906.389	18741
906.506	18540
906.623	18578
906.74	18536
906.857	18433
906.974	18479
907.091	18483
907.208	18612
907.324	18441
907.441	18395
907.557	18315
907.674	18266
907.79	18197
907.907	18209
908.023	18190
908.139	18194
908.256	18057
908.372	18053
908.488	18053
908.604	17954
908.72	17965
908.836	18019
908.952	17927
909.068	17969
909.184	18022
909.3	17904
909.415	18007
909.531	17836
909.647	17600
909.762	17638
909.878	17623
909.993	17604
910.108	17638
910.224	17520
910.339	17558
910.454	17577
910.57	17478
910.685	17360
910.8	17630
910.915	17611
911.03	17406
911.145	17261
911.259	17132
911.374	17178
911.489	17109
911.604	17071
911.718	16946
911.833	16953
911.947	16911
912.062	16812
912.176	16942
912.291	16961
912.405	17003
912.519	17136
912.633	17067
912.748	16984
912.862	16900
912.976	16790
913.09	16656
913.204	16710
913.318	16854
913.431	16755
913.545	16923
913.659	16911
913.772	16809
913.886	16611
914	16424
914.113	16599
914.226	16664
914.34	16538
914.453	16409
914.566	16531
914.68	16462
914.793	16318
914.906	16158
915.019	16055
915.132	16109
915.245	16131
915.358	16055
915.47	16135
915.583	16048
915.696	16181
915.809	16188
915.921	16188
916.034	15960
916.146	15964
916.259	15903
916.371	16017
916.483	16067
916.595	15964
916.708	15861
916.82	16013
916.932	15797
917.044	15827
917.156	15876
917.268	15751
917.38	15728
917.491	15682
917.603	15652
917.715	15743
917.826	15861
917.938	15625
918.049	15648
918.161	15652
918.272	15759
918.384	15800
918.495	15534
918.606	15401
918.717	15454
918.828	15389
918.939	15466
919.05	15428
919.161	15355
919.272	15306
919.383	15424
919.494	15488
919.604	15663
919.715	15530
919.826	15355
919.936	15348
920.047	15511
920.157	15408
920.267	15561
920.378	15473
920.488	15332
920.598	15557
920.708	15641
920.818	15553
920.928	15629
921.038	15686
921.148	15534
921.258	15325
921.368	15249
921.477	15074
921.587	15066
921.697	15005
921.806	15138
921.916	14910
922.025	14765
922.134	14727
922.244	14697
922.353	14845
922.462	14625
922.571	14526
922.68	14404
922.789	14419
922.898	14389
923.007	14362
923.116	14374
923.224	14423
923.333	14366
923.442	14233
923.55	14252
923.659	14145
923.767	14275
923.876	14153
923.984	14164
924.092	14103
924.201	14096
924.309	14172
924.417	14119
924.525	14043
924.633	14012
924.741	14937
924.849	13849
924.956	14008
925.064	13761
925.172	13715
925.279	13746
925.387	13666
925.494	13803
925.602	13868
925.709	13746
925.816	13658
925.924	13738
926.031	13814
926.138	13628
926.245	13655
926.352	13609
926.459	13662
926.566	13753
926.673	13624
926.779	13499
926.886	13426
926.993	13316
927.099	13312
927.206	13217
927.312	13251
927.419	13289
927.525	13365
927.631	13278
927.737	13187
927.843	13156
927.95	12970
928.056	13042
928.162	13015
928.267	13149
928.373	13704
928.479	13152
928.585	12962
928.69	12977
928.796	13095
928.901	12920
929.007	12939
929.112	13004
929.218	12935
929.323	12894
929.428	12783
929.533	12871
929.638	12772
929.743	12817
929.848	12806
929.953	12734
930.058	12642
930.163	12456
930.267	12475
930.372	12665
930.477	12407
930.581	12681
930.685	12460
930.79	12380
930.894	12338
930.998	12327
931.103	12418
931.207	12087
931.311	12049
931.415	11923
931.519	11627
931.623	11718
