Data from test_V78500241_1049.txt Node
Date: Fri Mar 25 15:49:04 CST 2022
User: usil
Spectrometer: V785-0024
Trigger mode: 0
Integration Time (sec): 4.000000E-1
Scans to average: 1
Nonlinearity correction enabled: false
Boxcar width: 0
Storing dark spectrum: false
XAxis mode: Wavelengths
Number of Pixels in Spectrum: 1024
>>>>>Begin Spectral Data<<<<<
801.071	28436
801.214	28527
801.356	28246
801.499	28093
801.641	28082
801.783	28040
801.926	28086
802.068	28059
802.211	27930
802.353	27934
802.496	27895
802.638	27728
802.78	27770
802.923	27694
803.065	27614
803.208	27698
803.35	27751
803.492	27838
803.635	27934
803.777	27903
803.919	27941
804.061	28306
804.204	28105
804.346	27835
804.488	27857
804.63	27918
804.773	27907
804.915	27876
805.057	28173
805.199	27956
805.341	28010
805.483	27994
805.626	27979
805.768	27937
805.91	28082
806.052	28055
806.194	28154
806.336	28401
806.478	28128
806.62	27972
806.762	28280
806.904	28386
807.046	28630
807.188	28481
807.33	28474
807.472	28649
807.614	28523
807.756	28584
807.898	28531
808.04	28428
808.182	28512
808.324	28470
808.465	28493
808.607	28565
808.749	28809
808.891	28828
809.033	28938
809.174	28812
809.316	28748
809.458	28831
809.6	28710
809.741	28892
809.883	28965
810.025	29105
810.166	29086
810.308	29174
810.45	29003
810.591	29022
810.733	28946
810.875	28831
811.016	28850
811.158	28740
811.299	28949
811.441	28972
811.582	28987
811.724	28862
811.865	28786
812.007	28858
812.148	28862
812.29	28877
812.431	29025
812.573	29140
812.714	29166
812.855	29277
812.997	29459
813.138	29611
813.279	29524
813.421	29322
813.562	29303
813.703	29162
813.845	29033
813.986	28831
814.127	28675
814.268	28523
814.41	28535
814.551	28603
814.692	28573
814.833	28592
814.974	28421
815.115	28478
815.256	28287
815.397	28401
815.539	28348
815.68	28234
815.821	28287
815.962	28394
816.103	28325
816.244	28284
816.385	28284
816.526	28150
816.666	28029
816.807	27953
816.948	28010
817.089	27903
817.23	27812
817.371	27835
817.512	27831
817.653	27800
817.793	27899
817.934	27888
818.075	27888
818.216	27983
818.356	27709
818.497	27762
818.638	27663
818.778	27682
818.919	27599
819.06	27770
819.2	27682
819.341	27785
819.481	27922
819.622	28025
819.762	28181
819.903	28341
820.043	28010
820.184	27964
820.324	28078
820.465	28135
820.605	28032
820.746	27892
820.886	27873
821.026	27918
821.167	27960
821.307	28002
821.447	27873
821.588	27869
821.728	27732
821.868	27553
822.008	27222
822.149	27306
822.289	27321
822.429	27104
822.569	27036
822.709	27051
822.849	26902
822.99	26883
823.13	26785
823.27	26826
823.41	26674
823.55	26549
823.69	26773
823.83	26640
823.97	26724
824.11	26568
824.25	26339
824.389	26461
824.529	26533
824.669	26522
824.809	26651
824.949	26602
825.089	26560
825.228	26583
825.368	26282
825.508	26412
825.648	26438
825.787	26587
825.927	26511
826.067	26320
826.206	26412
826.346	26495
826.485	26590
826.625	26434
826.765	26461
826.904	26412
827.044	26126
827.183	26237
827.323	26077
827.462	26069
827.601	26161
827.741	26126
827.88	26145
828.02	25970
828.159	26031
828.298	26225
828.437	26119
828.577	26046
828.716	26237
828.855	25970
828.994	25974
829.134	25833
829.273	25795
829.412	25860
829.551	25837
829.69	25715
829.829	25708
829.968	25902
830.107	25803
830.246	25814
830.385	25807
830.524	25597
830.663	25567
830.802	25559
830.941	25354
831.08	25457
831.219	25411
831.357	25457
831.496	25582
831.635	25350
831.774	25403
831.913	25369
832.051	25259
832.19	25232
832.329	25175
832.467	25225
832.606	25050
832.744	25118
832.883	25012
833.022	25031
833.16	24981
833.299	25107
833.437	25000
833.576	25179
833.714	25194
833.852	25152
833.991	25129
834.129	25282
834.267	25240
834.406	25095
834.544	25091
834.682	25285
834.821	25065
834.959	25247
835.097	25091
835.235	25202
835.373	25072
835.511	25164
835.65	25008
835.788	24928
835.926	24821
836.064	24760
836.202	24787
836.34	24821
836.478	25095
836.615	24867
836.753	24916
836.891	25019
837.029	24989
837.167	24886
837.305	24852
837.443	24829
837.58	24802
837.718	24707
837.856	24932
837.993	24722
838.131	24779
838.269	24639
838.406	24726
838.544	24563
838.681	24547
838.819	24403
838.956	24247
839.094	24155
839.231	24350
839.369	24399
839.506	24555
839.643	24483
839.781	24190
839.918	24098
840.055	24353
840.193	24220
840.33	24247
840.467	24121
840.604	24220
840.742	24479
840.879	24110
841.016	24155
841.153	24049
841.29	24251
841.427	24098
841.564	24205
841.701	24247
841.838	24125
841.975	24144
842.112	24060
842.249	23901
842.385	23863
842.522	24064
842.659	23920
842.796	23973
842.933	23946
843.069	23874
843.206	23859
843.343	23946
843.479	24057
843.616	23950
843.752	23699
843.889	23790
844.025	23752
844.162	23691
844.298	23786
844.435	23630
844.571	23573
844.708	23649
844.844	23802
844.98	23882
845.117	23851
845.253	23672
845.389	23634
845.525	23478
845.661	23497
845.798	23478
845.934	23402
846.07	23474
846.206	23490
846.342	23512
846.478	23402
846.614	23265
846.75	23071
846.886	23121
847.022	23235
847.158	23220
847.294	23231
847.429	23067
847.565	23189
847.701	23414
847.837	22710
847.972	22869
848.108	22820
848.244	22908
848.379	22733
848.515	22702
848.65	22733
848.786	22835
848.921	22835
849.057	22820
849.192	22691
849.328	22831
849.463	22790
849.598	22809
849.734	22508
849.869	22615
850.004	22573
850.14	22523
850.275	22447
850.41	22466
850.545	22470
850.68	22481
850.815	22493
850.95	22523
851.085	22679
851.22	22573
851.355	22443
851.49	22329
851.625	22417
851.76	22379
851.895	22405
852.03	22413
852.165	22519
852.299	22500
852.434	22531
852.569	22504
852.703	22459
852.838	22527
852.973	22455
853.107	22577
853.242	22527
853.376	22272
853.511	22226
853.645	22226
853.78	22428
853.914	22318
854.048	22185
854.183	22382
854.317	22257
854.451	22489
854.585	22265
854.72	22428
854.854	22421
854.988	22215
855.122	22291
855.256	22192
855.39	22192
855.524	22462
855.658	22382
855.792	22363
855.926	22325
856.06	22310
856.194	22360
856.327	22341
856.461	22234
856.595	22287
856.729	22375
856.862	22447
856.996	22352
857.13	22375
857.263	22424
857.397	22478
857.53	22398
857.664	22405
857.797	22440
857.931	22481
858.064	22390
858.197	22428
858.331	22379
858.464	22215
858.597	22204
858.731	22306
858.864	22265
858.997	22192
859.13	22344
859.263	22318
859.396	22382
859.529	22223
859.662	22249
859.795	22371
859.928	22325
860.061	22432
860.194	22500
860.327	22337
860.46	22261
860.592	22409
860.725	22424
860.858	22402
860.99	22382
861.123	22287
861.256	22215
861.388	22299
861.521	23029
861.653	22181
861.786	22131
861.918	22116
862.05	22242
862.183	22253
862.315	22211
862.447	22230
862.58	22200
862.712	22013
862.844	21979
862.976	22135
863.108	22078
863.24	22459
863.372	21964
863.504	22006
863.636	21975
863.768	22002
863.9	22067
864.032	21857
864.164	21998
864.296	22135
864.428	22078
864.559	22070
864.691	22078
864.823	21979
864.954	21926
865.086	22017
865.217	22006
865.349	21785
865.48	21873
865.612	21778
865.743	22086
865.875	21953
866.006	21945
866.137	21918
866.269	21846
866.4	21838
866.531	21869
866.662	21789
866.793	21819
866.924	21739
867.055	21842
867.186	21732
867.317	21827
867.448	21743
867.579	21892
867.71	21656
867.841	21736
867.972	21949
868.103	21816
868.233	21797
868.364	21857
868.495	21964
868.625	22044
868.756	22040
868.886	21934
869.017	22124
869.147	22154
869.278	22207
869.408	22177
869.539	22101
869.669	22230
869.799	22139
869.929	22139
870.06	22310
870.19	22394
870.32	22329
870.45	22409
870.58	22447
870.71	22573
870.84	22615
870.97	22394
871.1	22424
871.23	22615
871.36	22634
871.489	22656
871.619	22626
871.749	22710
871.879	22721
872.008	22672
872.138	22675
872.267	22592
872.397	22660
872.526	22485
872.656	22451
872.785	22451
872.915	22531
873.044	22816
873.173	22641
873.303	22691
873.432	22675
873.561	22805
873.69	22656
873.819	22645
873.948	22675
874.077	22710
874.206	22755
874.335	22645
874.464	22793
874.593	22938
874.722	22908
874.851	22961
874.979	22938
875.108	22904
875.237	22850
875.365	22736
875.494	22828
875.623	22854
875.751	22755
875.88	22919
876.008	23014
876.136	22995
876.265	23296
876.393	23395
876.521	23368
876.65	23395
876.778	23246
876.906	23200
877.034	23292
877.162	23181
877.29	23307
877.418	23212
877.546	23162
877.674	23208
877.802	23155
877.93	23117
878.058	23109
878.185	23041
878.313	23124
878.441	23258
878.568	23010
878.696	23235
878.824	23193
878.951	23174
879.079	23376
879.206	23452
879.333	23471
879.461	23273
879.588	23296
879.715	23318
879.842	23505
879.97	23337
880.097	22995
880.224	23109
880.351	23003
880.478	23105
880.605	22915
880.732	23113
880.859	23223
880.986	23067
881.112	23079
881.239	22877
881.366	22809
881.493	22733
881.619	22516
881.746	22771
881.872	22736
881.999	22687
882.125	22394
882.252	22538
882.378	22573
882.505	22702
882.631	22508
882.757	22382
882.883	22261
883.01	22265
883.136	22169
883.262	22143
883.388	22101
883.514	22261
883.64	22314
883.766	22226
883.892	22131
884.018	22097
884.143	22246
884.269	22314
884.395	21972
884.52	21945
884.646	21972
884.772	21907
884.897	21869
885.023	21926
885.148	21960
885.274	21915
885.399	22101
885.524	21945
885.65	21983
885.775	21903
885.9	21865
886.025	22059
886.15	22093
886.275	21907
886.4	21804
886.525	21812
886.65	21789
886.775	21785
886.9	22044
887.025	22158
887.149	21789
887.274	21808
887.399	21694
887.523	21762
887.648	21652
887.773	21603
887.897	21728
888.021	21774
888.146	21576
888.27	21808
888.395	21766
888.519	21755
888.643	21709
888.767	21682
888.891	21523
889.015	21492
889.139	21542
889.263	21458
889.387	21610
889.511	21587
889.635	21652
889.759	21367
889.883	21378
890.006	21439
890.13	21583
890.254	21572
890.377	21473
890.501	21207
890.624	21230
890.748	21283
890.871	21173
890.995	20971
891.118	20941
891.241	21039
891.364	21013
891.488	21180
891.611	21081
891.734	21180
891.857	20990
891.98	20952
892.103	20952
892.226	20956
892.349	20948
892.471	20804
892.594	20971
892.717	20925
892.839	20864
892.962	20849
893.085	20971
893.207	20910
893.33	20830
893.452	20910
893.575	20914
893.697	20975
893.819	21017
893.941	21127
894.064	21180
894.186	20891
894.308	20849
894.43	21024
894.552	21055
894.674	20986
894.796	20910
894.918	20971
895.04	20857
895.161	21005
895.283	20998
895.405	20853
895.526	21020
895.648	20918
895.769	20902
895.891	20887
896.012	21058
896.134	21020
896.255	20998
896.376	20849
896.498	20864
896.619	20948
896.74	21017
896.861	20895
896.982	21100
897.103	21336
897.224	21093
897.345	21100
897.466	21127
897.587	21119
897.708	21256
897.828	21108
897.949	21028
898.07	20880
898.19	21039
898.311	21157
898.431	21112
898.552	21085
898.672	21275
898.792	21207
898.913	21032
899.033	20948
899.153	20944
899.273	20750
899.393	20819
899.513	20842
899.633	20872
899.753	20777
899.873	20686
899.993	20788
900.113	20746
900.232	20902
900.352	20724
900.472	20651
900.591	20564
900.711	20579
900.83	20663
900.95	20667
901.069	20659
901.189	20484
901.308	20396
901.427	20157
901.546	20100
901.665	20183
901.784	20259
901.904	20096
902.023	20020
902.141	19826
902.26	19788
902.379	19879
902.498	19681
902.617	19769
902.735	19769
902.854	19674
902.973	19658
903.091	19381
903.21	19354
903.328	19407
903.446	19244
903.565	19194
903.683	19183
903.801	19042
903.919	19187
904.038	19080
904.156	18909
904.274	18932
904.392	18772
904.51	18783
904.627	18916
904.745	18989
904.863	18973
904.981	18715
905.098	18589
905.216	18623
905.334	18673
905.451	18601
905.569	18506
905.686	18502
905.803	18528
905.921	18365
906.038	18456
906.155	18346
906.272	18311
906.389	18296
906.506	18159
906.623	18106
906.74	18129
906.857	17939
906.974	17992
907.091	18114
907.208	18220
907.324	18159
907.441	18011
907.557	17882
907.674	17874
907.79	17707
907.907	17870
908.023	17828
908.139	17824
908.256	17756
908.372	17634
908.488	17619
908.604	17539
908.72	17490
908.836	17585
908.952	17474
909.068	17570
909.184	17684
909.3	17539
909.415	17627
909.531	17535
909.647	17235
909.762	17337
909.878	17235
909.993	17235
910.108	17242
910.224	17159
910.339	17208
910.454	17151
910.57	17155
910.685	16942
910.8	17303
910.915	17200
911.03	17029
911.145	16904
911.259	16869
911.374	16786
911.489	16752
911.604	16683
911.718	16580
911.833	16618
911.947	16500
912.062	16440
912.176	16474
912.291	16649
912.405	16577
912.519	16679
912.633	16782
912.748	16603
912.862	16493
912.976	16318
913.09	16188
913.204	16303
913.318	16394
913.431	16421
913.545	16379
913.659	16394
913.772	16318
913.886	16219
914	16147
914.113	16150
914.226	16390
914.34	16192
914.453	16154
914.566	16082
914.68	15968
914.793	16086
914.906	15774
915.019	15766
915.132	15736
915.245	15694
915.358	15785
915.47	15812
915.583	15705
915.696	15816
915.809	15907
915.921	15762
916.034	15717
916.146	15637
916.259	15591
916.371	15644
916.483	15584
916.595	15496
916.708	15530
916.82	15519
916.932	15469
917.044	15561
917.156	15504
917.268	15424
917.38	15401
917.491	15317
917.603	15412
917.715	15447
917.826	15435
917.938	15211
918.049	15142
918.161	15283
918.272	15500
918.384	15389
918.495	15275
918.606	15184
918.717	15097
918.828	15081
918.939	15066
919.05	15028
919.161	15055
919.272	14853
919.383	14937
919.494	15131
919.604	15355
919.715	14990
919.826	14944
919.936	15081
920.047	15112
920.157	15062
920.267	15165
920.378	15077
920.488	15036
920.598	15279
920.708	15321
920.818	15211
920.928	15199
921.038	15344
921.148	15294
921.258	14960
921.368	14937
921.477	14785
921.587	14788
921.697	14575
921.806	14811
921.916	14632
922.025	14549
922.134	14484
922.244	14343
922.353	14434
922.462	14298
922.571	14256
922.68	14233
922.789	14050
922.898	14062
923.007	13970
923.116	14069
923.224	14012
923.333	13974
923.442	13944
923.55	13932
923.659	13906
923.767	13997
923.876	13784
923.984	13852
924.092	13753
924.201	13830
924.309	13776
924.417	13731
924.525	13704
924.633	13738
924.741	14427
924.849	13483
924.956	13639
925.064	13476
925.172	13419
925.279	13381
925.387	13525
925.494	13480
925.602	13601
925.709	13487
925.816	13346
925.924	13365
926.031	13510
926.138	13388
926.245	13422
926.352	13308
926.459	13362
926.566	13491
926.673	13320
926.779	13247
926.886	13164
926.993	13015
927.099	13008
927.206	12970
927.312	12939
927.419	13084
927.525	13027
927.631	13012
927.737	12821
927.843	12848
927.95	12669
928.056	12863
928.162	12871
928.267	12928
928.373	13438
928.479	12806
928.585	12631
928.69	12776
928.796	12715
928.901	12639
929.007	12578
929.112	12642
929.218	12578
929.323	12490
929.428	12509
929.533	12582
929.638	12441
929.743	12551
929.848	12517
929.953	12513
930.058	12414
930.163	12209
930.267	12239
930.372	12330
930.477	12194
930.581	12391
930.685	12311
930.79	12083
930.894	12220
930.998	12110
931.103	12190
931.207	11847
931.311	11752
931.415	11691
931.519	11501
931.623	11436
