Data from test_V78500241_2097.txt Node
Date: Fri Mar 25 15:56:19 CST 2022
User: usil
Spectrometer: V785-0024
Trigger mode: 0
Integration Time (sec): 4.000000E-1
Scans to average: 1
Nonlinearity correction enabled: false
Boxcar width: 0
Storing dark spectrum: false
XAxis mode: Wavelengths
Number of Pixels in Spectrum: 1024
>>>>>Begin Spectral Data<<<<<
801.071	28881
801.214	28869
801.356	28653
801.499	28592
801.641	28577
801.783	28542
801.926	28424
802.068	28531
802.211	28447
802.353	28493
802.496	28234
802.638	28211
802.78	28063
802.923	28177
803.065	28116
803.208	28090
803.35	28382
803.492	28398
803.635	28371
803.777	28367
803.919	28379
804.061	28717
804.204	28542
804.346	28466
804.488	28375
804.63	28512
804.773	28462
804.915	28382
805.057	28577
805.199	28432
805.341	28527
805.483	28653
805.626	28527
805.768	28577
805.91	28577
806.052	28710
806.194	28561
806.336	28892
806.478	28691
806.62	28668
806.762	28831
806.904	28942
807.046	29178
807.188	29140
807.33	29136
807.472	29124
807.614	29204
807.756	29056
807.898	28965
808.04	28934
808.182	28987
808.324	28968
808.465	29041
808.607	29223
808.749	29334
808.891	29387
809.033	29463
809.174	29524
809.316	29341
809.458	29345
809.6	29356
809.741	29330
809.883	29611
810.025	29623
810.166	29615
810.308	29649
810.45	29577
810.591	29539
810.733	29497
810.875	29288
811.016	29368
811.158	29227
811.299	29326
811.441	29665
811.582	29455
811.724	29410
811.865	29410
812.007	29242
812.148	29360
812.29	29280
812.431	29596
812.573	29722
812.714	29767
812.855	29954
812.997	30030
813.138	30079
813.279	30007
813.421	29840
813.562	29942
813.703	29851
813.845	29638
813.986	29368
814.127	29162
814.268	28915
814.41	29136
814.551	29140
814.692	29345
814.833	28919
814.974	29010
815.115	29147
815.256	28995
815.397	28972
815.539	29003
815.68	28976
815.821	28797
815.962	28877
816.103	28995
816.244	28736
816.385	28687
816.526	28717
816.666	28538
816.807	28413
816.948	28367
817.089	28557
817.23	28363
817.371	28409
817.512	28394
817.653	28329
817.793	28390
817.934	28386
818.075	28356
818.216	28459
818.356	28299
818.497	28310
818.638	28097
818.778	27960
818.919	28143
819.06	28261
819.2	28265
819.341	28341
819.481	28447
819.622	28557
819.762	28733
819.903	28710
820.043	28717
820.184	28653
820.324	28504
820.465	28557
820.605	28443
820.746	28493
820.886	28268
821.026	28634
821.167	28504
821.307	28588
821.447	28451
821.588	28325
821.728	28169
821.868	27949
822.008	27903
822.149	27827
822.289	27888
822.429	27671
822.569	27557
822.709	27576
822.849	27256
822.99	27462
823.13	27386
823.27	27367
823.41	27226
823.55	27077
823.69	27157
823.83	27291
823.97	27127
824.11	27100
824.25	27013
824.389	27013
824.529	27070
824.669	27203
824.809	27043
824.949	27195
825.089	27150
825.228	27062
825.368	26971
825.508	26880
825.648	26914
825.787	26914
825.927	26986
826.067	26861
826.206	26914
826.346	26982
826.485	27017
826.625	26914
826.765	27066
826.904	26933
827.044	26716
827.183	26659
827.323	26648
827.462	26712
827.601	26667
827.741	26568
827.88	26621
828.02	26530
828.159	26636
828.298	26609
828.437	26800
828.577	26518
828.716	26594
828.855	26495
828.994	26366
829.134	26381
829.273	26377
829.412	26404
829.551	26393
829.69	26351
829.829	26336
829.968	26393
830.107	26423
830.246	26256
830.385	26317
830.524	26267
830.663	26153
830.802	26088
830.941	25784
831.08	25925
831.219	25947
831.357	25978
831.496	26187
831.635	25852
831.774	25890
831.913	25864
832.051	25776
832.19	25708
832.329	25746
832.467	25712
832.606	25441
832.744	25487
832.883	25483
833.022	25525
833.16	25677
833.299	25563
833.437	25559
833.576	25715
833.714	25647
833.852	25693
833.991	25643
834.129	25700
834.267	25727
834.406	25753
834.544	25772
834.682	25594
834.821	25594
834.959	25811
835.097	25533
835.235	25586
835.373	25723
835.511	25833
835.65	25537
835.788	25540
835.926	25502
836.064	25388
836.202	25400
836.34	25567
836.478	25525
836.615	25506
836.753	25544
836.891	25578
837.029	25476
837.167	25415
837.305	25468
837.443	25384
837.58	25266
837.718	25460
837.856	25301
837.993	25240
838.131	25312
838.269	25160
838.406	25278
838.544	25118
838.681	24966
838.819	24943
838.956	24779
839.094	24703
839.231	24840
839.369	24947
839.506	25179
839.643	25031
839.781	24787
839.918	24616
840.055	24730
840.193	24726
840.33	24677
840.467	24654
840.604	24798
840.742	24954
840.879	24460
841.016	24639
841.153	24544
841.29	24760
841.427	24654
841.564	24825
841.701	24642
841.838	24604
841.975	24563
842.112	24589
842.249	24536
842.385	24410
842.522	24525
842.659	24582
842.796	24418
842.933	24391
843.069	24464
843.206	24441
843.343	24517
843.479	24350
843.616	24464
843.752	24201
843.889	24144
844.025	24300
844.162	24182
844.298	24296
844.435	24140
844.571	24030
844.708	24201
844.844	24296
844.98	24243
845.117	24216
845.253	24114
845.389	24083
845.525	24174
845.661	24224
845.798	23916
845.934	23969
846.07	23878
846.206	23904
846.342	24194
846.478	23950
846.614	23752
846.75	23714
846.886	23684
847.022	23665
847.158	23752
847.294	23611
847.429	23703
847.565	23638
847.701	23870
847.837	23463
847.972	23326
848.108	23364
848.244	23474
848.379	23284
848.515	23151
848.65	23296
848.786	23372
848.921	23254
849.057	23433
849.192	23242
849.328	23440
849.463	23258
849.598	23136
849.734	22976
849.869	23052
850.004	23037
850.14	22934
850.275	22991
850.41	22930
850.545	22968
850.68	22961
850.815	22949
850.95	23174
851.085	23239
851.22	23071
851.355	22942
851.49	23003
851.625	22949
851.76	22953
851.895	22873
852.03	23041
852.165	23094
852.299	22987
852.434	23113
852.569	22927
852.703	23018
852.838	23003
852.973	23140
853.107	23086
853.242	22927
853.376	22839
853.511	22664
853.645	22881
853.78	22908
853.914	22862
854.048	22656
854.183	22778
854.317	22869
854.451	22987
854.585	22892
854.72	22809
854.854	22869
854.988	22793
855.122	22850
855.256	22721
855.39	22698
855.524	22729
855.658	22915
855.792	22896
855.926	22908
856.06	22809
856.194	23048
856.327	22820
856.461	22729
856.595	22664
856.729	22721
856.862	22961
856.996	22915
857.13	22797
857.263	22942
857.397	22942
857.53	22847
857.664	22919
857.797	22927
857.931	23018
858.064	22831
858.197	22869
858.331	22801
858.464	22797
858.597	22660
858.731	22729
858.864	22672
858.997	22835
859.13	22774
859.263	22866
859.396	22812
859.529	22820
859.662	22862
859.795	22748
859.928	22748
860.061	22911
860.194	23079
860.327	22858
860.46	22854
860.592	22946
860.725	23010
860.858	22957
860.99	22847
861.123	22694
861.256	22763
861.388	22889
861.521	23493
861.653	22862
861.786	22451
861.918	22736
862.05	22630
862.183	22786
862.315	22752
862.447	22763
862.58	22816
862.712	22443
862.844	22379
862.976	22523
863.108	22596
863.24	22961
863.372	22500
863.504	22542
863.636	22470
863.768	22550
863.9	22493
864.032	22474
864.164	22417
864.296	22569
864.428	22615
864.559	22538
864.691	22478
864.823	22580
864.954	22371
865.086	22481
865.217	22390
865.349	22329
865.48	22440
865.612	22371
865.743	22447
865.875	22405
866.006	22436
866.137	22394
866.269	22352
866.4	22341
866.531	22238
866.662	22421
866.793	22367
866.924	22280
867.055	22405
867.186	22337
867.317	22306
867.448	22196
867.579	22284
867.71	22242
867.841	22188
867.972	22394
868.103	22261
868.233	22341
868.364	22325
868.495	22390
868.625	22546
868.756	22497
868.886	22554
869.017	22489
869.147	22729
869.278	22653
869.408	22508
869.539	22527
869.669	22588
869.799	22489
869.929	22702
870.06	22653
870.19	22809
870.32	22965
870.45	22919
870.58	23006
870.71	23071
870.84	23044
870.97	22987
871.1	22949
871.23	23143
871.36	23102
871.489	23041
871.619	23231
871.749	23113
871.879	23227
872.008	23318
872.138	23143
872.267	23090
872.397	23143
872.526	22927
872.656	23090
872.785	22999
872.915	23269
873.044	23345
873.173	23006
873.303	23140
873.432	23170
873.561	23284
873.69	23303
873.819	23151
873.948	23208
874.077	23090
874.206	23064
874.335	23288
874.464	23250
874.593	23356
874.722	23467
874.851	23334
874.979	23356
875.108	23391
875.237	23235
875.365	23220
875.494	23349
875.623	23490
875.751	23349
875.88	23296
876.008	23364
876.136	23577
876.265	23855
876.393	23783
876.521	23882
876.65	23824
876.778	23771
876.906	23657
877.034	23699
877.162	23661
877.29	23630
877.418	23680
877.546	23608
877.674	23779
877.802	23764
877.93	23817
878.058	23832
878.185	23604
878.313	23661
878.441	23634
878.568	23577
878.696	23684
878.824	23714
878.951	23821
879.079	23843
879.206	23939
879.333	23813
879.461	23794
879.588	23779
879.715	23745
879.842	23961
879.97	23802
880.097	23672
880.224	23566
880.351	23627
880.478	23558
880.605	23558
880.732	23642
880.859	23790
880.986	23512
881.112	23554
881.239	23349
881.366	23140
881.493	23128
881.619	23121
881.746	23121
881.872	23071
881.999	23071
882.125	23075
882.252	23079
882.378	23067
882.505	23071
882.631	22938
882.757	22702
882.883	22763
883.01	22729
883.136	22656
883.262	22675
883.388	22641
883.514	22850
883.64	22736
883.766	22611
883.892	22542
884.018	22565
884.143	22778
884.269	22778
884.395	22527
884.52	22318
884.646	22516
884.772	22257
884.897	22261
885.023	22329
885.148	22519
885.274	22485
885.399	22478
885.524	22344
885.65	22481
885.775	22428
885.9	22379
886.025	22542
886.15	22424
886.275	22379
886.4	22242
886.525	22440
886.65	22295
886.775	22333
886.9	22485
887.025	22596
887.149	22447
887.274	22265
887.399	22177
887.523	22223
887.648	21983
887.773	22017
887.897	22230
888.021	22215
888.146	22067
888.27	22147
888.395	22226
888.519	22078
888.643	22265
888.767	22101
888.891	22074
889.015	21922
889.139	22131
889.263	21895
889.387	21972
889.511	22070
889.635	21956
889.759	21835
889.883	21937
890.006	21895
890.13	22029
890.254	21846
890.377	21846
890.501	21713
890.624	21637
890.748	21686
890.871	21583
890.995	21485
891.118	21534
891.241	21507
891.364	21416
891.488	21545
891.611	21606
891.734	21481
891.857	21549
891.98	21447
892.103	21519
892.226	21416
892.349	21428
892.471	21302
892.594	21435
892.717	21542
892.839	21355
892.962	21386
893.085	21351
893.207	21359
893.33	21188
893.452	21237
893.575	21481
893.697	21275
893.819	21633
893.941	21530
894.064	21443
894.186	21329
894.308	21287
894.43	21424
894.552	21485
894.674	21325
894.796	21329
894.918	21268
895.04	21291
895.161	21420
895.283	21378
895.405	21344
895.526	21275
895.648	21370
895.769	21218
895.891	21458
896.012	21344
896.134	21447
896.255	21344
896.376	21279
896.498	21351
896.619	21298
896.74	21435
896.861	21348
896.982	21576
897.103	21751
897.224	21583
897.345	21591
897.466	21462
897.587	21583
897.708	21667
897.828	21481
897.949	21481
898.07	21382
898.19	21348
898.311	21660
898.431	21382
898.552	21568
898.672	21637
898.792	21580
898.913	21568
899.033	21428
899.153	21252
899.273	21199
899.393	21237
899.513	21237
899.633	21173
899.753	21268
899.873	21150
899.993	21249
900.113	21313
900.232	21272
900.352	21211
900.472	21089
900.591	20895
900.711	21058
900.83	20925
900.95	21161
901.069	21074
901.189	20895
901.308	20682
901.427	20545
901.546	20518
901.665	20598
901.784	20579
901.904	20530
902.023	20343
902.141	20100
902.26	20164
902.379	20240
902.498	20031
902.617	20084
902.735	20119
902.854	20016
902.973	19913
903.091	19715
903.21	19639
903.328	19685
903.446	19586
903.565	19521
903.683	19499
903.801	19384
903.919	19499
904.038	19457
904.156	19251
904.274	19373
904.392	19145
904.51	19282
904.627	19289
904.745	19316
904.863	19335
904.981	19152
905.098	18958
905.216	18920
905.334	18973
905.451	18981
905.569	18985
905.686	18924
905.803	18909
905.921	18627
906.038	18890
906.155	18753
906.272	18525
906.389	18570
906.506	18437
906.623	18597
906.74	18494
906.857	18384
906.974	18460
907.091	18509
907.208	18623
907.324	18517
907.441	18448
907.557	18285
907.674	18129
907.79	18064
907.907	18129
908.023	18311
908.139	18209
908.256	18102
908.372	18133
908.488	18041
908.604	17920
908.72	17904
908.836	17961
908.952	17897
909.068	17878
909.184	18007
909.3	17958
909.415	17885
909.531	17874
909.647	17707
909.762	17627
909.878	17554
909.993	17676
910.108	17623
910.224	17619
910.339	17604
910.454	17455
910.57	17337
910.685	17296
910.8	17509
910.915	17528
911.03	17227
911.145	17204
911.259	17155
911.374	17136
911.489	17102
911.604	16942
911.718	16869
911.833	16927
911.947	16831
912.062	16805
912.176	16847
912.291	17018
912.405	17048
912.519	17109
912.633	17189
912.748	17018
912.862	16812
912.976	16824
913.09	16565
913.204	16672
913.318	16755
913.431	16729
913.545	16767
913.659	16858
913.772	16733
913.886	16413
914	16497
914.113	16592
914.226	16645
914.34	16596
914.453	16386
914.566	16527
914.68	16402
914.793	16371
914.906	16207
915.019	15991
915.132	16131
915.245	16040
915.358	16078
915.47	16040
915.583	16109
915.696	16128
915.809	16249
915.921	16147
916.034	15987
916.146	15994
916.259	16036
916.371	16002
916.483	15907
916.595	15835
916.708	15857
916.82	15888
916.932	15827
917.044	15770
917.156	15774
917.268	15679
917.38	15705
917.491	15587
917.603	15698
917.715	15766
917.826	15724
917.938	15644
918.049	15542
918.161	15587
918.272	15835
918.384	15778
918.495	15606
918.606	15416
918.717	15424
918.828	15534
918.939	15545
919.05	15374
919.161	15382
919.272	15226
919.383	15291
919.494	15519
919.604	15690
919.715	15363
919.826	15245
919.936	15378
920.047	15469
920.157	15424
920.267	15576
920.378	15359
920.488	15378
920.598	15523
920.708	15663
920.818	15595
920.928	15492
921.038	15690
921.148	15599
921.258	15344
921.368	15176
921.477	15173
921.587	15097
921.697	14906
921.806	15131
921.916	14963
922.025	14804
922.134	14655
922.244	14689
922.353	14754
922.462	14678
922.571	14518
922.68	14389
922.789	14415
922.898	14381
923.007	14294
923.116	14328
923.224	14370
923.333	14324
923.442	14252
923.55	14225
923.659	14218
923.767	14290
923.876	14092
923.984	14210
924.092	14153
924.201	14012
924.309	14164
924.417	14084
924.525	13902
924.633	14081
924.741	14914
924.849	13807
924.956	13970
925.064	13761
925.172	13689
925.279	13750
925.387	13723
925.494	13666
925.602	13837
925.709	13727
925.816	13655
925.924	13696
926.031	13761
926.138	13651
926.245	13643
926.352	13605
926.459	13681
926.566	13731
926.673	13468
926.779	13422
926.886	13518
926.993	13251
927.099	13156
927.206	13171
927.312	13251
927.419	13339
927.525	13289
927.631	13225
927.737	13171
927.843	13095
927.95	13046
928.056	12981
928.162	13118
928.267	13118
928.373	13704
928.479	13084
928.585	12905
928.69	12996
928.796	13031
928.901	12882
929.007	12726
929.112	12905
929.218	12837
929.323	12722
929.428	12837
929.533	12913
929.638	12700
929.743	12665
929.848	12776
929.953	12734
930.058	12544
930.163	12380
930.267	12509
930.372	12589
930.477	12422
930.581	12627
930.685	12479
930.79	12319
930.894	12315
930.998	12254
931.103	12418
931.207	12068
931.311	11958
931.415	11821
931.519	11722
931.623	11642
