Data from test_V78500241_2590.txt Node
Date: Fri Mar 25 15:59:44 CST 2022
User: usil
Spectrometer: V785-0024
Trigger mode: 0
Integration Time (sec): 4.000000E-1
Scans to average: 1
Nonlinearity correction enabled: false
Boxcar width: 0
Storing dark spectrum: false
XAxis mode: Wavelengths
Number of Pixels in Spectrum: 1024
>>>>>Begin Spectral Data<<<<<
801.071	28577
801.214	28500
801.356	28261
801.499	28265
801.641	28048
801.783	28124
801.926	28067
802.068	28261
802.211	28109
802.353	27991
802.496	27770
802.638	27895
802.78	27724
802.923	27717
803.065	27694
803.208	27770
803.35	27717
803.492	27922
803.635	27975
803.777	27865
803.919	27991
804.061	28166
804.204	28139
804.346	27888
804.488	27880
804.63	27998
804.773	27903
804.915	28112
805.057	28120
805.199	28029
805.341	28116
805.483	28029
805.626	28131
805.768	28101
805.91	28207
806.052	28280
806.194	28070
806.336	28329
806.478	28181
806.62	28116
806.762	28329
806.904	28440
807.046	28679
807.188	28546
807.33	28683
807.472	28512
807.614	28481
807.756	28603
807.898	28561
808.04	28287
808.182	28508
808.324	28470
808.465	28500
808.607	28717
808.749	28866
808.891	29060
809.033	28999
809.174	28843
809.316	28892
809.458	28801
809.6	28774
809.741	28911
809.883	29006
810.025	29166
810.166	29178
810.308	29181
810.45	29083
810.591	29010
810.733	28854
810.875	28934
811.016	28744
811.158	28816
811.299	28968
811.441	29033
811.582	29010
811.724	28828
811.865	28812
812.007	28938
812.148	28877
812.29	28812
812.431	29147
812.573	29311
812.714	29383
812.855	29296
812.997	29440
813.138	29661
813.279	29444
813.421	29280
813.562	29242
813.703	29067
813.845	29083
813.986	28797
814.127	28694
814.268	28580
814.41	28554
814.551	28538
814.692	28573
814.833	28379
814.974	28371
815.115	28546
815.256	28447
815.397	28561
815.539	28421
815.68	28276
815.821	28310
815.962	28333
816.103	28443
816.244	28223
816.385	28116
816.526	28192
816.666	27979
816.807	27838
816.948	27941
817.089	27857
817.23	27884
817.371	27876
817.512	27934
817.653	27800
817.793	27922
817.934	27850
818.075	27793
818.216	27914
818.356	27876
818.497	27778
818.638	27641
818.778	27610
818.919	27576
819.06	27660
819.2	27637
819.341	27979
819.481	27812
819.622	27991
819.762	28177
819.903	28021
820.043	28078
820.184	27937
820.324	27987
820.465	27953
820.605	27960
820.746	27850
820.886	27819
821.026	27975
821.167	27991
821.307	27975
821.447	27895
821.588	27774
821.728	27614
821.868	27526
822.008	27439
822.149	27344
822.289	27306
822.429	27169
822.569	26986
822.709	27070
822.849	26880
822.99	26845
823.13	26735
823.27	26804
823.41	26613
823.55	26541
823.69	26811
823.83	26670
823.97	26484
824.11	26450
824.25	26465
824.389	26446
824.529	26492
824.669	26609
824.809	26678
824.949	26743
825.089	26575
825.228	26594
825.368	26233
825.508	26332
825.648	26347
825.787	26324
825.927	26507
826.067	26336
826.206	26415
826.346	26377
826.485	26530
826.625	26393
826.765	26488
826.904	26446
827.044	26153
827.183	26180
827.323	26008
827.462	26084
827.601	26084
827.741	26024
827.88	26164
828.02	26001
828.159	26046
828.298	26058
828.437	26103
828.577	26005
828.716	26244
828.855	26012
828.994	25822
829.134	25833
829.273	25830
829.412	25689
829.551	25670
829.69	25849
829.829	25833
829.968	25890
830.107	25875
830.246	25849
830.385	25723
830.524	25746
830.663	25552
830.802	25635
830.941	25495
831.08	25419
831.219	25472
831.357	25453
831.496	25575
831.635	25411
831.774	25190
831.913	25228
832.051	25190
832.19	25072
832.329	25320
832.467	25114
832.606	24973
832.744	25015
832.883	25088
833.022	25065
833.16	25164
833.299	25141
833.437	25190
833.576	25099
833.714	25202
833.852	25126
833.991	25114
834.129	25232
834.267	25179
834.406	25126
834.544	25270
834.682	24996
834.821	25103
834.959	25259
835.097	25088
835.235	25129
835.373	25110
835.511	25042
835.65	25107
835.788	24913
835.926	24787
836.064	24795
836.202	24867
836.34	25050
836.478	25012
836.615	24913
836.753	25004
836.891	25084
837.029	24909
837.167	24806
837.305	24909
837.443	24833
837.58	24810
837.718	24859
837.856	24715
837.993	24749
838.131	24768
838.269	24639
838.406	24677
838.544	24547
838.681	24376
838.819	24464
838.956	24213
839.094	24254
839.231	24289
839.369	24460
839.506	24673
839.643	24642
839.781	24182
839.918	24148
840.055	24239
840.193	24224
840.33	24121
840.467	24201
840.604	24167
840.742	24456
840.879	24041
841.016	24045
841.153	23901
841.29	24114
841.427	24155
841.564	24133
841.701	24174
841.838	24087
841.975	24034
842.112	24167
842.249	23859
842.385	23821
842.522	24022
842.659	24064
842.796	23870
842.933	23889
843.069	23897
843.206	23859
843.343	23866
843.479	23935
843.616	23889
843.752	23646
843.889	23630
844.025	23779
844.162	23779
844.298	23672
844.435	23592
844.571	23687
844.708	23642
844.844	23863
844.98	23916
845.117	23790
845.253	23615
845.389	23482
845.525	23566
845.661	23501
845.798	23433
845.934	23600
846.07	23277
846.206	23589
846.342	23573
846.478	23231
846.614	23197
846.75	23010
846.886	23185
847.022	23174
847.158	23204
847.294	23151
847.429	23132
847.565	23121
847.701	23402
847.837	22752
847.972	22755
848.108	22976
848.244	22862
848.379	22793
848.515	22702
848.65	22668
848.786	22812
848.921	22759
849.057	22847
849.192	22797
849.328	22835
849.463	22786
849.598	22641
849.734	22660
849.869	22645
850.004	22432
850.14	22516
850.275	22466
850.41	22352
850.545	22291
850.68	22409
850.815	22542
850.95	22421
851.085	22660
851.22	22607
851.355	22489
851.49	22542
851.625	22500
851.76	22447
851.895	22280
852.03	22367
852.165	22527
852.299	22500
852.434	22664
852.569	22653
852.703	22478
852.838	22497
852.973	22668
853.107	22626
853.242	22409
853.376	22291
853.511	22147
853.645	22226
853.78	22470
853.914	22253
854.048	22287
854.183	22265
854.317	22314
854.451	22592
854.585	22306
854.72	22325
854.854	22363
854.988	22249
855.122	22272
855.256	22268
855.39	22265
855.524	22291
855.658	22333
855.792	22265
855.926	22314
856.06	22280
856.194	22417
856.327	22299
856.461	22173
856.595	22215
856.729	22215
856.862	22481
856.996	22318
857.13	22440
857.263	22322
857.397	22306
857.53	22265
857.664	22276
857.797	22386
857.931	22325
858.064	22268
858.197	22337
858.331	22394
858.464	22215
858.597	22116
858.731	22242
858.864	22230
858.997	22177
859.13	22173
859.263	22352
859.396	22291
859.529	22230
859.662	22219
859.795	22299
859.928	22238
860.061	22462
860.194	22459
860.327	22440
860.46	22390
860.592	22394
860.725	22478
860.858	22478
860.99	22299
861.123	22246
861.256	22268
861.388	22249
861.521	22911
861.653	22173
861.786	22013
861.918	22211
862.05	22147
862.183	22261
862.315	22363
862.447	22268
862.58	22299
862.712	22029
862.844	22025
862.976	22055
863.108	22036
863.24	22386
863.372	21895
863.504	22032
863.636	22067
863.768	22059
863.9	22082
864.032	21998
864.164	21937
864.296	22112
864.428	22143
864.559	22139
864.691	22112
864.823	21956
864.954	21785
865.086	21869
865.217	22067
865.349	21918
865.48	21831
865.612	21998
865.743	21994
865.875	21934
866.006	21899
866.137	21975
866.269	21888
866.4	21800
866.531	21861
866.662	21816
866.793	21770
866.924	21781
867.055	21888
867.186	21797
867.317	21854
867.448	21797
867.579	21800
867.71	21759
867.841	21800
867.972	21998
868.103	21835
868.233	21823
868.364	21880
868.495	21926
868.625	22040
868.756	22158
868.886	22101
869.017	22051
869.147	22124
869.278	22067
869.408	22139
869.539	21987
869.669	22158
869.799	22063
869.929	22192
870.06	22078
870.19	22268
870.32	22325
870.45	22322
870.58	22493
870.71	22531
870.84	22565
870.97	22440
871.1	22413
871.23	22580
871.36	22706
871.489	22687
871.619	22710
871.749	22752
871.879	22691
872.008	22831
872.138	22752
872.267	22637
872.397	22478
872.526	22440
872.656	22527
872.785	22519
872.915	22649
873.044	22710
873.173	22816
873.303	22649
873.432	22774
873.561	22649
873.69	22763
873.819	22755
873.948	22649
874.077	22691
874.206	22748
874.335	22607
874.464	22713
874.593	22869
874.722	22873
874.851	23029
874.979	22873
875.108	22961
875.237	22812
875.365	22748
875.494	22839
875.623	22900
875.751	22850
875.88	23006
876.008	23060
876.136	23140
876.265	23246
876.393	23372
876.521	23414
876.65	23452
876.778	23387
876.906	23216
877.034	23235
877.162	23181
877.29	23189
877.418	23208
877.546	23185
877.674	23212
877.802	23235
877.93	23288
878.058	23193
878.185	23136
878.313	23128
878.441	23121
878.568	23067
878.696	23143
878.824	23265
878.951	23448
879.079	23421
879.206	23459
879.333	23421
879.461	23151
879.588	23246
879.715	23368
879.842	23531
879.97	23250
880.097	23170
880.224	23075
880.351	23102
880.478	23128
880.605	23079
880.732	23185
880.859	23307
880.986	23041
881.112	23159
881.239	22980
881.366	22892
881.493	22733
881.619	22698
881.746	22630
881.872	22569
881.999	22584
882.125	22550
882.252	22733
882.378	22626
882.505	22668
882.631	22447
882.757	22352
882.883	22382
883.01	22230
883.136	22360
883.262	22116
883.388	22097
883.514	22253
883.64	22234
883.766	22188
883.892	22055
884.018	22124
884.143	22192
884.269	22299
884.395	22055
884.52	21884
884.646	21964
884.772	21926
884.897	21724
885.023	21884
885.148	21945
885.274	22158
885.399	22124
885.524	21972
885.65	22101
885.775	21888
885.9	21911
886.025	21972
886.15	21903
886.275	21922
886.4	21926
886.525	21873
886.65	21812
886.775	21854
886.9	21922
887.025	22048
887.149	21778
887.274	21728
887.399	21625
887.523	21698
887.648	21583
887.773	21606
887.897	21724
888.021	21823
888.146	21633
888.27	21918
888.395	21823
888.519	21751
888.643	21751
888.767	21770
888.891	21587
889.015	21420
889.139	21587
889.263	21545
889.387	21564
889.511	21644
889.635	21591
889.759	21386
889.883	21507
890.006	21473
890.13	21622
890.254	21504
890.377	21374
890.501	21283
890.624	21157
890.748	21306
890.871	21226
890.995	21077
891.118	21005
891.241	20990
891.364	21047
891.488	20921
891.611	21028
891.734	21036
891.857	21119
891.98	21093
892.103	21043
892.226	21017
892.349	20960
892.471	20792
892.594	20998
892.717	20902
892.839	20830
892.962	20971
893.085	21032
893.207	20876
893.33	20796
893.452	20788
893.575	20971
893.697	20853
893.819	21081
893.941	21165
894.064	21013
894.186	20880
894.308	20914
894.43	20982
894.552	21047
894.674	21173
894.796	20838
894.918	20918
895.04	20830
895.161	20948
895.283	20986
895.405	20785
895.526	20956
895.648	20941
895.769	20933
895.891	20982
896.012	20918
896.134	20891
896.255	20941
896.376	20857
896.498	20781
896.619	20986
896.74	20925
896.861	20937
896.982	21272
897.103	21367
897.224	21165
897.345	21127
897.466	21085
897.587	20971
897.708	21161
897.828	21199
897.949	21104
898.07	20982
898.19	21131
898.311	21252
898.431	20979
898.552	21081
898.672	21146
898.792	21131
898.913	21131
899.033	21013
899.153	21020
899.273	20857
899.393	20979
899.513	20933
899.633	20762
899.753	20864
899.873	20830
899.993	20899
900.113	20823
900.232	20830
900.352	20758
900.472	20762
900.591	20507
900.711	20796
900.83	20640
900.95	20640
901.069	20670
901.189	20442
901.308	20320
901.427	20050
901.546	20221
901.665	20221
901.784	20199
901.904	20062
902.023	19986
902.141	19837
902.26	19765
902.379	19647
902.498	19643
902.617	19594
902.735	19791
902.854	19715
902.973	19696
903.091	19354
903.21	19362
903.328	19266
903.446	19285
903.565	19145
903.683	19175
903.801	18989
903.919	19145
904.038	19034
904.156	18932
904.274	19046
904.392	18993
904.51	18856
904.627	18814
904.745	18905
904.863	18920
904.981	18749
905.098	18521
905.216	18536
905.334	18601
905.451	18574
905.569	18585
905.686	18608
905.803	18612
905.921	18308
906.038	18456
906.155	18407
906.272	18346
906.389	18311
906.506	18133
906.623	18155
906.74	18102
906.857	17980
906.974	17942
907.091	18152
907.208	18171
907.324	18114
907.441	18041
907.557	17821
907.674	17885
907.79	17718
907.907	17608
908.023	17851
908.139	17824
908.256	17805
908.372	17668
908.488	17638
908.604	17676
908.72	17417
908.836	17493
908.952	17509
909.068	17490
909.184	17703
909.3	17547
909.415	17532
909.531	17501
909.647	17425
909.762	17200
909.878	17197
909.993	17185
910.108	17178
910.224	17204
910.339	17109
910.454	17121
910.57	17060
910.685	17010
910.8	17216
910.915	17212
911.03	17109
911.145	16835
911.259	16809
911.374	16812
911.489	16683
911.604	16664
911.718	16535
911.833	16504
911.947	16474
912.062	16390
912.176	16588
912.291	16599
912.405	16569
912.519	16710
912.633	16729
912.748	16607
912.862	16542
912.976	16367
913.09	16363
913.204	16314
913.318	16344
913.431	16493
913.545	16455
913.659	16398
913.772	16200
913.886	16128
914	16200
914.113	16181
914.226	16325
914.34	16196
914.453	16173
914.566	16223
914.68	15998
914.793	16097
914.906	15819
915.019	15755
915.132	15637
915.245	15671
915.358	15789
915.47	15789
915.583	15793
915.696	15717
915.809	15793
915.921	15827
916.034	15743
916.146	15660
916.259	15637
916.371	15755
916.483	15686
916.595	15458
916.708	15511
916.82	15469
916.932	15526
917.044	15526
917.156	15542
917.268	15416
917.38	15412
917.491	15374
917.603	15355
917.715	15363
917.826	15496
917.938	15382
918.049	15169
918.161	15260
918.272	15420
918.384	15416
918.495	15283
918.606	15131
918.717	15058
918.828	15154
918.939	15100
919.05	15009
919.161	15085
919.272	14891
919.383	14941
919.494	15097
919.604	15245
919.715	15161
919.826	15058
919.936	15020
920.047	15081
920.157	14998
920.267	15287
920.378	15074
920.488	15081
920.598	15256
920.708	15336
920.818	15245
920.928	15146
921.038	15283
921.148	15359
921.258	15047
921.368	14872
921.477	14842
921.587	14891
921.697	14621
921.806	14815
921.916	14571
922.025	14393
922.134	14336
922.244	14332
922.353	14476
922.462	14320
922.571	14282
922.68	14092
922.789	14058
922.898	14058
923.007	14008
923.116	14081
923.224	14069
923.333	14031
923.442	13932
923.55	13860
923.659	13902
923.767	14020
923.876	13864
923.984	13864
924.092	13753
924.201	13791
924.309	13738
924.417	13799
924.525	13685
924.633	13693
924.741	14682
924.849	13480
924.956	13628
925.064	13510
925.172	13381
925.279	13441
925.387	13453
925.494	13403
925.602	13544
925.709	13537
925.816	13327
925.924	13369
926.031	13407
926.138	13434
926.245	13472
926.352	13244
926.459	13476
926.566	13483
926.673	13320
926.779	13259
926.886	13190
926.993	13023
927.099	13015
927.206	12977
927.312	12958
927.419	13031
927.525	13004
927.631	12970
927.737	12973
927.843	12863
927.95	12764
928.056	12749
928.162	12867
928.267	12859
928.373	13388
928.479	12814
928.585	12612
928.69	12696
928.796	12745
928.901	12639
929.007	12490
929.112	12768
929.218	12559
929.323	12555
929.428	12616
929.533	12551
929.638	12456
929.743	12483
929.848	12506
929.953	12506
930.058	12418
930.163	12163
930.267	12308
930.372	12410
930.477	12136
930.581	12376
930.685	12186
930.79	12068
930.894	12095
930.998	12087
931.103	12209
931.207	11855
931.311	11737
931.415	11608
931.519	11444
931.623	11356
