Data from test_V78500241_3577.txt Node
Date: Fri Mar 25 16:06:34 CST 2022
User: usil
Spectrometer: V785-0024
Trigger mode: 0
Integration Time (sec): 4.000000E-1
Scans to average: 1
Nonlinearity correction enabled: false
Boxcar width: 0
Storing dark spectrum: false
XAxis mode: Wavelengths
Number of Pixels in Spectrum: 1024
>>>>>Begin Spectral Data<<<<<
801.071	28771
801.214	28752
801.356	28603
801.499	28432
801.641	28432
801.783	28512
801.926	28360
802.068	28436
802.211	28253
802.353	28295
802.496	28128
802.638	28029
802.78	27960
802.923	27899
803.065	28093
803.208	28048
803.35	27975
803.492	28158
803.635	28333
803.777	28242
803.919	28375
804.061	28618
804.204	28363
804.346	28200
804.488	28215
804.63	28371
804.773	28192
804.915	28325
805.057	28611
805.199	28379
805.341	28481
805.483	28451
805.626	28554
805.768	28390
805.91	28382
806.052	28565
806.194	28474
806.336	28634
806.478	28588
806.62	28592
806.762	28706
806.904	28847
807.046	28961
807.188	28927
807.33	29056
807.472	29041
807.614	28927
807.756	28831
807.898	28729
808.04	28706
808.182	28599
808.324	28809
808.465	28987
808.607	29083
808.749	29189
808.891	29334
809.033	29383
809.174	29204
809.316	29159
809.458	29337
809.6	29128
809.741	29155
809.883	29341
810.025	29360
810.166	29425
810.308	29554
810.45	29512
810.591	29501
810.733	29284
810.875	29140
811.016	29143
811.158	29136
811.299	29322
811.441	29379
811.582	29360
811.724	29140
811.865	29155
812.007	29212
812.148	29258
812.29	29170
812.431	29364
812.573	29611
812.714	29471
812.855	29828
812.997	29851
813.138	30057
813.279	29920
813.421	29809
813.562	29634
813.703	29668
813.845	29516
813.986	29128
814.127	28999
814.268	28919
814.41	28908
814.551	28839
814.692	29056
814.833	28896
814.974	28801
815.115	29029
815.256	28873
815.397	28949
815.539	28805
815.68	28752
815.821	28675
815.962	28748
816.103	28839
816.244	28637
816.385	28626
816.526	28459
816.666	28409
816.807	28177
816.948	28219
817.089	28322
817.23	28261
817.371	28150
817.512	28234
817.653	28303
817.793	28333
817.934	28207
818.075	28295
818.216	28310
818.356	28223
818.497	28131
818.638	28063
818.778	28032
818.919	28025
819.06	28154
819.2	28116
819.341	28246
819.481	28303
819.622	28314
819.762	28447
819.903	28459
820.043	28462
820.184	28386
820.324	28379
820.465	28455
820.605	28341
820.746	28272
820.886	28219
821.026	28386
821.167	28284
821.307	28481
821.447	28303
821.588	28097
821.728	27998
821.868	27876
822.008	27880
822.149	27835
822.289	27720
822.429	27534
822.569	27477
822.709	27420
822.849	27325
822.99	27272
823.13	27405
823.27	27279
823.41	27135
823.55	26864
823.69	27154
823.83	26986
823.97	27074
824.11	26895
824.25	26804
824.389	26823
824.529	26914
824.669	26853
824.809	27138
824.949	27131
825.089	26887
825.228	26971
825.368	26868
825.508	26670
825.648	26708
825.787	26792
825.927	26788
826.067	26834
826.206	26906
826.346	26773
826.485	26872
826.625	26842
826.765	26876
826.904	26842
827.044	26537
827.183	26674
827.323	26385
827.462	26541
827.601	26571
827.741	26419
827.88	26518
828.02	26267
828.159	26442
828.298	26556
828.437	26640
828.577	26461
828.716	26701
828.855	26488
828.994	26050
829.134	26164
829.273	26218
829.412	26164
829.551	26103
829.69	26122
829.829	26103
829.968	26225
830.107	26210
830.246	26206
830.385	26024
830.524	26138
830.663	25966
830.802	25852
830.941	25803
831.08	25750
831.219	25989
831.357	25894
831.496	26126
831.635	25852
831.774	25742
831.913	25693
832.051	25613
832.19	25483
832.329	25533
832.467	25438
832.606	25468
832.744	25449
832.883	25392
833.022	25316
833.16	25343
833.299	25628
833.437	25449
833.576	25628
833.714	25400
833.852	25559
833.991	25624
834.129	25594
834.267	25552
834.406	25472
834.544	25643
834.682	25567
834.821	25464
834.959	25681
835.097	25464
835.235	25571
835.373	25563
835.511	25537
835.65	25304
835.788	25388
835.926	25126
836.064	25145
836.202	25259
836.34	25301
836.478	25381
836.615	25301
836.753	25270
836.891	25350
837.029	25316
837.167	25129
837.305	25148
837.443	25034
837.58	25110
837.718	25160
837.856	25156
837.993	25133
838.131	25228
838.269	24981
838.406	25000
838.544	25095
838.681	24863
838.819	24932
838.956	24635
839.094	24578
839.231	24787
839.369	24738
839.506	25084
839.643	24981
839.781	24776
839.918	24627
840.055	24559
840.193	24627
840.33	24475
840.467	24547
840.604	24551
840.742	24814
840.879	24319
841.016	24460
841.153	24467
841.29	24673
841.427	24422
841.564	24555
841.701	24532
841.838	24445
841.975	24399
842.112	24414
842.249	24365
842.385	24319
842.522	24429
842.659	24456
842.796	24315
842.933	24239
843.069	24319
843.206	24201
843.343	24285
843.479	24209
843.616	24194
843.752	24068
843.889	24041
844.025	24216
844.162	24079
844.298	24106
844.435	24072
844.571	23984
844.708	24091
844.844	24300
844.98	24281
845.117	24171
845.253	23977
845.389	24011
845.525	24038
845.661	23969
845.798	23775
845.934	23904
846.07	23897
846.206	23821
846.342	23889
846.478	23904
846.614	23528
846.75	23440
846.886	23490
847.022	23611
847.158	23543
847.294	23516
847.429	23512
847.565	23512
847.701	23680
847.837	23254
847.972	23239
848.108	23463
848.244	23242
848.379	23151
848.515	23155
848.65	23090
848.786	23208
848.921	23124
849.057	23204
849.192	23170
849.328	23197
849.463	23075
849.598	23044
849.734	23006
849.869	22911
850.004	22862
850.14	22797
850.275	22957
850.41	22801
850.545	22793
850.68	22869
850.815	22885
850.95	22828
851.085	23056
851.22	22961
851.355	22828
851.49	22934
851.625	22835
851.76	22862
851.895	22843
852.03	22801
852.165	22862
852.299	22923
852.434	22908
852.569	22828
852.703	22892
852.838	22968
852.973	23006
853.107	23025
853.242	22877
853.376	22740
853.511	22577
853.645	22702
853.78	22881
853.914	22717
854.048	22683
854.183	22672
854.317	22694
854.451	22885
854.585	22767
854.72	22687
854.854	22812
854.988	22713
855.122	22771
855.256	22626
855.39	22744
855.524	22698
855.658	22866
855.792	22675
855.926	22729
856.06	22763
856.194	22782
856.327	22729
856.461	22683
856.595	22523
856.729	22637
856.862	22812
856.996	22744
857.13	22752
857.263	22839
857.397	22839
857.53	22622
857.664	22763
857.797	22820
857.931	22835
858.064	22611
858.197	22786
858.331	22645
858.464	22755
858.597	22447
858.731	22683
858.864	22535
858.997	22599
859.13	22675
859.263	22664
859.396	22744
859.529	22664
859.662	22656
859.795	22656
859.928	22755
860.061	22736
860.194	22889
860.327	22782
860.46	22668
860.592	22809
860.725	22854
860.858	22736
860.99	22752
861.123	22618
861.256	22588
861.388	22736
861.521	23509
861.653	22702
861.786	22428
861.918	22417
862.05	22580
862.183	22630
862.315	22683
862.447	22691
862.58	22755
862.712	22280
862.844	22360
862.976	22500
863.108	22432
863.24	22919
863.372	22390
863.504	22371
863.636	22291
863.768	22402
863.9	22367
864.032	22265
864.164	22451
864.296	22367
864.428	22440
864.559	22550
864.691	22470
864.823	22421
864.954	22424
865.086	22402
865.217	22432
865.349	22196
865.48	22246
865.612	22223
865.743	22348
865.875	22238
866.006	22284
866.137	22253
866.269	22314
866.4	22162
866.531	22166
866.662	22287
866.793	22219
866.924	22249
867.055	22291
867.186	22291
867.317	22154
867.448	22086
867.579	22219
867.71	22082
867.841	22070
867.972	22139
868.103	22147
868.233	22268
868.364	22139
868.495	22246
868.625	22432
868.756	22596
868.886	22318
869.017	22417
869.147	22626
869.278	22508
869.408	22508
869.539	22523
869.669	22470
869.799	22489
869.929	22546
870.06	22603
870.19	22869
870.32	22801
870.45	22869
870.58	22805
870.71	22927
870.84	22911
870.97	22873
871.1	22976
871.23	23071
871.36	22995
871.489	22980
871.619	23056
871.749	22991
871.879	23048
872.008	23204
872.138	23105
872.267	22987
872.397	22919
872.526	22919
872.656	22885
872.785	22774
872.915	23067
873.044	23060
873.173	23079
873.303	23086
873.432	23159
873.561	23193
873.69	23280
873.819	23124
873.948	23113
874.077	23109
874.206	23052
874.335	22949
874.464	23098
874.593	23356
874.722	23231
874.851	23246
874.979	23277
875.108	23231
875.237	23204
875.365	23178
875.494	23250
875.623	23307
875.751	23246
875.88	23337
876.008	23463
876.136	23459
876.265	23623
876.393	23741
876.521	23649
876.65	23699
876.778	23672
876.906	23627
877.034	23623
877.162	23627
877.29	23585
877.418	23623
877.546	23646
877.674	23577
877.802	23573
877.93	23642
878.058	23577
878.185	23379
878.313	23661
878.441	23619
878.568	23440
878.696	23474
878.824	23653
878.951	23672
879.079	23779
879.206	23889
879.333	23893
879.461	23752
879.588	23699
879.715	23771
879.842	23904
879.97	23722
880.097	23493
880.224	23474
880.351	23551
880.478	23414
880.605	23288
880.732	23490
880.859	23646
880.986	23436
881.112	23486
881.239	23360
881.366	23216
881.493	23231
881.619	23075
881.746	23136
881.872	23014
881.999	22896
882.125	23044
882.252	23014
882.378	22911
882.505	23018
882.631	22972
882.757	22759
882.883	22854
883.01	22694
883.136	22584
883.262	22504
883.388	22565
883.514	22622
883.64	22611
883.766	22683
883.892	22523
884.018	22382
884.143	22630
884.269	22691
884.395	22318
884.52	22265
884.646	22352
884.772	22276
884.897	22348
885.023	22322
885.148	22386
885.274	22542
885.399	22417
885.524	22177
885.65	22261
885.775	22421
885.9	22139
886.025	22352
886.15	22402
886.275	22219
886.4	22185
886.525	22284
886.65	22177
886.775	22246
886.9	22337
887.025	22352
887.149	22265
887.274	22059
887.399	22040
887.523	22139
887.648	22101
887.773	21884
887.897	22192
888.021	22101
888.146	22006
888.27	22253
888.395	22223
888.519	22067
888.643	22086
888.767	22150
888.891	21934
889.015	21915
889.139	21911
889.263	21739
889.387	21934
889.511	22105
889.635	22097
889.759	21934
889.883	21812
890.006	21854
890.13	21907
890.254	21895
890.377	21819
890.501	21766
890.624	21568
890.748	21614
890.871	21545
890.995	21378
891.118	21378
891.241	21587
891.364	21469
891.488	21675
891.611	21473
891.734	21488
891.857	21485
891.98	21469
892.103	21458
892.226	21420
892.349	21363
892.471	21138
892.594	21268
892.717	21443
892.839	21275
892.962	21344
893.085	21363
893.207	21260
893.33	21222
893.452	21199
893.575	21313
893.697	21176
893.819	21519
893.941	21447
894.064	21454
894.186	21165
894.308	21188
894.43	21268
894.552	21443
894.674	21374
894.796	21408
894.918	21245
895.04	21374
895.161	21370
895.283	21310
895.405	21306
895.526	21252
895.648	21252
895.769	21370
895.891	21260
896.012	21462
896.134	21344
896.255	21351
896.376	21329
896.498	21272
896.619	21313
896.74	21264
896.861	21382
896.982	21644
897.103	21698
897.224	21526
897.345	21466
897.466	21420
897.587	21447
897.708	21698
897.828	21625
897.949	21523
898.07	21310
898.19	21283
898.311	21485
898.431	21416
898.552	21431
898.672	21424
898.792	21557
898.913	21519
899.033	21424
899.153	21279
899.273	21184
899.393	21180
899.513	21176
899.633	21279
899.753	21275
899.873	21127
899.993	21154
900.113	21100
900.232	21138
900.352	21062
900.472	20979
900.591	21173
900.711	21036
900.83	20967
900.95	20910
901.069	21005
901.189	20849
901.308	20556
901.427	20469
901.546	20492
901.665	20609
901.784	20564
901.904	20290
902.023	20298
902.141	20020
902.26	20092
902.379	20172
902.498	20027
902.617	20096
902.735	20046
902.854	19947
902.973	19921
903.091	19776
903.21	19799
903.328	19666
903.446	19502
903.565	19548
903.683	19571
903.801	19316
903.919	19415
904.038	19346
904.156	19293
904.274	19289
904.392	19236
904.51	19179
904.627	19198
904.745	19259
904.863	19327
904.981	19084
905.098	18920
905.216	18886
905.334	18916
905.451	18882
905.569	18951
905.686	18848
905.803	18856
905.921	18730
906.038	18844
906.155	18665
906.272	18566
906.389	18650
906.506	18357
906.623	18414
906.74	18350
906.857	18342
906.974	18342
907.091	18486
907.208	18665
907.324	18445
907.441	18296
907.557	18216
907.674	18174
907.79	18045
907.907	18049
908.023	18064
908.139	18152
908.256	18186
908.372	17988
908.488	17980
908.604	17965
908.72	17897
908.836	17904
908.952	17912
909.068	17870
909.184	18022
909.3	17912
909.415	17824
909.531	17843
909.647	17547
909.762	17512
909.878	17558
909.993	17452
910.108	17478
910.224	17455
910.339	17615
910.454	17490
910.57	17269
910.685	17258
910.8	17448
910.915	17497
911.03	17368
911.145	17143
911.259	17181
911.374	17086
911.489	17147
911.604	17010
911.718	16881
911.833	16919
911.947	16797
912.062	16672
912.176	16816
912.291	16759
912.405	16839
912.519	17014
912.633	17098
912.748	17029
912.862	16824
912.976	16653
913.09	16611
913.204	16618
913.318	16653
913.431	16824
913.545	16927
913.659	16759
913.772	16626
913.886	16432
914	16440
914.113	16485
914.226	16546
914.34	16481
914.453	16367
914.566	16516
914.68	16390
914.793	16398
914.906	16177
915.019	16093
915.132	15968
915.245	16010
915.358	16128
915.47	16074
915.583	16071
915.696	16074
915.809	16082
915.921	16109
916.034	15903
916.146	15918
916.259	15953
916.371	16059
916.483	15945
916.595	15846
916.708	15800
916.82	15770
916.932	15755
917.044	15667
917.156	15743
917.268	15660
917.38	15709
917.491	15679
917.603	15713
917.715	15747
917.826	15793
917.938	15652
918.049	15580
918.161	15564
918.272	15713
918.384	15739
918.495	15488
918.606	15382
918.717	15310
918.828	15538
918.939	15420
919.05	15374
919.161	15393
919.272	15154
919.383	15329
919.494	15344
919.604	15511
919.715	15374
919.826	15207
919.936	15268
920.047	15431
920.157	15351
920.267	15538
920.378	15450
920.488	15222
920.598	15477
920.708	15694
920.818	15477
920.928	15492
921.038	15610
921.148	15488
921.258	15226
921.368	15252
921.477	15146
921.587	15077
921.697	14914
921.806	15051
921.916	14891
922.025	14727
922.134	14754
922.244	14667
922.353	14632
922.462	14644
922.571	14533
922.68	14343
922.789	14358
922.898	14442
923.007	14282
923.116	14389
923.224	14301
923.333	14317
923.442	14278
923.55	14149
923.659	14172
923.767	14229
923.876	14119
923.984	14138
924.092	14001
924.201	14077
924.309	14065
924.417	14062
924.525	13868
924.633	13997
924.741	14899
924.849	13811
924.956	13970
925.064	13731
925.172	13613
925.279	13696
925.387	13734
925.494	13715
925.602	13746
925.709	13753
925.816	13533
925.924	13582
926.031	13685
926.138	13639
926.245	13727
926.352	13480
926.459	13616
926.566	13685
926.673	13559
926.779	13449
926.886	13388
926.993	13217
927.099	13251
927.206	13114
927.312	13209
927.419	13304
927.525	13301
927.631	13225
927.737	13171
927.843	12996
927.95	12932
928.056	13110
928.162	13076
928.267	13050
928.373	13677
928.479	13149
928.585	12825
928.69	12962
928.796	12966
928.901	12897
929.007	12783
929.112	12837
929.218	12848
929.323	12753
929.428	12825
929.533	12913
929.638	12764
929.743	12646
929.848	12779
929.953	12719
930.058	12589
930.163	12357
930.267	12376
930.372	12563
930.477	12429
930.581	12669
930.685	12483
930.79	12353
930.894	12224
930.998	12247
931.103	12395
931.207	12053
931.311	12064
931.415	11855
931.519	11623
931.623	11642
