Data from test_V78500241_241.txt Node
Date: Fri Mar 25 15:43:28 CST 2022
User: usil
Spectrometer: V785-0024
Trigger mode: 0
Integration Time (sec): 4.000000E-1
Scans to average: 1
Nonlinearity correction enabled: false
Boxcar width: 0
Storing dark spectrum: false
XAxis mode: Wavelengths
Number of Pixels in Spectrum: 1024
>>>>>Begin Spectral Data<<<<<
801.071	29509
801.214	29429
801.356	29269
801.499	29296
801.641	29075
801.783	29155
801.926	29239
802.068	28972
802.211	29014
802.353	29010
802.496	28824
802.638	28656
802.78	28847
802.923	28615
803.065	28694
803.208	28706
803.35	28759
803.492	28888
803.635	28953
803.777	28896
803.919	29033
804.061	29132
804.204	28946
804.346	28782
804.488	28694
804.63	28736
804.773	28596
804.915	28896
805.057	28828
805.199	28930
805.341	28858
805.483	29037
805.626	28934
805.768	28877
805.91	28972
806.052	28908
806.194	29041
806.336	29258
806.478	29041
806.62	29056
806.762	29067
806.904	29025
807.046	29398
807.188	29318
807.33	29375
807.472	29414
807.614	29345
807.756	29280
807.898	29296
808.04	29086
808.182	29124
808.324	29143
808.465	29102
808.607	29463
808.749	29467
808.891	29600
809.033	29843
809.174	29570
809.316	29554
809.458	29638
809.6	29455
809.741	29581
809.883	29805
810.025	29855
810.166	29741
810.308	29878
810.45	29779
810.591	29737
810.733	29611
810.875	29615
811.016	29497
811.158	29448
811.299	29737
811.441	29832
811.582	29672
811.724	29398
811.865	29592
812.007	29425
812.148	29501
812.29	29444
812.431	29684
812.573	29764
812.714	29843
812.855	30034
812.997	30239
813.138	30327
813.279	30174
813.421	30129
813.562	30201
813.703	29992
813.845	29775
813.986	29402
814.127	29208
814.268	29242
814.41	29174
814.551	29193
814.692	29379
814.833	29170
814.974	29109
815.115	29151
815.256	28957
815.397	29060
815.539	28911
815.68	29064
815.821	28809
815.962	28942
816.103	28896
816.244	28953
816.385	28645
816.526	28626
816.666	28462
816.807	28348
816.948	28443
817.089	28489
817.23	28310
817.371	28360
817.512	28318
817.653	28394
817.793	28409
817.934	28379
818.075	28375
818.216	28322
818.356	28280
818.497	28105
818.638	28051
818.778	27983
818.919	28124
819.06	28090
819.2	28158
819.341	28284
819.481	28352
819.622	28474
819.762	28508
819.903	28371
820.043	28413
820.184	28409
820.324	28440
820.465	28401
820.605	28417
820.746	28470
820.886	28223
821.026	28474
821.167	28219
821.307	28451
821.447	28226
821.588	28158
821.728	28147
821.868	27888
822.008	27633
822.149	27724
822.289	27819
822.429	27458
822.569	27633
822.709	27405
822.849	27233
822.99	27214
823.13	27085
823.27	27329
823.41	27062
823.55	26868
823.69	26975
823.83	27070
823.97	27093
824.11	26701
824.25	26811
824.389	26754
824.529	26952
824.669	26895
824.809	26899
824.949	27001
825.089	26853
825.228	26765
825.368	26583
825.508	26609
825.648	26609
825.787	26606
825.927	26716
826.067	26640
826.206	26629
826.346	26629
826.485	26606
826.625	26648
826.765	26872
826.904	26769
827.044	26377
827.183	26351
827.323	26358
827.462	26446
827.601	26461
827.741	26278
827.88	26294
828.02	26206
828.159	26389
828.298	26408
828.437	26263
828.577	26244
828.716	26453
828.855	26271
828.994	25982
829.134	25982
829.273	26084
829.412	26027
829.551	26039
829.69	25978
829.829	25883
829.968	26035
830.107	26100
830.246	26119
830.385	25959
830.524	25921
830.663	25715
830.802	25693
830.941	25635
831.08	25563
831.219	25632
831.357	25586
831.496	25738
831.635	25479
831.774	25506
831.913	25400
832.051	25301
832.19	25320
832.329	25114
832.467	25225
832.606	25095
832.744	25148
832.883	25156
833.022	25175
833.16	25240
833.299	25263
833.437	25198
833.576	25240
833.714	25171
833.852	25053
833.991	25225
834.129	25308
834.267	25213
834.406	25198
834.544	25160
834.682	25259
834.821	25206
834.959	25282
835.097	25171
835.235	25331
835.373	25190
835.511	25148
835.65	25038
835.788	25103
835.926	24825
836.064	24783
836.202	24897
836.34	25019
836.478	25129
836.615	25057
836.753	25015
836.891	25019
837.029	24992
837.167	24916
837.305	24973
837.443	24939
837.58	24848
837.718	24916
837.856	24886
837.993	24913
838.131	24966
838.269	24642
838.406	24703
838.544	24658
838.681	24532
838.819	24498
838.956	24300
839.094	24323
839.231	24281
839.369	24483
839.506	24517
839.643	24399
839.781	24376
839.918	24125
840.055	24171
840.193	24167
840.33	24163
840.467	24239
840.604	24079
840.742	24483
840.879	24057
841.016	24049
841.153	24125
841.29	24129
841.427	24121
841.564	24171
841.701	24038
841.838	24129
841.975	23999
842.112	24041
842.249	23961
842.385	23794
842.522	24064
842.659	23878
842.796	23779
842.933	23855
843.069	23745
843.206	23756
843.343	23885
843.479	23817
843.616	23961
843.752	23547
843.889	23608
844.025	23600
844.162	23554
844.298	23684
844.435	23741
844.571	23539
844.708	23558
844.844	23722
844.98	23798
845.117	23672
845.253	23558
845.389	23368
845.525	23463
845.661	23528
845.798	23398
845.934	23303
846.07	23330
846.206	23353
846.342	23326
846.478	23322
846.614	23083
846.75	22900
846.886	22957
847.022	23197
847.158	23041
847.294	23003
847.429	23094
847.565	23029
847.701	23318
847.837	22702
847.972	22653
848.108	22717
848.244	22831
848.379	22740
848.515	22569
848.65	22603
848.786	22531
848.921	22554
849.057	22615
849.192	22626
849.328	22702
849.463	22531
849.598	22478
849.734	22390
849.869	22417
850.004	22375
850.14	22470
850.275	22341
850.41	22268
850.545	22291
850.68	22265
850.815	22325
850.95	22276
851.085	22493
851.22	22459
851.355	22249
851.49	22196
851.625	22188
851.76	22166
851.895	22211
852.03	22192
852.165	22280
852.299	22341
852.434	22371
852.569	22200
852.703	22276
852.838	22405
852.973	22493
853.107	22348
853.242	22303
853.376	22162
853.511	22059
853.645	22082
853.78	22230
853.914	22154
854.048	22063
854.183	22109
854.317	22284
854.451	22318
854.585	21956
854.72	22166
854.854	22162
854.988	21994
855.122	22032
855.256	21926
855.39	22006
855.524	22116
855.658	22226
855.792	22059
855.926	22139
856.06	22082
856.194	22112
856.327	21987
856.461	22086
856.595	22070
856.729	22158
856.862	22128
856.996	22059
857.13	22021
857.263	22246
857.397	22166
857.53	22067
857.664	22086
857.797	22158
857.931	22158
858.064	22013
858.197	22048
858.331	21983
858.464	22006
858.597	21895
858.731	21991
858.864	21934
858.997	22006
859.13	21953
859.263	22074
859.396	22101
859.529	21930
859.662	21873
859.795	22013
859.928	22131
860.061	22249
860.194	22173
860.327	22063
860.46	22093
860.592	21987
860.725	22188
860.858	22143
860.99	21953
861.123	21918
861.256	21907
861.388	21975
861.521	22759
861.653	21892
861.786	21739
861.918	21926
862.05	21979
862.183	22025
862.315	21998
862.447	22086
862.58	21975
862.712	21930
862.844	21743
862.976	21816
863.108	21781
863.24	22185
863.372	21648
863.504	21720
863.636	21625
863.768	21781
863.9	21728
864.032	21580
864.164	21534
864.296	21728
864.428	21812
864.559	21789
864.691	21793
864.823	21652
864.954	21679
865.086	21717
865.217	21583
865.349	21416
865.48	21557
865.612	21587
865.743	21682
865.875	21481
866.006	21561
866.137	21553
866.269	21530
866.4	21561
866.531	21454
866.662	21545
866.793	21469
866.924	21572
867.055	21587
867.186	21519
867.317	21473
867.448	21370
867.579	21507
867.71	21504
867.841	21348
867.972	21557
868.103	21492
868.233	21507
868.364	21595
868.495	21675
868.625	21675
868.756	21842
868.886	21663
869.017	21720
869.147	21797
869.278	21888
869.408	21789
869.539	21789
869.669	21846
869.799	21816
869.929	21892
870.06	21907
870.19	22010
870.32	22074
870.45	22124
870.58	22143
870.71	22188
870.84	22428
870.97	22181
871.1	22116
871.23	22265
871.36	22360
871.489	22207
871.619	22261
871.749	22379
871.879	22379
872.008	22455
872.138	22299
872.267	22382
872.397	22242
872.526	22120
872.656	22067
872.785	22173
872.915	22386
873.044	22481
873.173	22367
873.303	22379
873.432	22470
873.561	22447
873.69	22436
873.819	22375
873.948	22443
874.077	22466
874.206	22291
874.335	22325
874.464	22318
874.593	22653
874.722	22436
874.851	22580
874.979	22592
875.108	22660
875.237	22592
875.365	22554
875.494	22542
875.623	22691
875.751	22588
875.88	22546
876.008	22687
876.136	22904
876.265	22957
876.393	23105
876.521	22900
876.65	22995
876.778	22961
876.906	22957
877.034	22942
877.162	23006
877.29	22889
877.418	22892
877.546	23022
877.674	22854
877.802	22957
877.93	22942
878.058	22953
878.185	22771
878.313	22835
878.441	22869
878.568	22683
878.696	22881
878.824	22949
878.951	23010
879.079	23136
879.206	23231
879.333	23307
879.461	22873
879.588	22942
879.715	23109
879.842	23269
879.97	22968
880.097	22786
880.224	22771
880.351	22793
880.478	22664
880.605	22755
880.732	22717
880.859	22957
880.986	22691
881.112	22824
881.239	22527
881.366	22394
881.493	22440
881.619	22344
881.746	22238
881.872	22428
881.999	22295
882.125	22246
882.252	22371
882.378	22284
882.505	22512
882.631	22276
882.757	22036
882.883	22097
883.01	22070
883.136	22010
883.262	21960
883.388	21865
883.514	22036
883.64	22059
883.766	21880
883.892	21751
884.018	21873
884.143	21991
884.269	22002
884.395	21766
884.52	21667
884.646	21644
884.772	21648
884.897	21454
885.023	21557
885.148	21774
885.274	21838
885.399	21671
885.524	21717
885.65	21622
885.775	21641
885.9	21614
886.025	21800
886.15	21705
886.275	21583
886.4	21580
886.525	21526
886.65	21629
886.775	21641
886.9	21724
887.025	21835
887.149	21633
887.274	21504
887.399	21431
887.523	21443
887.648	21443
887.773	21332
887.897	21416
888.021	21458
888.146	21321
888.27	21428
888.395	21454
888.519	21477
888.643	21481
888.767	21431
888.891	21355
889.015	21176
889.139	21135
889.263	21119
889.387	21195
889.511	21321
889.635	21313
889.759	21161
889.883	21127
890.006	21199
890.13	21325
890.254	21047
890.377	20986
890.501	20891
890.624	20845
890.748	20948
890.871	20838
890.995	20800
891.118	20773
891.241	20804
891.364	20785
891.488	20918
891.611	20796
891.734	20708
891.857	20849
891.98	20758
892.103	20746
892.226	20651
892.349	20674
892.471	20549
892.594	20625
892.717	20659
892.839	20556
892.962	20693
893.085	20613
893.207	20575
893.33	20560
893.452	20499
893.575	20663
893.697	20609
893.819	20876
893.941	20724
894.064	20659
894.186	20526
894.308	20503
894.43	20781
894.552	20724
894.674	20834
894.796	20533
894.918	20644
895.04	20560
895.161	20746
895.283	20739
895.405	20541
895.526	20640
895.648	20648
895.769	20686
895.891	20602
896.012	20743
896.134	20598
896.255	20590
896.376	20545
896.498	20583
896.619	20682
896.74	20609
896.861	20765
896.982	20952
897.103	21184
897.224	20944
897.345	20872
897.466	20754
897.587	20944
897.708	20956
897.828	20876
897.949	20648
898.07	20758
898.19	20887
898.311	20887
898.431	20800
898.552	20777
898.672	20895
898.792	21020
898.913	20880
899.033	20815
899.153	20587
899.273	20507
899.393	20533
899.513	20621
899.633	20617
899.753	20556
899.873	20488
899.993	20602
900.113	20495
900.232	20526
900.352	20317
900.472	20305
900.591	20298
900.711	20267
900.83	20202
900.95	20396
901.069	20404
901.189	20278
901.308	20149
901.427	19887
901.546	20020
901.665	19925
901.784	19947
901.904	19868
902.023	19605
902.141	19525
902.26	19460
902.379	19400
902.498	19403
902.617	19240
902.735	19358
902.854	19209
902.973	19304
903.091	19171
903.21	18951
903.328	18954
903.446	18909
903.565	18848
903.683	18837
903.801	18623
903.919	18711
904.038	18757
904.156	18620
904.274	18715
904.392	18585
904.51	18597
904.627	18650
904.745	18700
904.863	18570
904.981	18372
905.098	18235
905.216	18334
905.334	18285
905.451	18346
905.569	18182
905.686	18270
905.803	18159
905.921	18076
906.038	18083
906.155	18140
906.272	18045
906.389	17923
906.506	17840
906.623	17745
906.74	17786
906.857	17729
906.974	17668
907.091	17893
907.208	17847
907.324	17691
907.441	17570
907.557	17482
907.674	17463
907.79	17383
907.907	17349
908.023	17516
908.139	17421
908.256	17250
908.372	17311
908.488	17208
908.604	17185
908.72	17166
908.836	17147
908.952	17140
909.068	17174
909.184	17296
909.3	17143
909.415	17280
909.531	17071
909.647	16904
909.762	16896
909.878	16816
909.993	16881
910.108	16755
910.224	16805
910.339	16843
910.454	16710
910.57	16535
910.685	16554
910.8	16858
910.915	16820
911.03	16577
911.145	16443
911.259	16440
911.374	16375
911.489	16375
911.604	16314
911.718	16211
911.833	16257
911.947	16135
912.062	16071
912.176	16181
912.291	16185
912.405	16169
912.519	16303
912.633	16333
912.748	16204
912.862	16124
912.976	15968
913.09	15793
913.204	15865
913.318	16017
913.431	16071
913.545	16071
913.659	16097
913.772	15926
913.886	15835
914	15762
914.113	15789
914.226	15937
914.34	15823
914.453	15717
914.566	15854
914.68	15671
914.793	15557
914.906	15488
915.019	15298
915.132	15287
915.245	15321
915.358	15412
915.47	15351
915.583	15431
915.696	15382
915.809	15500
915.921	15523
916.034	15272
916.146	15256
916.259	15199
916.371	15275
916.483	15367
916.595	15195
916.708	15176
916.82	15176
916.932	15184
917.044	15192
917.156	15112
917.268	15024
917.38	15043
917.491	15005
917.603	14982
917.715	15077
917.826	15070
917.938	14944
918.049	14830
918.161	15047
918.272	15081
918.384	14963
918.495	14960
918.606	14811
918.717	14724
918.828	14720
918.939	14754
919.05	14705
919.161	14724
919.272	14545
919.383	14689
919.494	14811
919.604	14823
919.715	14720
919.826	14644
919.936	14727
920.047	14739
920.157	14712
920.267	14849
920.378	14834
920.488	14667
920.598	14792
920.708	15066
920.818	14819
920.928	14864
921.038	14971
921.148	14765
921.258	14602
921.368	14571
921.477	14454
921.587	14381
921.697	14317
921.806	14408
921.916	14275
922.025	14126
922.134	14016
922.244	14020
922.353	14119
922.462	13917
922.571	14001
922.68	13655
922.789	13590
922.898	13689
923.007	13613
923.116	13666
923.224	13586
923.333	13639
923.442	13468
923.55	13491
923.659	13616
923.767	13540
923.876	13396
923.984	13510
924.092	13422
924.201	13453
924.309	13396
924.417	13362
924.525	13331
924.633	13270
924.741	14027
924.849	13156
924.956	13350
925.064	13240
925.172	13038
925.279	12939
925.387	13114
925.494	13095
925.602	13160
925.709	13194
925.816	12894
925.924	13031
926.031	13088
926.138	12989
926.245	13046
926.352	12920
926.459	13019
926.566	13099
926.673	12901
926.779	12833
926.886	12844
926.993	12745
927.099	12715
927.206	12604
927.312	12585
927.419	12639
927.525	12684
927.631	12696
927.737	12616
927.843	12566
927.95	12460
928.056	12429
928.162	12460
928.267	12566
928.373	13145
928.479	12483
928.585	12270
928.69	12357
928.796	12407
928.901	12353
929.007	12114
929.112	12361
929.218	12243
929.323	12254
929.428	12186
929.533	12289
929.638	12053
929.743	12091
929.848	12144
929.953	12110
930.058	12076
930.163	11832
930.267	11828
930.372	11984
930.477	11836
930.581	12007
930.685	11805
930.79	11737
930.894	11805
930.998	11722
931.103	11809
931.207	11452
931.311	11356
931.415	11288
931.519	11075
931.623	11060
