Data from test_V78500241_244.txt Node
Date: Fri Mar 25 15:43:29 CST 2022
User: usil
Spectrometer: V785-0024
Trigger mode: 0
Integration Time (sec): 4.000000E-1
Scans to average: 1
Nonlinearity correction enabled: false
Boxcar width: 0
Storing dark spectrum: false
XAxis mode: Wavelengths
Number of Pixels in Spectrum: 1024
>>>>>Begin Spectral Data<<<<<
801.071	29878
801.214	29821
801.356	29562
801.499	29429
801.641	29505
801.783	29356
801.926	29512
802.068	29421
802.211	29143
802.353	29299
802.496	29105
802.638	29178
802.78	29037
802.923	28995
803.065	28835
803.208	29121
803.35	28991
803.492	29041
803.635	29124
803.777	29075
803.919	29151
804.061	29501
804.204	29284
804.346	29113
804.488	29121
804.63	29090
804.773	29006
804.915	29216
805.057	29258
805.199	29147
805.341	29311
805.483	29292
805.626	29170
805.768	29220
805.91	29356
806.052	29307
806.194	29246
806.336	29467
806.478	29311
806.62	29387
806.762	29505
806.904	29710
807.046	29710
807.188	29649
807.33	29672
807.472	29802
807.614	29714
807.756	29627
807.898	29566
808.04	29528
808.182	29551
808.324	29577
808.465	29551
808.607	29558
808.749	29805
808.891	29969
809.033	30110
809.174	29935
809.316	29756
809.458	29923
809.6	29752
809.741	30030
809.883	30079
810.025	30197
810.166	30106
810.308	30049
810.45	30087
810.591	30095
810.733	29851
810.875	29828
811.016	29752
811.158	29783
811.299	30015
811.441	30148
811.582	30045
811.724	29824
811.865	29847
812.007	29870
812.148	29802
812.29	29824
812.431	29961
812.573	30254
812.714	30357
812.855	30445
812.997	30559
813.138	30631
813.279	30505
813.421	30258
813.562	30296
813.703	30270
813.845	30121
813.986	29832
814.127	29627
814.268	29589
814.41	29558
814.551	29512
814.692	29589
814.833	29509
814.974	29478
815.115	29539
815.256	29410
815.397	29387
815.539	29429
815.68	29292
815.821	29254
815.962	29223
816.103	29280
816.244	29269
816.385	29052
816.526	29064
816.666	28843
816.807	28725
816.948	28710
817.089	28816
817.23	28740
817.371	28835
817.512	28618
817.653	28721
817.793	28672
817.934	28752
818.075	28763
818.216	28634
818.356	28615
818.497	28702
818.638	28367
818.778	28390
818.919	28386
819.06	28390
819.2	28497
819.341	28634
819.481	28759
819.622	28778
819.762	29003
819.903	28927
820.043	28774
820.184	28729
820.324	28809
820.465	28881
820.605	28839
820.746	28736
820.886	28546
821.026	28729
821.167	28710
821.307	28892
821.447	28793
821.588	28554
821.728	28306
821.868	28181
822.008	28131
822.149	28162
822.289	28044
822.429	27964
822.569	27819
822.709	27812
822.849	27637
822.99	27675
823.13	27538
823.27	27427
823.41	27321
823.55	27123
823.69	27397
823.83	27424
823.97	27367
824.11	27237
824.25	27165
824.389	27161
824.529	27332
824.669	27184
824.809	27294
824.949	27363
825.089	27336
825.228	27233
825.368	27138
825.508	27001
825.648	27001
825.787	26967
825.927	27093
826.067	26990
826.206	27051
826.346	27039
826.485	26864
826.625	27005
826.765	26998
826.904	27043
827.044	26842
827.183	26739
827.323	26655
827.462	26845
827.601	26636
827.741	26697
827.88	26674
828.02	26575
828.159	26727
828.298	26724
828.437	26785
828.577	26697
828.716	26861
828.855	26606
828.994	26374
829.134	26377
829.273	26431
829.412	26362
829.551	26339
829.69	26320
829.829	26488
829.968	26385
830.107	26385
830.246	26419
830.385	26191
830.524	26294
830.663	26024
830.802	26065
830.941	25978
831.08	25921
831.219	26031
831.357	26005
831.496	26122
831.635	25974
831.774	25864
831.913	25860
832.051	25635
832.19	25601
832.329	25693
832.467	25502
832.606	25449
832.744	25502
832.883	25632
833.022	25540
833.16	25578
833.299	25578
833.437	25628
833.576	25624
833.714	25727
833.852	25689
833.991	25700
834.129	25616
834.267	25571
834.406	25502
834.544	25590
834.682	25529
834.821	25544
834.959	25696
835.097	25510
835.235	25670
835.373	25537
835.511	25590
835.65	25293
835.788	25259
835.926	25331
836.064	25126
836.202	25308
836.34	25324
836.478	25396
836.615	25384
836.753	25327
836.891	25457
837.029	25487
837.167	25324
837.305	25168
837.443	25430
837.58	25168
837.718	25171
837.856	25247
837.993	25076
838.131	25103
838.269	25080
838.406	25110
838.544	25038
838.681	24916
838.819	24738
838.956	24802
839.094	24734
839.231	24719
839.369	24772
839.506	24981
839.643	24932
839.781	24589
839.918	24658
840.055	24635
840.193	24525
840.33	24490
840.467	24513
840.604	24563
840.742	24749
840.879	24509
841.016	24483
841.153	24357
841.29	24623
841.427	24433
841.564	24445
841.701	24403
841.838	24528
841.975	24429
842.112	24410
842.249	24292
842.385	24209
842.522	24528
842.659	24300
842.796	24205
842.933	24235
843.069	24121
843.206	24102
843.343	24174
843.479	24235
843.616	24239
843.752	23973
843.889	23980
844.025	24106
844.162	23847
844.298	24022
844.435	23904
844.571	23863
844.708	23973
844.844	24098
844.98	24171
845.117	24026
845.253	23885
845.389	23783
845.525	23821
845.661	23847
845.798	23592
845.934	23703
846.07	23649
846.206	23767
846.342	23577
846.478	23676
846.614	23551
846.75	23417
846.886	23398
847.022	23467
847.158	23471
847.294	23463
847.429	23398
847.565	23204
847.701	23585
847.837	23025
847.972	23117
848.108	23147
848.244	23033
848.379	23041
848.515	22942
848.65	22908
848.786	22961
848.921	22896
849.057	23136
849.192	23044
849.328	23132
849.463	23075
849.598	22927
849.734	22679
849.869	22828
850.004	22717
850.14	22603
850.275	22691
850.41	22668
850.545	22641
850.68	22641
850.815	22656
850.95	22675
851.085	22755
851.22	22645
851.355	22656
851.49	22607
851.625	22588
851.76	22569
851.895	22584
852.03	22596
852.165	22599
852.299	22816
852.434	22687
852.569	22630
852.703	22679
852.838	22637
852.973	22687
853.107	22771
853.242	22489
853.376	22504
853.511	22166
853.645	22352
853.78	22599
853.914	22527
854.048	22466
854.183	22329
854.317	22356
854.451	22577
854.585	22459
854.72	22436
854.854	22447
854.988	22451
855.122	22390
855.256	22314
855.39	22337
855.524	22599
855.658	22481
855.792	22413
855.926	22478
856.06	22443
856.194	22557
856.327	22398
856.461	22344
856.595	22344
856.729	22443
856.862	22485
856.996	22481
857.13	22470
857.263	22493
857.397	22455
857.53	22280
857.664	22405
857.797	22470
857.931	22596
858.064	22489
858.197	22398
858.331	22440
858.464	22379
858.597	22181
858.731	22329
858.864	22325
858.997	22371
859.13	22459
859.263	22371
859.396	22310
859.529	22382
859.662	22329
859.795	22428
859.928	22417
860.061	22561
860.194	22500
860.327	22440
860.46	22402
860.592	22535
860.725	22489
860.858	22375
860.99	22371
861.123	22219
861.256	22272
861.388	22234
861.521	23006
861.653	22287
861.786	22200
861.918	22200
862.05	22394
862.183	22303
862.315	22409
862.447	22481
862.58	22352
862.712	22128
862.844	22147
862.976	22162
863.108	22124
863.24	22557
863.372	21934
863.504	21987
863.636	22093
863.768	22128
863.9	21968
864.032	21964
864.164	22086
864.296	22181
864.428	22158
864.559	22128
864.691	22150
864.823	22120
864.954	22059
865.086	22006
865.217	22002
865.349	21884
865.48	21960
865.612	21918
865.743	22044
865.875	22090
866.006	21907
866.137	22044
866.269	21907
866.4	21953
866.531	21842
866.662	21899
866.793	21945
866.924	21930
867.055	21907
867.186	21911
867.317	21759
867.448	21717
867.579	21903
867.71	21823
867.841	21736
867.972	21831
868.103	22006
868.233	21972
868.364	21899
868.495	21987
868.625	22044
868.756	22223
868.886	22131
869.017	22090
869.147	22200
869.278	22291
869.408	22093
869.539	22207
869.669	22154
869.799	22048
869.929	22230
870.06	22215
870.19	22402
870.32	22295
870.45	22413
870.58	22424
870.71	22516
870.84	22580
870.97	22546
871.1	22554
871.23	22679
871.36	22656
871.489	22531
871.619	22691
871.749	22698
871.879	22710
872.008	22957
872.138	22740
872.267	22729
872.397	22634
872.526	22500
872.656	22637
872.785	22535
872.915	22771
873.044	22885
873.173	22660
873.303	22698
873.432	22759
873.561	22873
873.69	22793
873.819	22744
873.948	22736
874.077	22831
874.206	22774
874.335	22721
874.464	22869
874.593	22923
874.722	22892
874.851	23022
874.979	22965
875.108	23060
875.237	22744
875.365	22771
875.494	22919
875.623	23044
875.751	22953
875.88	22968
876.008	23102
876.136	23178
876.265	23398
876.393	23433
876.521	23398
876.65	23471
876.778	23482
876.906	23326
877.034	23269
877.162	23322
877.29	23303
877.418	23299
877.546	23296
877.674	23372
877.802	23296
877.93	23159
878.058	23277
878.185	23265
878.313	23242
878.441	23391
878.568	23121
878.696	23235
878.824	23311
878.951	23364
879.079	23535
879.206	23486
879.333	23482
879.461	23307
879.588	23345
879.715	23463
879.842	23547
879.97	23299
880.097	23075
880.224	22999
880.351	23132
880.478	23136
880.605	23022
880.732	23018
880.859	23353
880.986	22934
881.112	23136
881.239	22900
881.366	22843
881.493	22752
881.619	22717
881.746	22740
881.872	22702
881.999	22527
882.125	22535
882.252	22763
882.378	22630
882.505	22740
882.631	22478
882.757	22379
882.883	22390
883.01	22413
883.136	22303
883.262	22280
883.388	22276
883.514	22398
883.64	22379
883.766	22306
883.892	22097
884.018	22143
884.143	22143
884.269	22333
884.395	22120
884.52	22112
884.646	22063
884.772	21975
884.897	21861
885.023	22135
885.148	22097
885.274	22135
885.399	22040
885.524	21979
885.65	21975
885.775	22150
885.9	21975
886.025	22173
886.15	22032
886.275	21930
886.4	21911
886.525	21907
886.65	21968
886.775	21903
886.9	22051
887.025	22185
887.149	21926
887.274	21854
887.399	21831
887.523	21671
887.648	21629
887.773	21682
887.897	21873
888.021	21732
888.146	21759
888.27	21797
888.395	21701
888.519	21857
888.643	21751
888.767	21694
888.891	21781
889.015	21545
889.139	21580
889.263	21557
889.387	21610
889.511	21732
889.635	21610
889.759	21572
889.883	21530
890.006	21458
890.13	21572
890.254	21492
890.377	21412
890.501	21233
890.624	21195
890.748	21272
890.871	21032
890.995	21142
891.118	20994
891.241	21032
891.364	20971
891.488	21138
891.611	21043
891.734	21146
891.857	21104
891.98	21058
892.103	21192
892.226	21116
892.349	20937
892.471	20804
892.594	21020
892.717	21001
892.839	21005
892.962	20990
893.085	21001
893.207	21062
893.33	20788
893.452	20792
893.575	20971
893.697	20838
893.819	21047
893.941	21207
894.064	21112
894.186	20971
894.308	20853
894.43	21192
894.552	21032
894.674	21009
894.796	20811
894.918	20777
895.04	20914
895.161	20990
895.283	21070
895.405	20876
895.526	20906
895.648	20891
895.769	21089
895.891	21051
896.012	21142
896.134	20990
896.255	21066
896.376	21051
896.498	21009
896.619	21146
896.74	21055
896.861	20990
896.982	21245
897.103	21386
897.224	21275
897.345	21180
897.466	21047
897.587	21154
897.708	21363
897.828	21169
897.949	21005
898.07	21020
898.19	21032
898.311	21233
898.431	21100
898.552	21070
898.672	21173
898.792	21119
898.913	21036
899.033	20994
899.153	20842
899.273	20777
899.393	21036
899.513	20830
899.633	20849
899.753	20838
899.873	20735
899.993	20868
900.113	20750
900.232	20830
900.352	20720
900.472	20682
900.591	20537
900.711	20682
900.83	20499
900.95	20655
901.069	20788
901.189	20469
901.308	20427
901.427	20164
901.546	20263
901.665	20126
901.784	20301
901.904	20111
902.023	19940
902.141	19734
902.26	19727
902.379	19738
902.498	19708
902.617	19620
902.735	19681
902.854	19578
902.973	19529
903.091	19449
903.21	19392
903.328	19285
903.446	19160
903.565	19118
903.683	19152
903.801	18996
903.919	19091
904.038	18951
904.156	18913
904.274	19038
904.392	18886
904.51	18821
904.627	18909
904.745	18886
904.863	18913
904.981	18620
905.098	18521
905.216	18452
905.334	18570
905.451	18498
905.569	18574
905.686	18585
905.803	18479
905.921	18350
906.038	18403
906.155	18376
906.272	18315
906.389	18194
906.506	18129
906.623	18041
906.74	18125
906.857	17950
906.974	17973
907.091	17988
907.208	18079
907.324	18072
907.441	17885
907.557	17786
907.674	17775
907.79	17638
907.907	17653
908.023	17714
908.139	17813
908.256	17722
908.372	17707
908.488	17684
908.604	17474
908.72	17391
908.836	17436
908.952	17334
909.068	17520
909.184	17459
909.3	17493
909.415	17535
909.531	17391
909.647	17235
909.762	17197
909.878	17117
909.993	17086
910.108	17105
910.224	17083
910.339	17079
910.454	17006
910.57	16923
910.685	16778
910.8	17189
910.915	17090
911.03	16976
911.145	16717
911.259	16713
911.374	16717
911.489	16611
911.604	16428
911.718	16409
911.833	16462
911.947	16432
912.062	16348
912.176	16405
912.291	16466
912.405	16402
912.519	16577
912.633	16573
912.748	16466
912.862	16375
912.976	16253
913.09	16101
913.204	16226
913.318	16169
913.431	16344
913.545	16325
913.659	16363
913.772	16185
913.886	16078
914	15960
914.113	16112
914.226	16200
914.34	16017
914.453	15968
914.566	16002
914.68	15941
914.793	15903
914.906	15682
915.019	15538
915.132	15580
915.245	15648
915.358	15663
915.47	15701
915.583	15595
915.696	15637
915.809	15812
915.921	15736
916.034	15511
916.146	15542
916.259	15526
916.371	15656
916.483	15572
916.595	15473
916.708	15386
916.82	15477
916.932	15397
917.044	15313
917.156	15435
917.268	15272
917.38	15302
917.491	15287
917.603	15142
917.715	15340
917.826	15287
917.938	15188
918.049	15070
918.161	15119
918.272	15207
918.384	15325
918.495	15070
918.606	14956
918.717	14918
918.828	15108
918.939	15062
919.05	14868
919.161	14960
919.272	14655
919.383	14838
919.494	14975
919.604	15070
919.715	14838
919.826	14876
919.936	14872
920.047	15047
920.157	14887
920.267	15100
920.378	14891
920.488	14861
920.598	15089
920.708	15241
920.818	15039
920.928	15009
921.038	15188
921.148	15062
921.258	14788
921.368	14735
921.477	14743
921.587	14556
921.697	14412
921.806	14663
921.916	14484
922.025	14339
922.134	14214
922.244	14309
922.353	14446
922.462	14054
922.571	13997
922.68	13917
922.789	13830
922.898	13978
923.007	13830
923.116	13917
923.224	13860
923.333	13887
923.442	13647
923.55	13731
923.659	13696
923.767	13845
923.876	13677
923.984	13807
924.092	13578
924.201	13662
924.309	13605
924.417	13693
924.525	13601
924.633	13575
924.741	14221
924.849	13354
924.956	13567
925.064	13400
925.172	13236
925.279	13274
925.387	13331
925.494	13244
925.602	13460
925.709	13327
925.816	13114
925.924	13289
926.031	13236
926.138	13164
926.245	13377
926.352	13141
926.459	13255
926.566	13335
926.673	13171
926.779	13038
926.886	13114
926.993	12856
927.099	12821
927.206	12852
927.312	12779
927.419	12817
927.525	12795
927.631	12764
927.737	12741
927.843	12673
927.95	12631
928.056	12589
928.162	12665
928.267	12669
928.373	13327
928.479	12719
928.585	12452
928.69	12509
928.796	12673
928.901	12475
929.007	12323
929.112	12502
929.218	12486
929.323	12391
929.428	12247
929.533	12517
929.638	12338
929.743	12300
929.848	12315
929.953	12418
930.058	12194
930.163	12007
930.267	12068
930.372	12167
930.477	11935
930.581	12247
930.685	11984
930.79	11855
930.894	12038
930.998	11874
931.103	12041
931.207	11581
931.311	11581
931.415	11509
931.519	11242
931.623	11265
