Data from test_V78500241_1379.txt Node
Date: Fri Mar 25 15:51:21 CST 2022
User: usil
Spectrometer: V785-0024
Trigger mode: 0
Integration Time (sec): 4.000000E-1
Scans to average: 1
Nonlinearity correction enabled: false
Boxcar width: 0
Storing dark spectrum: false
XAxis mode: Wavelengths
Number of Pixels in Spectrum: 1024
>>>>>Begin Spectral Data<<<<<
801.071	27975
801.214	28029
801.356	27816
801.499	27656
801.641	27583
801.783	27633
801.926	27580
802.068	27553
802.211	27431
802.353	27256
802.496	27214
802.638	27313
802.78	27336
802.923	27184
803.065	27211
803.208	27226
803.35	27264
803.492	27176
803.635	27408
803.777	27313
803.919	27450
804.061	27759
804.204	27583
804.346	27523
804.488	27329
804.63	27401
804.773	27466
804.915	27374
805.057	27603
805.199	27325
805.341	27549
805.483	27580
805.626	27553
805.768	27439
805.91	27549
806.052	27595
806.194	27534
806.336	27686
806.478	27644
806.62	27580
806.762	27698
806.904	27816
807.046	28097
807.188	28082
807.33	28124
807.472	28135
807.614	27888
807.756	28032
807.898	27903
808.04	27998
808.182	27873
808.324	27964
808.465	27816
808.607	28177
808.749	28188
808.891	28257
809.033	28367
809.174	28413
809.316	28166
809.458	28204
809.6	28207
809.741	28204
809.883	28417
810.025	28485
810.166	28554
810.308	28584
810.45	28459
810.591	28493
810.733	28261
810.875	28261
811.016	28025
811.158	28143
811.299	28303
811.441	28478
811.582	28375
811.724	28291
811.865	28181
812.007	28177
812.148	28333
812.29	28177
812.431	28371
812.573	28382
812.714	28710
812.855	28683
812.997	28828
813.138	28984
813.279	28649
813.421	28736
813.562	28641
813.703	28371
813.845	28455
813.986	28204
814.127	28055
814.268	27869
814.41	28025
814.551	27819
814.692	28044
814.833	27850
814.974	27968
815.115	27846
815.256	27686
815.397	27789
815.539	27739
815.68	27705
815.821	27564
815.962	27629
816.103	27709
816.244	27580
816.385	27606
816.526	27443
816.666	27351
816.807	27180
816.948	27332
817.089	27332
817.23	27207
817.371	27146
817.512	27154
817.653	27161
817.793	27070
817.934	27313
818.075	27260
818.216	27351
818.356	27051
818.497	27039
818.638	26895
818.778	26979
818.919	26891
819.06	27085
819.2	27024
819.341	27119
819.481	27218
819.622	27237
819.762	27393
819.903	27511
820.043	27283
820.184	27348
820.324	27150
820.465	27332
820.605	27321
820.746	27233
820.886	27154
821.026	27203
821.167	27310
821.307	27378
821.447	27283
821.588	27207
821.728	27028
821.868	26735
822.008	26876
822.149	26609
822.289	26636
822.429	26305
822.569	26400
822.709	26415
822.849	26233
822.99	26191
823.13	26229
823.27	26237
823.41	26126
823.55	26031
823.69	26084
823.83	26054
823.97	26035
824.11	25818
824.25	25875
824.389	25864
824.529	25925
824.669	25947
824.809	26024
824.949	25879
825.089	25955
825.228	25856
825.368	25700
825.508	25696
825.648	25719
825.787	25616
825.927	25719
826.067	25582
826.206	25556
826.346	25864
826.485	25727
826.625	25727
826.765	25814
826.904	25681
827.044	25392
827.183	25460
827.323	25396
827.462	25403
827.601	25270
827.741	25377
827.88	25369
828.02	25377
828.159	25251
828.298	25365
828.437	25392
828.577	25369
828.716	25449
828.855	25244
828.994	25137
829.134	25008
829.273	25129
829.412	25164
829.551	25160
829.69	25038
829.829	25099
829.968	25217
830.107	25099
830.246	25110
830.385	25053
830.524	24943
830.663	24951
830.802	24909
830.941	24673
831.08	24570
831.219	24749
831.357	24791
831.496	24909
831.635	24551
831.774	24673
831.913	24604
832.051	24471
832.19	24525
832.329	24441
832.467	24372
832.606	24452
832.744	24376
832.883	24311
833.022	24327
833.16	24464
833.299	24517
833.437	24479
833.576	24566
833.714	24311
833.852	24505
833.991	24494
834.129	24486
834.267	24521
834.406	24448
834.544	24467
834.682	24475
834.821	24384
834.959	24612
835.097	24311
835.235	24563
835.373	24528
835.511	24395
835.65	24209
835.788	24315
835.926	24182
836.064	24026
836.202	24114
836.34	24281
836.478	24315
836.615	24216
836.753	24220
836.891	24296
837.029	24330
837.167	24266
837.305	24205
837.443	24129
837.58	24133
837.718	24281
837.856	24129
837.993	24018
838.131	24083
838.269	24030
838.406	24003
838.544	23904
838.681	23805
838.819	23691
838.956	23372
839.094	23699
839.231	23672
839.369	23600
839.506	23923
839.643	23840
839.781	23646
839.918	23585
840.055	23497
840.193	23611
840.33	23387
840.467	23539
840.604	23535
840.742	23764
840.879	23440
841.016	23425
841.153	23269
841.29	23547
841.427	23360
841.564	23497
841.701	23551
841.838	23376
841.975	23490
842.112	23524
842.249	23261
842.385	23162
842.522	23452
842.659	23288
842.796	23315
842.933	23181
843.069	23273
843.206	23208
843.343	23356
843.479	23181
843.616	23246
843.752	23090
843.889	22980
844.025	23121
844.162	22980
844.298	23102
844.435	22961
844.571	23010
844.708	23071
844.844	23197
844.98	23155
845.117	23056
845.253	23041
845.389	22809
845.525	22930
845.661	22843
845.798	22611
845.934	22858
846.07	22721
846.206	22786
846.342	22839
846.478	22740
846.614	22672
846.75	22375
846.886	22447
847.022	22554
847.158	22443
847.294	22481
847.429	22519
847.565	22466
847.701	22664
847.837	22310
847.972	22158
848.108	22375
848.244	22249
848.379	22101
848.515	22177
848.65	22059
848.786	21953
848.921	22059
849.057	22139
849.192	22093
849.328	22116
849.463	22188
849.598	21953
849.734	21876
849.869	21895
850.004	21930
850.14	21953
850.275	21842
850.41	21751
850.545	21770
850.68	21838
850.815	21876
850.95	21766
851.085	22029
851.22	21873
851.355	21804
851.49	21682
851.625	21709
851.76	21671
851.895	21770
852.03	21739
852.165	21751
852.299	21857
852.434	21918
852.569	21797
852.703	21701
852.838	21934
852.973	21880
853.107	21876
853.242	21781
853.376	21739
853.511	21595
853.645	21553
853.78	21675
853.914	21671
854.048	21583
854.183	21549
854.317	21599
854.451	21759
854.585	21583
854.72	21720
854.854	21705
854.988	21599
855.122	21648
855.256	21481
855.39	21614
855.524	21690
855.658	21705
855.792	21770
855.926	21656
856.06	21656
856.194	21717
856.327	21614
856.461	21587
856.595	21694
856.729	21549
856.862	21793
856.996	21564
857.13	21743
857.263	21698
857.397	21827
857.53	21614
857.664	21747
857.797	21751
857.931	21846
858.064	21728
858.197	21739
858.331	21633
858.464	21610
858.597	21603
858.731	21599
858.864	21545
858.997	21614
859.13	21774
859.263	21561
859.396	21663
859.529	21694
859.662	21686
859.795	21743
859.928	21705
860.061	21846
860.194	21766
860.327	21641
860.46	21614
860.592	21762
860.725	21823
860.858	21755
860.99	21641
861.123	21561
861.256	21641
861.388	21663
861.521	22242
861.653	21515
861.786	21447
861.918	21466
862.05	21500
862.183	21538
862.315	21519
862.447	21603
862.58	21561
862.712	21386
862.844	21473
862.976	21393
863.108	21336
863.24	21941
863.372	21233
863.504	21249
863.636	21336
863.768	21507
863.9	21321
864.032	21291
864.164	21378
864.296	21405
864.428	21488
864.559	21454
864.691	21428
864.823	21302
864.954	21374
865.086	21218
865.217	21188
865.349	21165
865.48	21310
865.612	21313
865.743	21389
865.875	21222
866.006	21226
866.137	21211
866.269	21382
866.4	21203
866.531	21249
866.662	21169
866.793	21142
866.924	21195
867.055	21279
867.186	21100
867.317	21119
867.448	21039
867.579	21294
867.71	21100
867.841	21112
867.972	21233
868.103	21116
868.233	21150
868.364	21108
868.495	21245
868.625	21344
868.756	21500
868.886	21454
869.017	21401
869.147	21599
869.278	21603
869.408	21439
869.539	21496
869.669	21549
869.799	21587
869.929	21580
870.06	21557
870.19	21831
870.32	21663
870.45	21812
870.58	21918
870.71	21941
870.84	21937
870.97	21903
871.1	21808
871.23	21994
871.36	22021
871.489	21972
871.619	22010
871.749	21960
871.879	22010
872.008	22207
872.138	22105
872.267	22109
872.397	21816
872.526	21774
872.656	21774
872.785	21854
872.915	22017
873.044	22150
873.173	22040
873.303	22032
873.432	22147
873.561	22090
873.69	22082
873.819	22093
873.948	22082
874.077	22101
874.206	22128
874.335	22192
874.464	22109
874.593	22242
874.722	22093
874.851	22348
874.979	22363
875.108	22261
875.237	22185
875.365	22162
875.494	22238
875.623	22306
875.751	22166
875.88	22280
876.008	22428
876.136	22485
876.265	22790
876.393	22702
876.521	22668
876.65	22744
876.778	22592
876.906	22664
877.034	22691
877.162	22580
877.29	22538
877.418	22767
877.546	22561
877.674	22577
877.802	22710
877.93	22618
878.058	22550
878.185	22523
878.313	22462
878.441	22599
878.568	22493
878.696	22512
878.824	22679
878.951	22622
879.079	22839
879.206	22987
879.333	22866
879.461	22611
879.588	22710
879.715	22835
879.842	22957
879.97	22649
880.097	22500
880.224	22432
880.351	22675
880.478	22447
880.605	22299
880.732	22371
880.859	22618
880.986	22421
881.112	22325
881.239	22253
881.366	22154
881.493	22067
881.619	22067
881.746	22013
881.872	22044
881.999	21991
882.125	22025
882.252	22097
882.378	21972
882.505	22093
882.631	21888
882.757	21671
882.883	21857
883.01	21644
883.136	21652
883.262	21504
883.388	21519
883.514	21717
883.64	21751
883.766	21610
883.892	21511
884.018	21469
884.143	21637
884.269	21690
884.395	21466
884.52	21249
884.646	21386
884.772	21230
884.897	21211
885.023	21283
885.148	21477
885.274	21462
885.399	21450
885.524	21428
885.65	21393
885.775	21420
885.9	21317
886.025	21454
886.15	21477
886.275	21340
886.4	21291
886.525	21272
886.65	21211
886.775	21329
886.9	21416
887.025	21599
887.149	21298
887.274	21138
887.399	21230
887.523	21173
887.648	21058
887.773	21081
887.897	21055
888.021	21135
888.146	21005
888.27	21192
888.395	21127
888.519	21116
888.643	21135
888.767	21211
888.891	20944
889.015	20868
889.139	20998
889.263	20902
889.387	21074
889.511	21066
889.635	20944
889.759	20800
889.883	20876
890.006	20963
890.13	20948
890.254	20819
890.377	20906
890.501	20606
890.624	20613
890.748	20678
890.871	20564
890.995	20408
891.118	20385
891.241	20374
891.364	20442
891.488	20625
891.611	20488
891.734	20385
891.857	20377
891.98	20438
892.103	20473
892.226	20324
892.349	20488
892.471	20259
892.594	20336
892.717	20305
892.839	20374
892.962	20317
893.085	20480
893.207	20313
893.33	20324
893.452	20313
893.575	20415
893.697	20355
893.819	20457
893.941	20602
894.064	20522
894.186	20347
894.308	20252
894.43	20465
894.552	20415
894.674	20568
894.796	20218
894.918	20298
895.04	20294
895.161	20457
895.283	20320
895.405	20248
895.526	20404
895.648	20278
895.769	20298
895.891	20442
896.012	20408
896.134	20423
896.255	20339
896.376	20313
896.498	20298
896.619	20442
896.74	20412
896.861	20408
896.982	20705
897.103	20868
897.224	20640
897.345	20511
897.466	20549
897.587	20663
897.708	20674
897.828	20587
897.949	20549
898.07	20362
898.19	20476
898.311	20682
898.431	20606
898.552	20434
898.672	20632
898.792	20541
898.913	20659
899.033	20549
899.153	20423
899.273	20317
899.393	20294
899.513	20423
899.633	20233
899.753	20419
899.873	20275
899.993	20358
900.113	20256
900.232	20381
900.352	20351
900.472	20180
900.591	20142
900.711	20119
900.83	20027
900.95	20195
901.069	20259
901.189	19913
901.308	19864
901.427	19624
901.546	19655
901.665	19776
901.784	19753
901.904	19426
902.023	19499
902.141	19297
902.26	19274
902.379	19346
902.498	19072
902.617	19122
902.735	19266
902.854	19259
902.973	19122
903.091	18768
903.21	18878
903.328	18863
903.446	18776
903.565	18688
903.683	18646
903.801	18494
903.919	18616
904.038	18506
904.156	18448
904.274	18570
904.392	18369
904.51	18369
904.627	18346
904.745	18464
904.863	18429
904.981	18194
905.098	18098
905.216	18144
905.334	18087
905.451	18133
905.569	18083
905.686	18038
905.803	18038
905.921	17897
906.038	18053
906.155	17866
906.272	17756
906.389	17779
906.506	17729
906.623	17657
906.74	17570
906.857	17490
906.974	17592
907.091	17672
907.208	17726
907.324	17722
907.441	17406
907.557	17372
907.674	17383
907.79	17246
907.907	17311
908.023	17349
908.139	17356
908.256	17307
908.372	17258
908.488	17235
908.604	17018
908.72	16968
908.836	17033
908.952	16904
909.068	17010
909.184	17162
909.3	17045
909.415	17052
909.531	17041
909.647	16786
909.762	16744
909.878	16694
909.993	16637
910.108	16736
910.224	16637
910.339	16797
910.454	16717
910.57	16637
910.685	16390
910.8	16831
910.915	16725
911.03	16478
911.145	16409
911.259	16428
911.374	16272
911.489	16390
911.604	16150
911.718	16116
911.833	16105
911.947	16044
912.062	15983
912.176	16147
912.291	16101
912.405	16013
912.519	16337
912.633	16242
912.748	16093
912.862	16032
912.976	15922
913.09	15842
913.204	15797
913.318	15926
913.431	15960
913.545	15960
913.659	16010
913.772	15857
913.886	15641
914	15618
914.113	15728
914.226	15720
914.34	15720
914.453	15675
914.566	15770
914.68	15671
914.793	15542
914.906	15382
915.019	15245
915.132	15370
915.245	15298
915.358	15283
915.47	15256
915.583	15211
915.696	15302
915.809	15298
915.921	15393
916.034	15104
916.146	15176
916.259	15214
916.371	15264
916.483	15195
916.595	15116
916.708	15188
916.82	15108
916.932	15097
917.044	15154
917.156	14971
917.268	14982
917.38	14944
917.491	15024
917.603	14929
917.715	15085
917.826	15001
917.938	14941
918.049	14811
918.161	14933
918.272	15062
918.384	15032
918.495	14891
918.606	14674
918.717	14697
918.828	14754
918.939	14754
919.05	14613
919.161	14716
919.272	14511
919.383	14511
919.494	14686
919.604	14960
919.715	14663
919.826	14625
919.936	14663
920.047	14788
920.157	14632
920.267	14804
920.378	14663
920.488	14678
920.598	14864
920.708	14960
920.818	14826
920.928	14781
921.038	14910
921.148	14864
921.258	14587
921.368	14530
921.477	14457
921.587	14374
921.697	14301
921.806	14431
921.916	14214
922.025	14134
922.134	14069
922.244	14046
922.353	14115
922.462	13909
922.571	13875
922.68	13674
922.789	13708
922.898	13681
923.007	13636
923.116	13727
923.224	13670
923.333	13655
923.442	13590
923.55	13411
923.659	13510
923.767	13556
923.876	13441
923.984	13548
924.092	13422
924.201	13339
924.309	13529
924.417	13407
924.525	13324
924.633	13274
924.741	14218
924.849	13175
924.956	13202
925.064	13057
925.172	13095
925.279	13107
925.387	13149
925.494	13156
925.602	13183
925.709	13168
925.816	13000
925.924	13008
926.031	13114
926.138	12890
926.245	13110
926.352	12951
926.459	13084
926.566	13053
926.673	12951
926.779	12821
926.886	12798
926.993	12681
927.099	12593
927.206	12559
927.312	12559
927.419	12639
927.525	12623
927.631	12650
927.737	12547
927.843	12483
927.95	12410
928.056	12414
928.162	12445
928.267	12570
928.373	13095
928.479	12547
928.585	12243
928.69	12483
928.796	12506
928.901	12319
929.007	12194
929.112	12289
929.218	12323
929.323	12319
929.428	12209
929.533	12342
929.638	12110
929.743	12197
929.848	12213
929.953	12235
930.058	12030
930.163	11935
930.267	11897
930.372	11920
930.477	11775
930.581	12045
930.685	11927
930.79	11733
930.894	11722
930.998	11828
931.103	11893
931.207	11509
931.311	11429
931.415	11334
931.519	11159
931.623	11071
