Data from test_V78500241_2155.txt Node
Date: Fri Mar 25 15:56:43 CST 2022
User: usil
Spectrometer: V785-0024
Trigger mode: 0
Integration Time (sec): 4.000000E-1
Scans to average: 1
Nonlinearity correction enabled: false
Boxcar width: 0
Storing dark spectrum: false
XAxis mode: Wavelengths
Number of Pixels in Spectrum: 1024
>>>>>Begin Spectral Data<<<<<
801.071	28888
801.214	28938
801.356	28603
801.499	28607
801.641	28451
801.783	28497
801.926	28637
802.068	28401
802.211	28352
802.353	28322
802.496	28188
802.638	28280
802.78	28303
802.923	28192
803.065	28120
803.208	28196
803.35	28310
803.492	28257
803.635	28421
803.777	28242
803.919	28516
804.061	28637
804.204	28459
804.346	28481
804.488	28253
804.63	28440
804.773	28519
804.915	28478
805.057	28527
805.199	28557
805.341	28512
805.483	28607
805.626	28588
805.768	28516
805.91	28679
806.052	28733
806.194	28656
806.336	28774
806.478	28694
806.62	28672
806.762	28752
806.904	28885
807.046	29025
807.188	29029
807.33	29044
807.472	29181
807.614	28888
807.756	29010
807.898	29006
808.04	28828
808.182	28946
808.324	28869
808.465	28908
808.607	29132
808.749	29273
808.891	29402
809.033	29429
809.174	29429
809.316	29258
809.458	29307
809.6	29315
809.741	29463
809.883	29402
810.025	29699
810.166	29509
810.308	29638
810.45	29672
810.591	29531
810.733	29227
810.875	29375
811.016	29261
811.158	29235
811.299	29471
811.441	29448
811.582	29421
811.724	29356
811.865	29395
812.007	29318
812.148	29463
812.29	29417
812.431	29516
812.573	29638
812.714	29699
812.855	29904
812.997	29916
813.138	30018
813.279	29984
813.421	29980
813.562	29653
813.703	29661
813.845	29543
813.986	29239
814.127	29162
814.268	28976
814.41	28984
814.551	28915
814.692	29216
814.833	29003
814.974	29140
815.115	29071
815.256	28911
815.397	28961
815.539	28938
815.68	28869
815.821	28767
815.962	28854
816.103	28831
816.244	28717
816.385	28546
816.526	28626
816.666	28432
816.807	28363
816.948	28538
817.089	28329
817.23	28276
817.371	28451
817.512	28268
817.653	28314
817.793	28306
817.934	28390
818.075	28295
818.216	28325
818.356	28413
818.497	28322
818.638	28215
818.778	28143
818.919	28128
819.06	28272
819.2	28238
819.341	28333
819.481	28318
819.622	28379
819.762	28725
819.903	28630
820.043	28561
820.184	28519
820.324	28363
820.465	28478
820.605	28615
820.746	28481
820.886	28242
821.026	28508
821.167	28462
821.307	28592
821.447	28360
821.588	28124
821.728	28158
821.868	27968
822.008	27854
822.149	27941
822.289	27838
822.429	27587
822.569	27614
822.709	27534
822.849	27389
822.99	27367
823.13	27245
823.27	27329
823.41	27039
823.55	26979
823.69	27256
823.83	27211
823.97	27100
824.11	26914
824.25	26902
824.389	26963
824.529	27135
824.669	26982
824.809	27116
824.949	27188
825.089	27123
825.228	26979
825.368	26819
825.508	26883
825.648	26960
825.787	26937
825.927	26929
826.067	26758
826.206	26868
826.346	26975
826.485	26986
826.625	26929
826.765	26918
826.904	26868
827.044	26590
827.183	26609
827.323	26507
827.462	26670
827.601	26655
827.741	26549
827.88	26693
828.02	26328
828.159	26507
828.298	26594
828.437	26629
828.577	26659
828.716	26689
828.855	26617
828.994	26240
829.134	26172
829.273	26366
829.412	26218
829.551	26191
829.69	26202
829.829	26263
829.968	26214
830.107	26457
830.246	26290
830.385	26088
830.524	26126
830.663	26092
830.802	26069
830.941	26001
831.08	25913
831.219	26035
831.357	25909
831.496	26168
831.635	25902
831.774	25753
831.913	25841
832.051	25632
832.19	25738
832.329	25746
832.467	25639
832.606	25483
832.744	25411
832.883	25571
833.022	25453
833.16	25616
833.299	25559
833.437	25605
833.576	25700
833.714	25639
833.852	25601
833.991	25689
834.129	25635
834.267	25632
834.406	25590
834.544	25578
834.682	25708
834.821	25563
834.959	25708
835.097	25533
835.235	25616
835.373	25643
835.511	25563
835.65	25487
835.788	25441
835.926	25415
836.064	25274
836.202	25255
836.34	25411
836.478	25559
836.615	25365
836.753	25350
836.891	25430
837.029	25483
837.167	25304
837.305	25289
837.443	25419
837.58	25194
837.718	25232
837.856	25228
837.993	25308
838.131	25225
838.269	25076
838.406	25156
838.544	25023
838.681	24760
838.819	24787
838.956	24688
839.094	24783
839.231	24791
839.369	25069
839.506	25031
839.643	24943
839.781	24631
839.918	24616
840.055	24661
840.193	24711
840.33	24593
840.467	24646
840.604	24738
840.742	24901
840.879	24551
841.016	24437
841.153	24464
841.29	24719
841.427	24547
841.564	24681
841.701	24597
841.838	24627
841.975	24532
842.112	24570
842.249	24528
842.385	24399
842.522	24563
842.659	24281
842.796	24361
842.933	24414
843.069	24357
843.206	24327
843.343	24467
843.479	24350
843.616	24281
843.752	24209
843.889	24117
844.025	24289
844.162	24228
844.298	24155
844.435	24102
844.571	24201
844.708	24205
844.844	24330
844.98	24308
845.117	24338
845.253	24068
845.389	24076
845.525	24110
845.661	24053
845.798	23931
845.934	23920
846.07	23897
846.206	23870
846.342	24007
846.478	23832
846.614	23783
846.75	23627
846.886	23611
847.022	23539
847.158	23695
847.294	23638
847.429	23691
847.565	23471
847.701	23931
847.837	23391
847.972	23322
848.108	23341
848.244	23425
848.379	23277
848.515	23128
848.65	23170
848.786	23216
848.921	23303
849.057	23436
849.192	23284
849.328	23170
849.463	23178
849.598	23102
849.734	23128
849.869	23071
850.004	23010
850.14	23037
850.275	23003
850.41	22854
850.545	23025
850.68	22885
850.815	22991
850.95	23102
851.085	23121
851.22	22968
851.355	22923
851.49	22881
851.625	22934
851.76	22854
851.895	22873
852.03	22949
852.165	22923
852.299	22987
852.434	23041
852.569	23022
852.703	23071
852.838	23022
852.973	23086
853.107	23124
853.242	22881
853.376	22790
853.511	22797
853.645	22740
853.78	22961
853.914	22839
854.048	22744
854.183	22736
854.317	22767
854.451	23006
854.585	22809
854.72	22824
854.854	22908
854.988	22752
855.122	22801
855.256	22588
855.39	22702
855.524	22889
855.658	22736
855.792	22889
855.926	22816
856.06	22843
856.194	22881
856.327	22778
856.461	22717
856.595	22729
856.729	22752
856.862	22881
856.996	22824
857.13	22831
857.263	22946
857.397	22839
857.53	22744
857.664	22675
857.797	23052
857.931	22869
858.064	22877
858.197	22999
858.331	22866
858.464	22702
858.597	22740
858.731	22828
858.864	22748
858.997	22839
859.13	22786
859.263	22782
859.396	22908
859.529	22748
859.662	22831
859.795	22793
859.928	22809
860.061	22900
860.194	23056
860.327	22843
860.46	22786
860.592	22858
860.725	22976
860.858	22900
860.99	22877
861.123	22679
861.256	22782
861.388	22790
861.521	23455
861.653	22649
861.786	22519
861.918	22561
862.05	22694
862.183	22691
862.315	22729
862.447	22809
862.58	22717
862.712	22474
862.844	22432
862.976	22432
863.108	22569
863.24	22987
863.372	22344
863.504	22371
863.636	22447
863.768	22527
863.9	22577
864.032	22508
864.164	22329
864.296	22500
864.428	22637
864.559	22622
864.691	22554
864.823	22466
864.954	22500
865.086	22508
865.217	22459
865.349	22310
865.48	22295
865.612	22341
865.743	22493
865.875	22303
866.006	22238
866.137	22417
866.269	22265
866.4	22242
866.531	22226
866.662	22230
866.793	22287
866.924	22348
867.055	22226
867.186	22135
867.317	22257
867.448	22124
867.579	22246
867.71	22105
867.841	22162
867.972	22318
868.103	22341
868.233	22249
868.364	22432
868.495	22246
868.625	22523
868.756	22649
868.886	22512
869.017	22637
869.147	22683
869.278	22653
869.408	22592
869.539	22542
869.669	22653
869.799	22554
869.929	22702
870.06	22664
870.19	22793
870.32	22801
870.45	22816
870.58	22957
870.71	22991
870.84	22991
870.97	22908
871.1	22896
871.23	23083
871.36	23052
871.489	23075
871.619	23048
871.749	23155
871.879	23212
872.008	23322
872.138	23124
872.267	23029
872.397	23003
872.526	22877
872.656	23052
872.785	22934
872.915	23109
873.044	23284
873.173	23212
873.303	23166
873.432	23250
873.561	23311
873.69	23231
873.819	23102
873.948	23204
874.077	23014
874.206	23140
874.335	23079
874.464	23334
874.593	23429
874.722	23303
874.851	23425
874.979	23391
875.108	23337
875.237	23296
875.365	23326
875.494	23258
875.623	23417
875.751	23269
875.88	23360
876.008	23589
876.136	23627
876.265	23783
876.393	23767
876.521	23764
876.65	23805
876.778	23676
876.906	23554
877.034	23543
877.162	23687
877.29	23638
877.418	23630
877.546	23786
877.674	23714
877.802	23642
877.93	23551
878.058	23657
878.185	23516
878.313	23699
878.441	23733
878.568	23516
878.696	23585
878.824	23710
878.951	23748
879.079	23855
879.206	23961
879.333	23824
879.461	23771
879.588	23859
879.715	23779
879.842	23920
879.97	23707
880.097	23455
880.224	23535
880.351	23589
880.478	23535
880.605	23452
880.732	23497
880.859	23676
880.986	23562
881.112	23410
881.239	23421
881.366	23181
881.493	23254
881.619	23018
881.746	23056
881.872	23037
881.999	23060
882.125	23052
882.252	23159
882.378	22987
882.505	23140
882.631	22847
882.757	22767
882.883	22889
883.01	22649
883.136	22812
883.262	22752
883.388	22679
883.514	22694
883.64	22702
883.766	22656
883.892	22550
884.018	22588
884.143	22710
884.269	22725
884.395	22561
884.52	22432
884.646	22447
884.772	22287
884.897	22192
885.023	22390
885.148	22485
885.274	22573
885.399	22314
885.524	22333
885.65	22405
885.775	22428
885.9	22371
886.025	22470
886.15	22348
886.275	22268
886.4	22219
886.525	22337
886.65	22348
886.775	22272
886.9	22409
887.025	22481
887.149	22367
887.274	22177
887.399	22002
887.523	22154
887.648	22006
887.773	21937
887.897	22181
888.021	22166
888.146	22067
888.27	22131
888.395	22188
888.519	22120
888.643	22169
888.767	22150
888.891	22025
889.015	21873
889.139	22017
889.263	21922
889.387	22036
889.511	22147
889.635	22029
889.759	21884
889.883	21819
890.006	21842
890.13	21956
890.254	21747
890.377	21838
890.501	21732
890.624	21675
890.748	21629
890.871	21534
890.995	21462
891.118	21488
891.241	21329
891.364	21557
891.488	21568
891.611	21523
891.734	21485
891.857	21435
891.98	21435
892.103	21412
892.226	21557
892.349	21325
892.471	21245
892.594	21416
892.717	21450
892.839	21317
892.962	21336
893.085	21458
893.207	21283
893.33	21214
893.452	21260
893.575	21283
893.697	21264
893.819	21481
893.941	21412
894.064	21420
894.186	21275
894.308	21291
894.43	21359
894.552	21496
894.674	21416
894.796	21218
894.918	21340
895.04	21279
895.161	21428
895.283	21363
895.405	21317
895.526	21264
895.648	21214
895.769	21279
895.891	21264
896.012	21340
896.134	21336
896.255	21370
896.376	21249
896.498	21389
896.619	21283
896.74	21272
896.861	21496
896.982	21595
897.103	21686
897.224	21542
897.345	21542
897.466	21492
897.587	21538
897.708	21583
897.828	21408
897.949	21443
898.07	21283
898.19	21500
898.311	21652
898.431	21523
898.552	21405
898.672	21530
898.792	21473
898.913	21481
899.033	21469
899.153	21237
899.273	21188
899.393	21245
899.513	21329
899.633	21412
899.753	21157
899.873	21154
899.993	21214
900.113	21218
900.232	21279
900.352	21089
900.472	21070
900.591	20891
900.711	21108
900.83	20990
900.95	21062
901.069	20975
901.189	20910
901.308	20689
901.427	20568
901.546	20625
901.665	20571
901.784	20602
901.904	20465
902.023	20328
902.141	20149
902.26	20016
902.379	20039
902.498	20039
902.617	20062
902.735	20012
902.854	20062
902.973	19909
903.091	19723
903.21	19746
903.328	19753
903.446	19616
903.565	19426
903.683	19533
903.801	19411
903.919	19434
904.038	19525
904.156	19358
904.274	19365
904.392	19274
904.51	19304
904.627	19293
904.745	19350
904.863	19308
904.981	19046
905.098	18962
905.216	18924
905.334	19050
905.451	18935
905.569	18829
905.686	19031
905.803	18852
905.921	18681
906.038	18821
906.155	18817
906.272	18574
906.389	18654
906.506	18513
906.623	18483
906.74	18467
906.857	18395
906.974	18270
907.091	18532
907.208	18627
907.324	18464
907.441	18418
907.557	18152
907.674	18209
907.79	18186
907.907	18205
908.023	18182
908.139	18159
908.256	18129
908.372	17942
908.488	18057
908.604	17980
908.72	17802
908.836	17923
908.952	17775
909.068	17843
909.184	17958
909.3	17859
909.415	17843
909.531	17882
909.647	17661
909.762	17577
909.878	17490
909.993	17642
910.108	17535
910.224	17383
910.339	17516
910.454	17478
910.57	17501
910.685	17280
910.8	17524
910.915	17459
911.03	17318
911.145	17220
911.259	17181
911.374	17067
911.489	17064
911.604	17006
911.718	16919
911.833	17018
911.947	16759
912.062	16683
912.176	16927
912.291	16927
912.405	16873
912.519	17071
912.633	17010
912.748	16869
912.862	16767
912.976	16790
913.09	16523
913.204	16626
913.318	16725
913.431	16687
913.545	16748
913.659	16744
913.772	16660
913.886	16554
914	16462
914.113	16519
914.226	16607
914.34	16546
914.453	16371
914.566	16462
914.68	16291
914.793	16375
914.906	16173
915.019	15979
915.132	15998
915.245	15987
915.358	16013
915.47	16135
915.583	16021
915.696	16059
915.809	16169
915.921	16158
916.034	16017
916.146	16002
916.259	15918
916.371	16021
916.483	15994
916.595	15915
916.708	15694
916.82	15850
916.932	15781
917.044	15774
917.156	15774
917.268	15652
917.38	15717
917.491	15686
917.603	15690
917.715	15705
917.826	15736
917.938	15534
918.049	15435
918.161	15614
918.272	15709
918.384	15709
918.495	15553
918.606	15469
918.717	15359
918.828	15378
918.939	15405
919.05	15275
919.161	15329
919.272	15142
919.383	15218
919.494	15424
919.604	15534
919.715	15370
919.826	15348
919.936	15340
920.047	15428
920.157	15359
920.267	15534
920.378	15336
920.488	15378
920.598	15450
920.708	15732
920.818	15519
920.928	15488
921.038	15690
921.148	15553
921.258	15298
921.368	15176
921.477	15093
921.587	15070
921.697	14883
921.806	15108
921.916	14937
922.025	14693
922.134	14716
922.244	14606
922.353	14762
922.462	14598
922.571	14587
922.68	14408
922.789	14271
922.898	14381
923.007	14336
923.116	14366
923.224	14282
923.333	14267
923.442	14119
923.55	14225
923.659	14237
923.767	14206
923.876	14039
923.984	14119
924.092	14043
924.201	14142
924.309	14069
924.417	13974
924.525	13982
924.633	13986
924.741	14754
924.849	13670
924.956	13917
925.064	13776
925.172	13689
925.279	13643
925.387	13727
925.494	13662
925.602	13811
925.709	13803
925.816	13613
925.924	13628
926.031	13670
926.138	13628
926.245	13655
926.352	13613
926.459	13704
926.566	13715
926.673	13578
926.779	13430
926.886	13411
926.993	13327
927.099	13263
927.206	13149
927.312	13282
927.419	13331
927.525	13244
927.631	13251
927.737	13171
927.843	13095
927.95	12939
928.056	13046
928.162	13133
928.267	13137
928.373	13636
928.479	13183
928.585	12905
928.69	13019
928.796	13061
928.901	12878
929.007	12707
929.112	12886
929.218	12878
929.323	12814
929.428	12764
929.533	12840
929.638	12684
929.743	12658
929.848	12711
929.953	12662
930.058	12601
930.163	12384
930.267	12437
930.372	12559
930.477	12388
930.581	12631
930.685	12517
930.79	12281
930.894	12353
930.998	12262
931.103	12395
931.207	12064
931.311	11999
931.415	11805
931.519	11695
931.623	11596
