Data from test_V78500241_1442.txt Node
Date: Fri Mar 25 15:51:47 CST 2022
User: usil
Spectrometer: V785-0024
Trigger mode: 0
Integration Time (sec): 4.000000E-1
Scans to average: 1
Nonlinearity correction enabled: false
Boxcar width: 0
Storing dark spectrum: false
XAxis mode: Wavelengths
Number of Pixels in Spectrum: 1024
>>>>>Begin Spectral Data<<<<<
801.071	28246
801.214	28139
801.356	28070
801.499	27861
801.641	27743
801.783	27720
801.926	27857
802.068	27747
802.211	27519
802.353	27561
802.496	27420
802.638	27412
802.78	27393
802.923	27401
803.065	27287
803.208	27325
803.35	27469
803.492	27431
803.635	27667
803.777	27675
803.919	27686
804.061	27869
804.204	27713
804.346	27625
804.488	27644
804.63	27587
804.773	27568
804.915	27641
805.057	27682
805.199	27690
805.341	27633
805.483	27778
805.626	27743
805.768	27728
805.91	27789
806.052	27880
806.194	27793
806.336	27854
806.478	27831
806.62	27831
806.762	27968
806.904	28238
807.046	28379
807.188	28196
807.33	28242
807.472	28276
807.614	28169
807.756	28303
807.898	28101
808.04	28204
808.182	28055
808.324	28013
808.465	28272
808.607	28238
808.749	28352
808.891	28428
809.033	28626
809.174	28542
809.316	28379
809.458	28451
809.6	28462
809.741	28736
809.883	28599
810.025	28824
810.166	28645
810.308	28797
810.45	28683
810.591	28828
810.733	28516
810.875	28375
811.016	28379
811.158	28166
811.299	28607
811.441	28599
811.582	28607
811.724	28375
811.865	28489
812.007	28352
812.148	28360
812.29	28580
812.431	28706
812.573	28675
812.714	28850
812.855	28972
812.997	29102
813.138	29056
813.279	29132
813.421	28972
813.562	28847
813.703	28991
813.845	28733
813.986	28500
814.127	28177
814.268	28185
814.41	28379
814.551	28238
814.692	28291
814.833	28040
814.974	28128
815.115	28162
815.256	28158
815.397	28124
815.539	28090
815.68	27873
815.821	27892
815.962	28013
816.103	27975
816.244	27846
816.385	27717
816.526	27671
816.666	27530
816.807	27397
816.948	27401
817.089	27553
817.23	27454
817.371	27519
817.512	27313
817.653	27363
817.793	27492
817.934	27481
818.075	27431
818.216	27412
818.356	27363
818.497	27313
818.638	27074
818.778	27165
818.919	27195
819.06	27245
819.2	27306
819.341	27329
819.481	27481
819.622	27720
819.762	27785
819.903	27682
820.043	27610
820.184	27618
820.324	27564
820.465	27660
820.605	27625
820.746	27526
820.886	27599
821.026	27576
821.167	27496
821.307	27644
821.447	27405
821.588	27450
821.728	27382
821.868	27173
822.008	26921
822.149	26967
822.289	26910
822.429	26606
822.569	26655
822.709	26678
822.849	26438
822.99	26431
823.13	26324
823.27	26252
823.41	26366
823.55	26176
823.69	26172
823.83	26275
823.97	26187
824.11	26069
824.25	26058
824.389	26050
824.529	26039
824.669	25966
824.809	26351
824.949	26050
825.089	26119
825.228	26161
825.368	26016
825.508	25959
825.648	26096
825.787	26005
825.927	25944
826.067	25917
826.206	25947
826.346	26088
826.485	25970
826.625	25978
826.765	26016
826.904	25944
827.044	25818
827.183	25708
827.323	25677
827.462	25788
827.601	25582
827.741	25632
827.88	25689
828.02	25639
828.159	25719
828.298	25738
828.437	25757
828.577	25594
828.716	25833
828.855	25533
828.994	25308
829.134	25346
829.273	25354
829.412	25335
829.551	25217
829.69	25392
829.829	25457
829.968	25430
830.107	25415
830.246	25335
830.385	25240
830.524	25403
830.663	25266
830.802	25095
830.941	24973
831.08	24916
831.219	25114
831.357	25091
831.496	25228
831.635	24954
831.774	24920
831.913	24897
832.051	24833
832.19	24711
832.329	24791
832.467	24582
832.606	24597
832.744	24502
832.883	24566
833.022	24642
833.16	24620
833.299	24677
833.437	24627
833.576	24768
833.714	24722
833.852	24726
833.991	24661
834.129	24745
834.267	24795
834.406	24669
834.544	24749
834.682	24821
834.821	24635
834.959	25019
835.097	24749
835.235	24692
835.373	24726
835.511	24631
835.65	24597
835.788	24582
835.926	24380
836.064	24323
836.202	24407
836.34	24658
836.478	24749
836.615	24464
836.753	24418
836.891	24574
837.029	24578
837.167	24445
837.305	24445
837.443	24437
837.58	24228
837.718	24334
837.856	24422
837.993	24201
838.131	24433
838.269	24178
838.406	24338
838.544	24220
838.681	23984
838.819	24136
838.956	23836
839.094	23897
839.231	23904
839.369	24053
839.506	24205
839.643	24022
839.781	23882
839.918	23619
840.055	23794
840.193	23904
840.33	23859
840.467	23726
840.604	23680
840.742	24098
840.879	23638
841.016	23638
841.153	23619
841.29	23931
841.427	23714
841.564	23760
841.701	23676
841.838	23642
841.975	23733
842.112	23661
842.249	23691
842.385	23539
842.522	23805
842.659	23676
842.796	23414
842.933	23589
843.069	23455
843.206	23364
843.343	23505
843.479	23482
843.616	23535
843.752	23318
843.889	23277
844.025	23417
844.162	23250
844.298	23349
844.435	23322
844.571	23216
844.708	23383
844.844	23433
844.98	23337
845.117	23379
845.253	23162
845.389	23060
845.525	23147
845.661	23033
845.798	23037
845.934	23071
846.07	23117
846.206	23083
846.342	23261
846.478	22782
846.614	22805
846.75	22580
846.886	22763
847.022	22881
847.158	22812
847.294	22752
847.429	22691
847.565	22630
847.701	23029
847.837	22485
847.972	22459
848.108	22516
848.244	22573
848.379	22360
848.515	22253
848.65	22375
848.786	22314
848.921	22375
849.057	22333
849.192	22474
849.328	22398
849.463	22242
849.598	22352
849.734	22318
849.869	22219
850.004	22051
850.14	22086
850.275	22177
850.41	22128
850.545	22006
850.68	22010
850.815	22063
850.95	22017
851.085	22204
851.22	22249
851.355	22101
851.49	22112
851.625	22158
851.76	22025
851.895	21964
852.03	21964
852.165	22025
852.299	22017
852.434	22162
852.569	22082
852.703	21949
852.838	22093
852.973	22215
853.107	22223
853.242	21994
853.376	21968
853.511	21781
853.645	21857
853.78	21998
853.914	21907
854.048	21846
854.183	21827
854.317	21865
854.451	22097
854.585	21945
854.72	21827
854.854	21968
854.988	21869
855.122	22025
855.256	21861
855.39	21857
855.524	22017
855.658	21987
855.792	21968
855.926	21888
856.06	21903
856.194	21983
856.327	21956
856.461	21899
856.595	21899
856.729	21934
856.862	21975
856.996	21838
857.13	21975
857.263	21998
857.397	21998
857.53	21903
857.664	22105
857.797	21956
857.931	22010
858.064	22006
858.197	21945
858.331	21991
858.464	21892
858.597	21937
858.731	21857
858.864	21922
858.997	21827
859.13	21918
859.263	21854
859.396	21895
859.529	21899
859.662	21899
859.795	21797
859.928	21964
860.061	22074
860.194	22109
860.327	21953
860.46	21895
860.592	22097
860.725	22086
860.858	22063
860.99	21865
861.123	21743
861.256	21911
861.388	21888
861.521	22721
861.653	21755
861.786	21656
861.918	21751
862.05	21709
862.183	21903
862.315	21854
862.447	21835
862.58	21770
862.712	21618
862.844	21603
862.976	21717
863.108	21690
863.24	21960
863.372	21504
863.504	21618
863.636	21603
863.768	21557
863.9	21618
864.032	21469
864.164	21587
864.296	21561
864.428	21625
864.559	21622
864.691	21652
864.823	21576
864.954	21622
865.086	21507
865.217	21481
865.349	21454
865.48	21549
865.612	21412
865.743	21641
865.875	21447
866.006	21447
866.137	21580
866.269	21549
866.4	21477
866.531	21370
866.662	21408
866.793	21401
866.924	21507
867.055	21458
867.186	21408
867.317	21416
867.448	21386
867.579	21431
867.71	21374
867.841	21321
867.972	21439
868.103	21420
868.233	21416
868.364	21454
868.495	21500
868.625	21606
868.756	21747
868.886	21515
869.017	21701
869.147	21709
869.278	21800
869.408	21709
869.539	21660
869.669	21808
869.799	21800
869.929	21857
870.06	21686
870.19	21918
870.32	21968
870.45	22017
870.58	22158
870.71	22135
870.84	22230
870.97	22097
871.1	22082
871.23	22322
871.36	22223
871.489	22101
871.619	22253
871.749	22249
871.879	22341
872.008	22284
872.138	22268
872.267	22261
872.397	22223
872.526	22112
872.656	22109
872.785	22093
872.915	22215
873.044	22348
873.173	22371
873.303	22287
873.432	22306
873.561	22413
873.69	22325
873.819	22268
873.948	22299
874.077	22287
874.206	22215
874.335	22371
874.464	22417
874.593	22512
874.722	22443
874.851	22656
874.979	22580
875.108	22519
875.237	22527
875.365	22405
875.494	22500
875.623	22516
875.751	22550
875.88	22394
876.008	22599
876.136	22679
876.265	22858
876.393	23029
876.521	22999
876.65	22885
876.778	22869
876.906	22843
877.034	22873
877.162	22889
877.29	22759
877.418	22877
877.546	22946
877.674	22850
877.802	22801
877.93	22843
878.058	22843
878.185	22778
878.313	22923
878.441	22767
878.568	22702
878.696	22812
878.824	22999
878.951	22976
879.079	23025
879.206	23147
879.333	23140
879.461	22843
879.588	22908
879.715	23071
879.842	23159
879.97	22961
880.097	22797
880.224	22611
880.351	22729
880.478	22850
880.605	22603
880.732	22618
880.859	22980
880.986	22797
881.112	22729
881.239	22637
881.366	22466
881.493	22417
881.619	22287
881.746	22306
881.872	22249
881.999	22234
882.125	22192
882.252	22185
882.378	22230
882.505	22386
882.631	22135
882.757	22013
882.883	21934
883.01	22044
883.136	21953
883.262	21895
883.388	21671
883.514	21930
883.64	21983
883.766	21922
883.892	21694
884.018	21804
884.143	21861
884.269	21861
884.395	21561
884.52	21610
884.646	21561
884.772	21424
884.897	21431
885.023	21485
885.148	21762
885.274	21682
885.399	21652
885.524	21599
885.65	21542
885.775	21648
885.9	21599
886.025	21701
886.15	21652
886.275	21405
886.4	21504
886.525	21580
886.65	21603
886.775	21469
886.9	21641
887.025	21732
887.149	21523
887.274	21348
887.399	21313
887.523	21332
887.648	21279
887.773	21199
887.897	21275
888.021	21378
888.146	21298
888.27	21389
888.395	21321
888.519	21397
888.643	21397
888.767	21466
888.891	21188
889.015	21154
889.139	21222
889.263	21070
889.387	21195
889.511	21370
889.635	21157
889.759	21036
889.883	21093
890.006	21093
890.13	21157
890.254	20956
890.377	21020
890.501	20937
890.624	20849
890.748	21009
890.871	20735
890.995	20712
891.118	20674
891.241	20651
891.364	20708
891.488	20853
891.611	20651
891.734	20693
891.857	20689
891.98	20655
892.103	20625
892.226	20667
892.349	20621
892.471	20499
892.594	20583
892.717	20434
892.839	20594
892.962	20606
893.085	20583
893.207	20606
893.33	20511
893.452	20488
893.575	20648
893.697	20495
893.819	20689
893.941	20842
894.064	20651
894.186	20480
894.308	20488
894.43	20594
894.552	20864
894.674	20705
894.796	20328
894.918	20648
895.04	20663
895.161	20514
895.283	20594
895.405	20518
895.526	20564
895.648	20560
895.769	20655
895.891	20571
896.012	20674
896.134	20537
896.255	20537
896.376	20606
896.498	20514
896.619	20651
896.74	20530
896.861	20663
896.982	20887
897.103	20960
897.224	20834
897.345	20792
897.466	20781
897.587	20743
897.708	20857
897.828	20807
897.949	20720
898.07	20583
898.19	20731
898.311	20838
898.431	20686
898.552	20815
898.672	20785
898.792	20887
898.913	20754
899.033	20773
899.153	20568
899.273	20461
899.393	20480
899.513	20674
899.633	20583
899.753	20499
899.873	20408
899.993	20606
900.113	20454
900.232	20560
900.352	20476
900.472	20377
900.591	20301
900.711	20320
900.83	20183
900.95	20423
901.069	20404
901.189	20164
901.308	19970
901.427	19845
901.546	19795
901.665	19887
901.784	19890
901.904	19731
902.023	19632
902.141	19582
902.26	19324
902.379	19540
902.498	19308
902.617	19392
902.735	19457
902.854	19381
902.973	19457
903.091	19061
903.21	19004
903.328	19042
903.446	18935
903.565	19008
903.683	18928
903.801	18840
903.919	18810
904.038	18783
904.156	18631
904.274	18730
904.392	18654
904.51	18673
904.627	18555
904.745	18612
904.863	18696
904.981	18464
905.098	18369
905.216	18262
905.334	18338
905.451	18289
905.569	18273
905.686	18323
905.803	18239
905.921	18060
906.038	18247
906.155	18045
906.272	17863
906.389	17958
906.506	17878
906.623	17798
906.74	17821
906.857	17676
906.974	17748
907.091	17901
907.208	17969
907.324	17794
907.441	17710
907.557	17547
907.674	17440
907.79	17551
907.907	17410
908.023	17467
908.139	17421
908.256	17444
908.372	17398
908.488	17265
908.604	17261
908.72	17284
908.836	17227
908.952	17227
909.068	17254
909.184	17307
909.3	17159
909.415	17159
909.531	17242
909.647	17018
909.762	16900
909.878	16889
909.993	16934
910.108	16919
910.224	16824
910.339	16991
910.454	16843
910.57	16740
910.685	16672
910.8	16892
910.915	16862
911.03	16694
911.145	16664
911.259	16428
911.374	16523
911.489	16538
911.604	16402
911.718	16173
911.833	16268
911.947	16169
912.062	16120
912.176	16322
912.291	16291
912.405	16173
912.519	16379
912.633	16474
912.748	16219
912.862	16188
912.976	16162
913.09	15915
913.204	16044
913.318	16078
913.431	16131
913.545	16207
913.659	16185
913.772	16090
913.886	15857
914	15888
914.113	15903
914.226	15991
914.34	15983
914.453	15800
914.566	15842
914.68	15739
914.793	15637
914.906	15447
915.019	15496
915.132	15424
915.245	15496
915.358	15496
915.47	15553
915.583	15454
915.696	15469
915.809	15606
915.921	15625
916.034	15408
916.146	15397
916.259	15268
916.371	15511
916.483	15298
916.595	15359
916.708	15256
916.82	15336
916.932	15325
917.044	15165
917.156	15188
917.268	15116
917.38	15062
917.491	15077
917.603	15093
917.715	15138
917.826	15237
917.938	15097
918.049	14933
918.161	15036
918.272	15085
918.384	15176
918.495	15017
918.606	14887
918.717	14746
918.828	14838
918.939	14830
919.05	14705
919.161	14826
919.272	14651
919.383	14758
919.494	14937
919.604	15047
919.715	14792
919.826	14739
919.936	14712
920.047	14956
920.157	14792
920.267	14891
920.378	14880
920.488	14781
920.598	14914
920.708	15055
920.818	15013
920.928	14963
921.038	15058
921.148	15017
921.258	14857
921.368	14640
921.477	14560
921.587	14583
921.697	14434
921.806	14526
921.916	14343
922.025	14172
922.134	14221
922.244	14206
922.353	14305
922.462	14107
922.571	14024
922.68	13917
922.789	13795
922.898	13887
923.007	13727
923.116	13917
923.224	13784
923.333	13799
923.442	13700
923.55	13658
923.659	13655
923.767	13727
923.876	13533
923.984	13674
924.092	13548
924.201	13658
924.309	13605
924.417	13571
924.525	13373
924.633	13472
924.741	14206
924.849	13316
924.956	13388
925.064	13232
925.172	13171
925.279	13133
925.387	13217
925.494	13232
925.602	13346
925.709	13228
925.816	13118
925.924	13187
926.031	13236
926.138	13110
926.245	13156
926.352	13057
926.459	13156
926.566	13171
926.673	13038
926.779	13027
926.886	13015
926.993	12875
927.099	12817
927.206	12753
927.312	12669
927.419	12875
927.525	12764
927.631	12802
927.737	12665
927.843	12646
927.95	12494
928.056	12703
928.162	12582
928.267	12631
928.373	13259
928.479	12646
928.585	12536
928.69	12475
928.796	12559
928.901	12502
929.007	12281
929.112	12410
929.218	12433
929.323	12319
929.428	12403
929.533	12437
929.638	12285
929.743	12247
929.848	12315
929.953	12216
930.058	12136
930.163	11958
930.267	12007
930.372	12163
930.477	11950
930.581	12159
930.685	11977
930.79	11821
930.894	11882
930.998	11878
931.103	11916
931.207	11512
931.311	11562
931.415	11448
931.519	11265
931.623	11235
