Data from test_V78500241_855.txt Node
Date: Fri Mar 25 15:47:43 CST 2022
User: usil
Spectrometer: V785-0024
Trigger mode: 0
Integration Time (sec): 4.000000E-1
Scans to average: 1
Nonlinearity correction enabled: false
Boxcar width: 0
Storing dark spectrum: false
XAxis mode: Wavelengths
Number of Pixels in Spectrum: 1024
>>>>>Begin Spectral Data<<<<<
801.071	27766
801.214	27652
801.356	27526
801.499	27378
801.641	27222
801.783	27340
801.926	27329
802.068	27359
802.211	27325
802.353	27157
802.496	26960
802.638	27001
802.78	26899
802.923	26750
803.065	26853
803.208	26967
803.35	26952
803.492	27096
803.635	27036
803.777	26990
803.919	27268
804.061	27405
804.204	27104
804.346	27173
804.488	26967
804.63	27123
804.773	27188
804.915	27211
805.057	27294
805.199	27291
805.341	27203
805.483	27378
805.626	27344
805.768	27230
805.91	27264
806.052	27469
806.194	27142
806.336	27542
806.478	27272
806.62	27203
806.762	27477
806.904	27587
807.046	27861
807.188	27682
807.33	27747
807.472	27762
807.614	27770
807.756	27641
807.898	27618
808.04	27534
808.182	27488
808.324	27641
808.465	27591
808.607	27892
808.749	27934
808.891	27956
809.033	28006
809.174	28097
809.316	27983
809.458	27880
809.6	27819
809.741	28051
809.883	28265
810.025	28276
810.166	28070
810.308	28295
810.45	28150
810.591	28238
810.733	27941
810.875	28067
811.016	27838
811.158	27797
811.299	28013
811.441	28215
811.582	28074
811.724	28063
811.865	27987
812.007	27907
812.148	27960
812.29	28010
812.431	28032
812.573	28352
812.714	28344
812.855	28497
812.997	28546
813.138	28752
813.279	28820
813.421	28592
813.562	28481
813.703	28337
813.845	28196
813.986	27911
814.127	27797
814.268	27709
814.41	27778
814.551	27507
814.692	27842
814.833	27648
814.974	27545
815.115	27564
815.256	27553
815.397	27382
815.539	27466
815.68	27378
815.821	27435
815.962	27427
816.103	27325
816.244	27237
816.385	27260
816.526	27317
816.666	27096
816.807	26967
816.948	26952
817.089	27058
817.23	26990
817.371	26979
817.512	26929
817.653	26937
817.793	26899
817.934	26929
818.075	26967
818.216	26906
818.356	26925
818.497	26807
818.638	26754
818.778	26697
818.919	26716
819.06	26765
819.2	26853
819.341	26891
819.481	26971
819.622	27055
819.762	27203
819.903	27176
820.043	27077
820.184	26982
820.324	26883
820.465	26975
820.605	27093
820.746	27013
820.886	26891
821.026	26861
821.167	26952
821.307	27017
821.447	26982
821.588	26750
821.728	26743
821.868	26598
822.008	26423
822.149	26408
822.289	26446
822.429	25978
822.569	25986
822.709	26050
822.849	25822
822.99	25875
823.13	25841
823.27	25944
823.41	25799
823.55	25727
823.69	25750
823.83	25723
823.97	25655
824.11	25601
824.25	25586
824.389	25613
824.529	25628
824.669	25537
824.809	25670
824.949	25575
825.089	25594
825.228	25510
825.368	25316
825.508	25419
825.648	25483
825.787	25563
825.927	25502
826.067	25441
826.206	25460
826.346	25499
826.485	25533
826.625	25518
826.765	25441
826.904	25487
827.044	25088
827.183	25031
827.323	25187
827.462	25175
827.601	25107
827.741	25133
827.88	25168
828.02	25023
828.159	25152
828.298	25076
828.437	25046
828.577	25145
828.716	25217
828.855	25103
828.994	24821
829.134	24939
829.273	24882
829.412	24779
829.551	24650
829.69	24916
829.829	24764
829.968	25031
830.107	24852
830.246	24806
830.385	24707
830.524	24734
830.663	24536
830.802	24585
830.941	24517
831.08	24467
831.219	24547
831.357	24437
831.496	24707
831.635	24330
831.774	24426
831.913	24224
832.051	24281
832.19	24095
832.329	24228
832.467	24072
832.606	24174
832.744	24057
832.883	24030
833.022	24167
833.16	24018
833.299	24125
833.437	24136
833.576	24186
833.714	24152
833.852	24285
833.991	24155
834.129	24292
834.267	24247
834.406	24262
834.544	24197
834.682	24167
834.821	24232
834.959	24372
835.097	24011
835.235	24178
835.373	24140
835.511	24072
835.65	24022
835.788	24003
835.926	23847
836.064	23832
836.202	23885
836.34	23958
836.478	24057
836.615	24015
836.753	23999
836.891	24102
837.029	23992
837.167	23939
837.305	23923
837.443	23817
837.58	23813
837.718	23855
837.856	23912
837.993	23798
838.131	23794
838.269	23786
838.406	23813
838.544	23684
838.681	23535
838.819	23467
838.956	23345
839.094	23265
839.231	23254
839.369	23395
839.506	23619
839.643	23573
839.781	23311
839.918	23250
840.055	23284
840.193	23311
840.33	23193
840.467	23212
840.604	23235
840.742	23410
840.879	23022
841.016	23132
841.153	23147
841.29	23200
841.427	23197
841.564	23151
841.701	23208
841.838	23140
841.975	23052
842.112	23193
842.249	23022
842.385	23071
842.522	23223
842.659	23102
842.796	22995
842.933	23037
843.069	22900
843.206	23067
843.343	23018
843.479	22938
843.616	22919
843.752	22687
843.889	22782
844.025	22839
844.162	22717
844.298	22820
844.435	22668
844.571	22691
844.708	22755
844.844	22938
844.98	22987
845.117	22900
845.253	22691
845.389	22634
845.525	22668
845.661	22527
845.798	22394
845.934	22481
846.07	22424
846.206	22577
846.342	22691
846.478	22519
846.614	22314
846.75	22230
846.886	22131
847.022	22280
847.158	22150
847.294	22135
847.429	22390
847.565	22135
847.701	22398
847.837	21865
847.972	21873
848.108	22078
848.244	22124
848.379	21831
848.515	21770
848.65	21736
848.786	21766
848.921	21778
849.057	21842
849.192	21884
849.328	21789
849.463	21892
849.598	21785
849.734	21800
849.869	21755
850.004	21606
850.14	21568
850.275	21614
850.41	21447
850.545	21447
850.68	21595
850.815	21526
850.95	21603
851.085	21572
851.22	21679
851.355	21637
851.49	21572
851.625	21538
851.76	21606
851.895	21507
852.03	21500
852.165	21496
852.299	21477
852.434	21739
852.569	21549
852.703	21618
852.838	21599
852.973	21686
853.107	21591
853.242	21515
853.376	21374
853.511	21283
853.645	21275
853.78	21481
853.914	21515
854.048	21374
854.183	21336
854.317	21416
854.451	21583
854.585	21317
854.72	21397
854.854	21454
854.988	21256
855.122	21325
855.256	21287
855.39	21275
855.524	21344
855.658	21462
855.792	21382
855.926	21329
856.06	21534
856.194	21279
856.327	21393
856.461	21367
856.595	21291
856.729	21428
856.862	21507
856.996	21492
857.13	21507
857.263	21515
857.397	21287
857.53	21359
857.664	21450
857.797	21428
857.931	21595
858.064	21374
858.197	21473
858.331	21332
858.464	21466
858.597	21222
858.731	21386
858.864	21340
858.997	21298
859.13	21355
859.263	21443
859.396	21572
859.529	21435
859.662	21351
859.795	21458
859.928	21416
860.061	21564
860.194	21618
860.327	21447
860.46	21340
860.592	21530
860.725	21454
860.858	21561
860.99	21329
861.123	21428
861.256	21298
861.388	21367
861.521	21964
861.653	21237
861.786	21180
861.918	21188
862.05	21207
862.183	21298
862.315	21252
862.447	21321
862.58	21348
862.712	21161
862.844	20948
862.976	21142
863.108	21077
863.24	21462
863.372	21112
863.504	21077
863.636	21039
863.768	21157
863.9	21001
864.032	21020
864.164	21032
864.296	21100
864.428	21222
864.559	21203
864.691	21207
864.823	21058
864.954	20975
865.086	21089
865.217	21039
865.349	20918
865.48	21047
865.612	20994
865.743	21127
865.875	21123
866.006	20994
866.137	20998
866.269	20941
866.4	20918
866.531	20883
866.662	20868
866.793	20864
866.924	20982
867.055	20948
867.186	20895
867.317	20883
867.448	20807
867.579	21028
867.71	20861
867.841	20765
867.972	20960
868.103	20921
868.233	20861
868.364	20933
868.495	20876
868.625	21157
868.756	21272
868.886	21112
869.017	21173
869.147	21184
869.278	21256
869.408	21230
869.539	21161
869.669	21268
869.799	21233
869.929	21401
870.06	21226
870.19	21473
870.32	21488
870.45	21519
870.58	21622
870.71	21690
870.84	21591
870.97	21564
871.1	21576
871.23	21561
871.36	21846
871.489	21660
871.619	21759
871.749	21671
871.879	21724
872.008	21854
872.138	21728
872.267	21732
872.397	21580
872.526	21583
872.656	21564
872.785	21633
872.915	21759
873.044	21823
873.173	21793
873.303	21831
873.432	21892
873.561	21838
873.69	21861
873.819	21682
873.948	21911
874.077	21778
874.206	21747
874.335	21778
874.464	21759
874.593	21930
874.722	21998
874.851	22063
874.979	22040
875.108	22002
875.237	21960
875.365	21835
875.494	22002
875.623	22070
875.751	22010
875.88	21994
876.008	22128
876.136	22211
876.265	22325
876.393	22504
876.521	22504
876.65	22367
876.778	22451
876.906	22314
877.034	22261
877.162	22344
877.29	22356
877.418	22405
877.546	22398
877.674	22424
877.802	22314
877.93	22143
878.058	22249
878.185	22192
878.313	22268
878.441	22371
878.568	22093
878.696	22318
878.824	22459
878.951	22341
879.079	22470
879.206	22774
879.333	22557
879.461	22394
879.588	22318
879.715	22546
879.842	22618
879.97	22542
880.097	22166
880.224	22181
880.351	22166
880.478	22249
880.605	22101
880.732	22207
880.859	22436
880.986	22276
881.112	22173
881.239	21991
881.366	21873
881.493	21854
881.619	21838
881.746	21846
881.872	21793
881.999	21747
882.125	21667
882.252	21770
882.378	21614
882.505	21823
882.631	21553
882.757	21572
882.883	21633
883.01	21408
883.136	21500
883.262	21249
883.388	21294
883.514	21351
883.64	21405
883.766	21344
883.892	21275
884.018	21169
884.143	21386
884.269	21458
884.395	21138
884.52	20975
884.646	21066
884.772	21070
884.897	21112
885.023	21123
885.148	21195
885.274	21195
885.399	21241
885.524	21070
885.65	21173
885.775	21005
885.9	21020
886.025	21317
886.15	21074
886.275	21150
886.4	20960
886.525	21104
886.65	20986
886.775	21039
886.9	21230
887.025	21272
887.149	21093
887.274	20868
887.399	20830
887.523	20925
887.648	20857
887.773	20678
887.897	20902
888.021	20982
888.146	20845
888.27	20902
888.395	21028
888.519	20811
888.643	20804
888.767	20819
888.891	20811
889.015	20754
889.139	20830
889.263	20617
889.387	20781
889.511	20872
889.635	20762
889.759	20625
889.883	20705
890.006	20705
890.13	20769
890.254	20724
890.377	20571
890.501	20457
890.624	20476
890.748	20423
890.871	20309
890.995	20252
891.118	20233
891.241	20267
891.364	20100
891.488	20313
891.611	20149
891.734	20320
891.857	20248
891.98	20168
892.103	20259
892.226	20206
892.349	20157
892.471	20065
892.594	20221
892.717	20103
892.839	20096
892.962	20187
893.085	20168
893.207	20111
893.33	20107
893.452	20001
893.575	20142
893.697	20130
893.819	20267
893.941	20355
894.064	20233
894.186	20081
894.308	20012
894.43	20263
894.552	20275
894.674	20164
894.796	20062
894.918	20092
895.04	20001
895.161	20161
895.283	20172
895.405	20062
895.526	20164
895.648	20172
895.769	20183
895.891	20180
896.012	20267
896.134	20214
896.255	20145
896.376	19978
896.498	20043
896.619	20096
896.74	20145
896.861	20225
896.982	20495
897.103	20507
897.224	20370
897.345	20461
897.466	20191
897.587	20366
897.708	20571
897.828	20396
897.949	20252
898.07	20267
898.19	20313
898.311	20404
898.431	20202
898.552	20351
898.672	20530
898.792	20499
898.913	20476
899.033	20275
899.153	20187
899.273	20092
899.393	20054
899.513	20172
899.633	20164
899.753	20278
899.873	19986
899.993	20149
900.113	20100
900.232	20100
900.352	19967
900.472	20005
900.591	19883
900.711	19944
900.83	19811
900.95	20122
901.069	19887
901.189	19864
901.308	19571
901.427	19491
901.546	19434
901.665	19476
901.784	19502
901.904	19388
902.023	19407
902.141	19084
902.26	19038
902.379	19008
902.498	18932
902.617	18970
902.735	19084
902.854	18924
902.973	18837
903.091	18582
903.21	18620
903.328	18726
903.446	18528
903.565	18502
903.683	18483
903.801	18456
903.919	18342
904.038	18361
904.156	18197
904.274	18323
904.392	18285
904.51	18136
904.627	18117
904.745	18243
904.863	18353
904.981	18022
905.098	17954
905.216	17885
905.334	17897
905.451	17931
905.569	17874
905.686	17809
905.803	17920
905.921	17691
906.038	17821
906.155	17657
906.272	17566
906.389	17608
906.506	17429
906.623	17379
906.74	17368
906.857	17372
906.974	17345
907.091	17501
907.208	17474
907.324	17493
907.441	17162
907.557	17227
907.674	17071
907.79	17102
907.907	17113
908.023	17189
908.139	17060
908.256	17212
908.372	16949
908.488	17025
908.604	17025
908.72	16809
908.836	16805
908.952	16809
909.068	16812
909.184	16999
909.3	16892
909.415	16881
909.531	16793
909.647	16542
909.762	16588
909.878	16504
909.993	16577
910.108	16615
910.224	16561
910.339	16531
910.454	16497
910.57	16348
910.685	16306
910.8	16630
910.915	16550
911.03	16440
911.145	16215
911.259	16150
911.374	16215
911.489	16196
911.604	16059
911.718	15915
911.833	15778
911.947	15884
912.062	15774
912.176	15861
912.291	15937
912.405	15934
912.519	16124
912.633	16086
912.748	15934
912.862	15854
912.976	15842
913.09	15705
913.204	15736
913.318	15713
913.431	15785
913.545	15755
913.659	15804
913.772	15698
913.886	15530
914	15584
914.113	15644
914.226	15576
914.34	15557
914.453	15317
914.566	15519
914.68	15504
914.793	15454
914.906	15135
915.019	15146
915.132	15097
915.245	15097
915.358	15138
915.47	15165
915.583	15142
915.696	15123
915.809	15355
915.921	15180
916.034	15066
916.146	15020
916.259	14842
916.371	15142
916.483	15074
916.595	14960
916.708	14990
916.82	14868
916.932	14899
917.044	14967
917.156	14883
917.268	14788
917.38	14895
917.491	14701
917.603	14781
917.715	14762
917.826	14921
917.938	14758
918.049	14537
918.161	14746
918.272	14826
918.384	14823
918.495	14785
918.606	14606
918.717	14556
918.828	14598
918.939	14606
919.05	14404
919.161	14511
919.272	14355
919.383	14374
919.494	14621
919.604	14754
919.715	14602
919.826	14427
919.936	14514
920.047	14648
920.157	14511
920.267	14705
920.378	14499
920.488	14450
920.598	14705
920.708	14750
920.818	14621
920.928	14625
921.038	14765
921.148	14720
921.258	14469
921.368	14347
921.477	14343
921.587	14195
921.697	14145
921.806	14317
921.916	14065
922.025	13898
922.134	13913
922.244	13852
922.353	13967
922.462	13750
922.571	13715
922.68	13616
922.789	13597
922.898	13613
923.007	13449
923.116	13597
923.224	13559
923.333	13468
923.442	13438
923.55	13388
923.659	13453
923.767	13537
923.876	13270
923.984	13495
924.092	13377
924.201	13343
924.309	13297
924.417	13312
924.525	13213
924.633	13213
924.741	14168
924.849	13027
924.956	13171
925.064	13091
925.172	12973
925.279	12954
925.387	13034
925.494	13042
925.602	13095
925.709	12989
925.816	12939
925.924	12844
926.031	12943
926.138	12928
926.245	12989
926.352	12890
926.459	12993
926.566	12970
926.673	12909
926.779	12639
926.886	12715
926.993	12582
927.099	12559
927.206	12506
927.312	12585
927.419	12540
927.525	12521
927.631	12688
927.737	12410
927.843	12388
927.95	12239
928.056	12437
928.162	12350
928.267	12369
928.373	13015
928.479	12498
928.585	12235
928.69	12266
928.796	12395
928.901	12182
929.007	12106
929.112	12243
929.218	12133
929.323	12205
929.428	12106
929.533	12220
929.638	12114
929.743	12011
929.848	12076
929.953	12159
930.058	11984
930.163	11802
930.267	11745
930.372	11988
930.477	11775
930.581	11954
930.685	11843
930.79	11733
930.894	11668
930.998	11646
931.103	11794
931.207	11436
931.311	11383
931.415	11254
931.519	11109
931.623	11056
