Data from test_V78500241_2576.txt Node
Date: Fri Mar 25 15:59:38 CST 2022
User: usil
Spectrometer: V785-0024
Trigger mode: 0
Integration Time (sec): 4.000000E-1
Scans to average: 1
Nonlinearity correction enabled: false
Boxcar width: 0
Storing dark spectrum: false
XAxis mode: Wavelengths
Number of Pixels in Spectrum: 1024
>>>>>Begin Spectral Data<<<<<
801.071	28927
801.214	28850
801.356	28641
801.499	28527
801.641	28459
801.783	28413
801.926	28428
802.068	28432
802.211	28348
802.353	28291
802.496	28177
802.638	28082
802.78	28101
802.923	28109
803.065	28055
803.208	28097
803.35	28147
803.492	28367
803.635	28284
803.777	28276
803.919	28246
804.061	28713
804.204	28394
804.346	28348
804.488	28268
804.63	28413
804.773	28303
804.915	28500
805.057	28363
805.199	28421
805.341	28436
805.483	28443
805.626	28554
805.768	28363
805.91	28569
806.052	28622
806.194	28462
806.336	28740
806.478	28516
806.62	28497
806.762	28679
806.904	28733
807.046	29056
807.188	29067
807.33	29079
807.472	28980
807.614	28938
807.756	28923
807.898	28869
808.04	28885
808.182	28786
808.324	28987
808.465	28953
808.607	29064
808.749	29223
808.891	29269
809.033	29356
809.174	29250
809.316	29406
809.458	29246
809.6	29124
809.741	29246
809.883	29395
810.025	29414
810.166	29543
810.308	29577
810.45	29452
810.591	29341
810.733	29360
810.875	29322
811.016	29166
811.158	29003
811.299	29269
811.441	29258
811.582	29330
811.724	29318
811.865	29162
812.007	29326
812.148	29292
812.29	29261
812.431	29455
812.573	29737
812.714	29558
812.855	29798
812.997	29741
813.138	29961
813.279	29862
813.421	29745
813.562	29665
813.703	29695
813.845	29345
813.986	29166
814.127	29071
814.268	28854
814.41	29010
814.551	29010
814.692	28869
814.833	28957
814.974	28927
815.115	28869
815.256	28949
815.397	28752
815.539	28721
815.68	28736
815.821	28710
815.962	28896
816.103	28820
816.244	28748
816.385	28584
816.526	28478
816.666	28268
816.807	28204
816.948	28348
817.089	28436
817.23	28287
817.371	28223
817.512	28207
817.653	28299
817.793	28188
817.934	28306
818.075	28295
818.216	28230
818.356	28253
818.497	28036
818.638	27994
818.778	28055
818.919	27953
819.06	28078
819.2	28177
819.341	28284
819.481	28287
819.622	28447
819.762	28710
819.903	28455
820.043	28440
820.184	28280
820.324	28466
820.465	28546
820.605	28325
820.746	28261
820.886	28367
821.026	28344
821.167	28394
821.307	28398
821.447	28306
821.588	28234
821.728	28120
821.868	27892
822.008	27819
822.149	27751
822.289	27690
822.429	27439
822.569	27359
822.709	27458
822.849	27252
822.99	27283
823.13	27123
823.27	27138
823.41	27074
823.55	26963
823.69	27108
823.83	27127
823.97	26952
824.11	26940
824.25	26887
824.389	26906
824.529	26906
824.669	26952
824.809	26948
824.949	26963
825.089	26956
825.228	27127
825.368	26758
825.508	26788
825.648	26705
825.787	26826
825.927	26899
826.067	26594
826.206	26712
826.346	26857
826.485	26785
826.625	26727
826.765	26902
826.904	26815
827.044	26469
827.183	26602
827.323	26453
827.462	26644
827.601	26446
827.741	26575
827.88	26598
828.02	26271
828.159	26431
828.298	26431
828.437	26621
828.577	26434
828.716	26549
828.855	26351
828.994	26176
829.134	26343
829.273	26103
829.412	26046
829.551	26069
829.69	26282
829.829	26069
829.968	26370
830.107	26237
830.246	26195
830.385	26054
830.524	26058
830.663	26046
830.802	25978
830.941	25883
831.08	25784
831.219	25928
831.357	25963
831.496	26062
831.635	25875
831.774	25681
831.913	25689
832.051	25693
832.19	25457
832.329	25647
832.467	25445
832.606	25415
832.744	25533
832.883	25369
833.022	25426
833.16	25415
833.299	25472
833.437	25506
833.576	25476
833.714	25613
833.852	25525
833.991	25616
834.129	25655
834.267	25632
834.406	25537
834.544	25506
834.682	25559
834.821	25453
834.959	25715
835.097	25586
835.235	25540
835.373	25613
835.511	25495
835.65	25407
835.788	25426
835.926	25244
836.064	25137
836.202	25133
836.34	25438
836.478	25415
836.615	25259
836.753	25301
836.891	25297
837.029	25419
837.167	25206
837.305	25270
837.443	25160
837.58	25225
837.718	25304
837.856	25175
837.993	25145
838.131	25133
838.269	25008
838.406	25042
838.544	24920
838.681	24871
838.819	24726
838.956	24589
839.094	24601
839.231	24597
839.369	24867
839.506	25023
839.643	24894
839.781	24608
839.918	24509
840.055	24578
840.193	24589
840.33	24498
840.467	24551
840.604	24445
840.742	24810
840.879	24323
841.016	24521
841.153	24490
841.29	24525
841.427	24601
841.564	24498
841.701	24532
841.838	24426
841.975	24467
842.112	24426
842.249	24369
842.385	24266
842.522	24509
842.659	24350
842.796	24315
842.933	24315
843.069	24148
843.206	24144
843.343	24338
843.479	24372
843.616	24311
843.752	24102
843.889	24060
844.025	24068
844.162	24091
844.298	24167
844.435	24197
844.571	24038
844.708	23977
844.844	24136
844.98	24186
845.117	24102
845.253	24064
845.389	23836
845.525	23832
845.661	23752
845.798	23813
845.934	23843
846.07	23893
846.206	23760
846.342	23935
846.478	23756
846.614	23596
846.75	23421
846.886	23539
847.022	23573
847.158	23535
847.294	23562
847.429	23474
847.565	23482
847.701	23783
847.837	23258
847.972	23121
848.108	23398
848.244	23383
848.379	23197
848.515	23185
848.65	22984
848.786	23086
848.921	23094
849.057	23284
849.192	23143
849.328	23086
849.463	23090
849.598	22949
849.734	22953
849.869	22946
850.004	22923
850.14	22858
850.275	22824
850.41	22744
850.545	22854
850.68	22908
850.815	22869
850.95	22934
851.085	23109
851.22	22995
851.355	22881
851.49	22892
851.625	22904
851.76	22835
851.895	22854
852.03	22736
852.165	22786
852.299	23006
852.434	22892
852.569	22938
852.703	22820
852.838	22839
852.973	22942
853.107	22843
853.242	22744
853.376	22626
853.511	22584
853.645	22603
853.78	22839
853.914	22702
854.048	22656
854.183	22675
854.317	22691
854.451	22919
854.585	22660
854.72	22706
854.854	22793
854.988	22733
855.122	22656
855.256	22527
855.39	22596
855.524	22843
855.658	22668
855.792	22809
855.926	22611
856.06	22675
856.194	22740
856.327	22626
856.461	22649
856.595	22565
856.729	22645
856.862	22809
856.996	22733
857.13	22687
857.263	22812
857.397	22877
857.53	22683
857.664	22637
857.797	22645
857.931	22763
858.064	22626
858.197	22763
858.331	22550
858.464	22607
858.597	22592
858.731	22691
858.864	22649
858.997	22653
859.13	22687
859.263	22649
859.396	22828
859.529	22573
859.662	22546
859.795	22645
859.928	22649
860.061	22900
860.194	22919
860.327	22778
860.46	22721
860.592	22790
860.725	22847
860.858	22755
860.99	22782
861.123	22584
861.256	22660
861.388	22645
861.521	23269
861.653	22599
861.786	22519
861.918	22500
862.05	22565
862.183	22577
862.315	22641
862.447	22634
862.58	22584
862.712	22371
862.844	22375
862.976	22542
863.108	22462
863.24	22809
863.372	22352
863.504	22447
863.636	22409
863.768	22375
863.9	22322
864.032	22360
864.164	22367
864.296	22276
864.428	22440
864.559	22500
864.691	22455
864.823	22402
864.954	22291
865.086	22329
865.217	22402
865.349	22124
865.48	22295
865.612	22306
865.743	22291
865.875	22249
866.006	22131
866.137	22257
866.269	22230
866.4	22246
866.531	22105
866.662	22162
866.793	22090
866.924	22173
867.055	22318
867.186	22268
867.317	22166
867.448	22200
867.579	22067
867.71	22036
867.841	22074
867.972	22112
868.103	22147
868.233	22181
868.364	22246
868.495	22173
868.625	22432
868.756	22611
868.886	22424
869.017	22363
869.147	22519
869.278	22672
869.408	22371
869.539	22436
869.669	22493
869.799	22493
869.929	22577
870.06	22504
870.19	22630
870.32	22729
870.45	22744
870.58	22767
870.71	22927
870.84	22873
870.97	22698
871.1	22858
871.23	22976
871.36	23083
871.489	22862
871.619	22965
871.749	23094
871.879	23124
872.008	23086
872.138	23067
872.267	23056
872.397	22873
872.526	22927
872.656	22991
872.785	22809
872.915	23113
873.044	23235
873.173	23056
873.303	23037
873.432	23151
873.561	23128
873.69	23086
873.819	22980
873.948	23064
874.077	22923
874.206	23022
874.335	23151
874.464	23212
874.593	23208
874.722	23231
874.851	23383
874.979	23197
875.108	23364
875.237	23227
875.365	23239
875.494	23246
875.623	23478
875.751	23254
875.88	23318
876.008	23318
876.136	23402
876.265	23604
876.393	23809
876.521	23779
876.65	23775
876.778	23543
876.906	23649
877.034	23684
877.162	23695
877.29	23501
877.418	23592
877.546	23684
877.674	23638
877.802	23589
877.93	23562
878.058	23657
878.185	23493
878.313	23547
878.441	23611
878.568	23558
878.696	23543
878.824	23695
878.951	23752
879.079	23707
879.206	23855
879.333	23863
879.461	23592
879.588	23642
879.715	23767
879.842	23737
879.97	23668
880.097	23482
880.224	23448
880.351	23459
880.478	23554
880.605	23398
880.732	23463
880.859	23604
880.986	23467
881.112	23334
881.239	23406
881.366	23197
881.493	22991
881.619	22953
881.746	22987
881.872	22965
881.999	22835
882.125	22824
882.252	23041
882.378	22957
882.505	23022
882.631	22809
882.757	22744
882.883	22790
883.01	22603
883.136	22675
883.262	22417
883.388	22550
883.514	22771
883.64	22607
883.766	22596
883.892	22481
884.018	22379
884.143	22634
884.269	22664
884.395	22341
884.52	22246
884.646	22333
884.772	22223
884.897	22173
885.023	22226
885.148	22375
885.274	22462
885.399	22413
885.524	22219
885.65	22306
885.775	22371
885.9	22230
886.025	22348
886.15	22382
886.275	22238
886.4	22207
886.525	22276
886.65	22261
886.775	22219
886.9	22424
887.025	22512
887.149	22234
887.274	22002
887.399	22063
887.523	22025
887.648	21972
887.773	21972
887.897	22150
888.021	22242
888.146	21964
888.27	22143
888.395	22162
888.519	22139
888.643	22070
888.767	21983
888.891	21991
889.015	21869
889.139	21934
889.263	21789
889.387	21873
889.511	21975
889.635	21884
889.759	21819
889.883	21720
890.006	21842
890.13	22032
890.254	21713
890.377	21774
890.501	21583
890.624	21568
890.748	21625
890.871	21450
890.995	21367
891.118	21378
891.241	21378
891.364	21412
891.488	21477
891.611	21336
891.734	21302
891.857	21462
891.98	21374
892.103	21374
892.226	21348
892.349	21336
892.471	21089
892.594	21374
892.717	21275
892.839	21348
892.962	21306
893.085	21298
893.207	21302
893.33	21116
893.452	21241
893.575	21264
893.697	21306
893.819	21340
893.941	21420
894.064	21492
894.186	21211
894.308	21135
894.43	21306
894.552	21466
894.674	21374
894.796	21192
894.918	21233
895.04	21161
895.161	21252
895.283	21275
895.405	21142
895.526	21291
895.648	21321
895.769	21249
895.891	21359
896.012	21393
896.134	21230
896.255	21222
896.376	21279
896.498	21264
896.619	21230
896.74	21157
896.861	21256
896.982	21637
897.103	21698
897.224	21450
897.345	21416
897.466	21416
897.587	21492
897.708	21458
897.828	21515
897.949	21355
898.07	21230
898.19	21359
898.311	21492
898.431	21291
898.552	21545
898.672	21458
898.792	21370
898.913	21401
899.033	21344
899.153	21218
899.273	21184
899.393	21104
899.513	21169
899.633	21138
899.753	21233
899.873	21214
899.993	21264
900.113	21146
900.232	21112
900.352	21017
900.472	21119
900.591	20910
900.711	20956
900.83	20937
900.95	21146
901.069	21032
901.189	20804
901.308	20640
901.427	20461
901.546	20533
901.665	20629
901.784	20545
901.904	20324
902.023	20271
902.141	20092
902.26	20199
902.379	20088
902.498	20153
902.617	20107
902.735	20012
902.854	20024
902.973	19997
903.091	19693
903.21	19651
903.328	19639
903.446	19613
903.565	19483
903.683	19544
903.801	19301
903.919	19365
904.038	19609
904.156	19213
904.274	19282
904.392	19221
904.51	19259
904.627	19247
904.745	19175
904.863	19293
904.981	18996
905.098	18932
905.216	18867
905.334	18875
905.451	18867
905.569	18795
905.686	18795
905.803	18894
905.921	18669
906.038	18760
906.155	18631
906.272	18559
906.389	18631
906.506	18441
906.623	18418
906.74	18498
906.857	18334
906.974	18296
907.091	18388
907.208	18593
907.324	18467
907.441	18361
907.557	18167
907.674	18243
907.79	18057
907.907	18083
908.023	18129
908.139	18159
908.256	18011
908.372	18087
908.488	17901
908.604	17916
908.72	17843
908.836	17859
908.952	17805
909.068	17718
909.184	17817
909.3	17813
909.415	17790
909.531	17745
909.647	17566
909.762	17535
909.878	17509
909.993	17459
910.108	17417
910.224	17414
910.339	17532
910.454	17368
910.57	17326
910.685	17269
910.8	17600
910.915	17482
911.03	17299
911.145	17227
911.259	17113
911.374	17143
911.489	17079
911.604	16885
911.718	16797
911.833	16957
911.947	16687
912.062	16717
912.176	16999
912.291	16824
912.405	16793
912.519	17014
912.633	16984
912.748	17022
912.862	16736
912.976	16550
913.09	16538
913.204	16459
913.318	16664
913.431	16733
913.545	16748
913.659	16725
913.772	16607
913.886	16493
914	16584
914.113	16565
914.226	16497
914.34	16531
914.453	16303
914.566	16417
914.68	16207
914.793	16272
914.906	16055
915.019	16010
915.132	15949
915.245	16002
915.358	16036
915.47	15979
915.583	15979
915.696	15975
915.809	16188
915.921	16082
916.034	15911
916.146	15869
916.259	15850
916.371	15934
916.483	16010
916.595	15819
916.708	15743
916.82	15835
916.932	15816
917.044	15717
917.156	15690
917.268	15713
917.38	15557
917.491	15603
917.603	15603
917.715	15686
917.826	15713
917.938	15519
918.049	15443
918.161	15534
918.272	15743
918.384	15641
918.495	15504
918.606	15458
918.717	15298
918.828	15355
918.939	15435
919.05	15218
919.161	15420
919.272	15192
919.383	15199
919.494	15329
919.604	15481
919.715	15313
919.826	15325
919.936	15245
920.047	15344
920.157	15348
920.267	15420
920.378	15302
920.488	15192
920.598	15401
920.708	15686
920.818	15431
920.928	15405
921.038	15644
921.148	15500
921.258	15245
921.368	15279
921.477	15112
921.587	15093
921.697	14933
921.806	15119
921.916	14880
922.025	14727
922.134	14610
922.244	14651
922.353	14655
922.462	14541
922.571	14461
922.68	14309
922.789	14332
922.898	14301
923.007	14244
923.116	14355
923.224	14317
923.333	14142
923.442	14126
923.55	14161
923.659	14157
923.767	14119
923.876	14142
923.984	14202
924.092	13951
924.201	14100
924.309	14020
924.417	14005
924.525	13849
924.633	13890
924.741	14891
924.849	13734
924.956	13879
925.064	13715
925.172	13746
925.279	13700
925.387	13636
925.494	13677
925.602	13746
925.709	13685
925.816	13582
925.924	13613
926.031	13731
926.138	13662
926.245	13613
926.352	13487
926.459	13552
926.566	13677
926.673	13438
926.779	13426
926.886	13308
926.993	13293
927.099	13145
927.206	13228
927.312	13137
927.419	13217
927.525	13221
927.631	13202
927.737	13133
927.843	13019
927.95	12947
928.056	13008
928.162	13099
928.267	13034
928.373	13533
928.479	13114
928.585	12837
928.69	12935
928.796	12973
928.901	12935
929.007	12821
929.112	12837
929.218	12806
929.323	12764
929.428	12741
929.533	12863
929.638	12707
929.743	12608
929.848	12787
929.953	12662
930.058	12593
930.163	12388
930.267	12483
930.372	12498
930.477	12456
930.581	12574
930.685	12471
930.79	12281
930.894	12327
930.998	12239
931.103	12384
931.207	11954
931.311	11908
931.415	11779
931.519	11653
931.623	11695
