Data from test_V78500241_3172.txt Node
Date: Fri Mar 25 16:03:46 CST 2022
User: usil
Spectrometer: V785-0024
Trigger mode: 0
Integration Time (sec): 4.000000E-1
Scans to average: 1
Nonlinearity correction enabled: false
Boxcar width: 0
Storing dark spectrum: false
XAxis mode: Wavelengths
Number of Pixels in Spectrum: 1024
>>>>>Begin Spectral Data<<<<<
801.071	28641
801.214	28523
801.356	28352
801.499	28356
801.641	28147
801.783	28230
801.926	28147
802.068	28158
802.211	28078
802.353	28200
802.496	28025
802.638	27994
802.78	27835
802.923	27800
803.065	27747
803.208	27835
803.35	27846
803.492	28093
803.635	28013
803.777	28078
803.919	28082
804.061	28546
804.204	28185
804.346	28131
804.488	27994
804.63	28120
804.773	28086
804.915	28280
805.057	28253
805.199	28109
805.341	28207
805.483	28242
805.626	28401
805.768	28135
805.91	28253
806.052	28226
806.194	28215
806.336	28596
806.478	28386
806.62	28272
806.762	28512
806.904	28550
807.046	28915
807.188	28675
807.33	28717
807.472	28869
807.614	28790
807.756	28691
807.898	28664
808.04	28455
808.182	28535
808.324	28561
808.465	28668
808.607	28858
808.749	28923
808.891	29079
809.033	29044
809.174	29033
809.316	28877
809.458	29124
809.6	28888
809.741	29178
809.883	29037
810.025	29326
810.166	29322
810.308	29379
810.45	29242
810.591	29185
810.733	29003
810.875	28953
811.016	28999
811.158	28809
811.299	29029
811.441	29151
811.582	29121
811.724	28949
811.865	29075
812.007	28888
812.148	29071
812.29	28953
812.431	29162
812.573	29353
812.714	29364
812.855	29478
812.997	29646
813.138	29741
813.279	29714
813.421	29512
813.562	29516
813.703	29250
813.845	29189
813.986	29044
814.127	28873
814.268	28744
814.41	28908
814.551	28527
814.692	28713
814.833	28691
814.974	28664
815.115	28672
815.256	28508
815.397	28538
815.539	28489
815.68	28424
815.821	28523
815.962	28382
816.103	28577
816.244	28348
816.385	28124
816.526	28268
816.666	28048
816.807	27945
816.948	28036
817.089	27994
817.23	28166
817.371	27956
817.512	28036
817.653	28059
817.793	27953
817.934	28086
818.075	27831
818.216	28120
818.356	28010
818.497	27987
818.638	27720
818.778	27739
818.919	27705
819.06	27827
819.2	27945
819.341	27972
819.481	28090
819.622	28230
819.762	28432
819.903	28196
820.043	28070
820.184	28238
820.324	28238
820.465	28162
820.605	28135
820.746	28154
820.886	27979
821.026	28063
821.167	27998
821.307	28261
821.447	28029
821.588	27926
821.728	27705
821.868	27652
822.008	27492
822.149	27393
822.289	27363
822.429	27272
822.569	27298
822.709	27150
822.849	26971
822.99	26956
823.13	26960
823.27	26918
823.41	26674
823.55	26708
823.69	26899
823.83	26940
823.97	26838
824.11	26670
824.25	26678
824.389	26511
824.529	26705
824.669	26731
824.809	26883
824.949	26689
825.089	26720
825.228	26724
825.368	26537
825.508	26522
825.648	26629
825.787	26590
825.927	26556
826.067	26499
826.206	26583
826.346	26727
826.485	26651
826.625	26473
826.765	26670
826.904	26667
827.044	26339
827.183	26347
827.323	26263
827.462	26248
827.601	26389
827.741	26218
827.88	26206
828.02	26183
828.159	26263
828.298	26240
828.437	26248
828.577	26294
828.716	26419
828.855	26153
828.994	25818
829.134	25849
829.273	26043
829.412	25917
829.551	25932
829.69	25986
829.829	25925
829.968	25986
830.107	25993
830.246	25921
830.385	25955
830.524	25864
830.663	25620
830.802	25677
830.941	25590
831.08	25639
831.219	25681
831.357	25628
831.496	25700
831.635	25514
831.774	25483
831.913	25537
832.051	25285
832.19	25396
832.329	25327
832.467	25312
832.606	25179
832.744	25206
832.883	25141
833.022	25065
833.16	25244
833.299	25301
833.437	25350
833.576	25365
833.714	25251
833.852	25449
833.991	25407
834.129	25476
834.267	25358
834.406	25377
834.544	25308
834.682	25362
834.821	25232
834.959	25445
835.097	25301
835.235	25350
835.373	25297
835.511	25247
835.65	25225
835.788	25099
835.926	25034
836.064	24779
836.202	24791
836.34	24996
836.478	25141
836.615	25080
836.753	25099
836.891	25141
837.029	25114
837.167	25164
837.305	24992
837.443	25027
837.58	24973
837.718	25152
837.856	25110
837.993	24913
838.131	24996
838.269	24677
838.406	24833
838.544	24806
838.681	24517
838.819	24582
838.956	24372
839.094	24399
839.231	24441
839.369	24532
839.506	24764
839.643	24650
839.781	24528
839.918	24289
840.055	24395
840.193	24277
840.33	24235
840.467	24376
840.604	24376
840.742	24513
840.879	24148
841.016	24342
841.153	24262
841.29	24509
841.427	24239
841.564	24285
841.701	24346
841.838	24235
841.975	24273
842.112	24182
842.249	24144
842.385	24106
842.522	24258
842.659	24129
842.796	24110
842.933	24102
843.069	24133
843.206	24053
843.343	24102
843.479	24038
843.616	24110
843.752	23779
843.889	23920
844.025	23855
844.162	23779
844.298	23904
844.435	23821
844.571	23870
844.708	23847
844.844	23977
844.98	23950
845.117	23847
845.253	23737
845.389	23627
845.525	23649
845.661	23653
845.798	23619
845.934	23661
846.07	23562
846.206	23657
846.342	23661
846.478	23551
846.614	23391
846.75	23258
846.886	23181
847.022	23429
847.158	23288
847.294	23334
847.429	23261
847.565	23208
847.701	23486
847.837	23143
847.972	23132
848.108	23159
848.244	23067
848.379	22892
848.515	22934
848.65	22942
848.786	22866
848.921	22923
849.057	22946
849.192	23022
849.328	22885
849.463	22980
849.598	22801
849.734	22713
849.869	22694
850.004	22717
850.14	22805
850.275	22672
850.41	22569
850.545	22615
850.68	22588
850.815	22691
850.95	22664
851.085	22885
851.22	22767
851.355	22793
851.49	22694
851.625	22653
851.76	22527
851.895	22729
852.03	22611
852.165	22596
852.299	22565
852.434	22812
852.569	22755
852.703	22573
852.838	22668
852.973	22896
853.107	22790
853.242	22592
853.376	22512
853.511	22333
853.645	22367
853.78	22550
853.914	22436
854.048	22352
854.183	22436
854.317	22519
854.451	22603
854.585	22402
854.72	22493
854.854	22584
854.988	22489
855.122	22371
855.256	22402
855.39	22508
855.524	22523
855.658	22485
855.792	22481
855.926	22512
856.06	22615
856.194	22683
856.327	22516
856.461	22508
856.595	22470
856.729	22432
856.862	22531
856.996	22516
857.13	22573
857.263	22436
857.397	22592
857.53	22611
857.664	22478
857.797	22474
857.931	22508
858.064	22497
858.197	22519
858.331	22497
858.464	22417
858.597	22417
858.731	22451
858.864	22493
858.997	22478
859.13	22344
859.263	22390
859.396	22531
859.529	22363
859.662	22455
859.795	22451
859.928	22516
860.061	22546
860.194	22660
860.327	22516
860.46	22592
860.592	22599
860.725	22554
860.858	22611
860.99	22386
861.123	22413
861.256	22390
861.388	22508
861.521	23261
861.653	22409
861.786	22204
861.918	22253
862.05	22234
862.183	22474
862.315	22478
862.447	22287
862.58	22310
862.712	22169
862.844	22131
862.976	22223
863.108	22287
863.24	22649
863.372	22093
863.504	22162
863.636	22162
863.768	22325
863.9	22139
864.032	22124
864.164	22139
864.296	22196
864.428	22261
864.559	22219
864.691	22238
864.823	22166
864.954	22067
865.086	22177
865.217	22048
865.349	22010
865.48	22006
865.612	22093
865.743	22242
865.875	22048
866.006	22010
866.137	22109
866.269	22078
866.4	21937
866.531	21998
866.662	21895
866.793	21915
866.924	21926
867.055	22036
867.186	22013
867.317	21945
867.448	21937
867.579	21941
867.71	21922
867.841	21819
867.972	21915
868.103	21911
868.233	21998
868.364	21979
868.495	22154
868.625	22120
868.756	22398
868.886	22200
869.017	22219
869.147	22421
869.278	22253
869.408	22371
869.539	22162
869.669	22333
869.799	22284
869.929	22253
870.06	22344
870.19	22577
870.32	22588
870.45	22523
870.58	22630
870.71	22733
870.84	22687
870.97	22577
871.1	22645
871.23	22968
871.36	22854
871.489	22752
871.619	22900
871.749	22812
871.879	22900
872.008	23025
872.138	22866
872.267	22759
872.397	22744
872.526	22755
872.656	22668
872.785	22733
872.915	22778
873.044	22919
873.173	22892
873.303	22915
873.432	22938
873.561	22968
873.69	22892
873.819	22824
873.948	22896
874.077	22881
874.206	22904
874.335	22850
874.464	22908
874.593	23166
874.722	22976
874.851	23052
874.979	23090
875.108	23071
875.237	23094
875.365	23010
875.494	23067
875.623	23121
875.751	22866
875.88	23060
876.008	23242
876.136	23318
876.265	23562
876.393	23608
876.521	23520
876.65	23516
876.778	23497
876.906	23414
877.034	23311
877.162	23395
877.29	23459
877.418	23497
877.546	23417
877.674	23341
877.802	23391
877.93	23512
878.058	23452
878.185	23261
878.313	23406
878.441	23410
878.568	23227
878.696	23433
878.824	23455
878.951	23592
879.079	23535
879.206	23733
879.333	23543
879.461	23455
879.588	23505
879.715	23463
879.842	23752
879.97	23421
880.097	23258
880.224	23231
880.351	23250
880.478	23143
880.605	23132
880.732	23284
880.859	23429
880.986	23269
881.112	23265
881.239	23105
881.366	23022
881.493	22900
881.619	22752
881.746	22736
881.872	22778
881.999	22607
882.125	22672
882.252	22710
882.378	22679
882.505	22908
882.631	22763
882.757	22466
882.883	22584
883.01	22443
883.136	22413
883.262	22367
883.388	22280
883.514	22470
883.64	22565
883.766	22299
883.892	22265
884.018	22284
884.143	22348
884.269	22550
884.395	22223
884.52	22048
884.646	22116
884.772	22010
884.897	21869
885.023	22112
885.148	22207
885.274	22299
885.399	22242
885.524	22120
885.65	22169
885.775	22230
885.9	22097
886.025	22105
886.15	22196
886.275	22048
886.4	22044
886.525	22067
886.65	22006
886.775	21857
886.9	22207
887.025	22329
887.149	22032
887.274	21983
887.399	21724
887.523	21888
887.648	21918
887.773	21739
887.897	21854
888.021	21793
888.146	21797
888.27	21937
888.395	21835
888.519	21751
888.643	21926
888.767	21880
888.891	21797
889.015	21667
889.139	21671
889.263	21542
889.387	21648
889.511	21751
889.635	21842
889.759	21717
889.883	21656
890.006	21667
890.13	21785
890.254	21606
890.377	21557
890.501	21435
890.624	21428
890.748	21382
890.871	21249
890.995	21195
891.118	21195
891.241	21184
891.364	21176
891.488	21199
891.611	21070
891.734	21180
891.857	21207
891.98	21146
892.103	21264
892.226	21211
892.349	21165
892.471	21005
892.594	21127
892.717	21028
892.839	21013
892.962	21066
893.085	21192
893.207	21127
893.33	21051
893.452	21001
893.575	21173
893.697	21066
893.819	21264
893.941	21382
894.064	21085
894.186	21058
894.308	21001
894.43	21199
894.552	21173
894.674	21176
894.796	20933
894.918	20990
895.04	20956
895.161	21055
895.283	21165
895.405	21017
895.526	21066
895.648	20979
895.769	21104
895.891	21116
896.012	21135
896.134	20944
896.255	21100
896.376	21070
896.498	21077
896.619	21036
896.74	21070
896.861	21165
896.982	21435
897.103	21481
897.224	21359
897.345	21252
897.466	21207
897.587	21321
897.708	21447
897.828	21504
897.949	21131
898.07	21066
898.19	21176
898.311	21332
898.431	21264
898.552	21154
898.672	21310
898.792	21306
898.913	21264
899.033	21119
899.153	21093
899.273	20986
899.393	21043
899.513	21001
899.633	20918
899.753	20998
899.873	20872
899.993	20895
900.113	20986
900.232	20952
900.352	20891
900.472	20876
900.591	20815
900.711	20830
900.83	20712
900.95	20876
901.069	20872
901.189	20720
901.308	20469
901.427	20351
901.546	20305
901.665	20233
901.784	20461
901.904	20180
902.023	20172
902.141	19799
902.26	19963
902.379	19951
902.498	19902
902.617	19746
902.735	19868
902.854	19860
902.973	19807
903.091	19491
903.21	19525
903.328	19453
903.446	19430
903.565	19316
903.683	19331
903.801	19122
903.919	19206
904.038	19225
904.156	19091
904.274	19110
904.392	18958
904.51	18989
904.627	19050
904.745	19126
904.863	19088
904.981	18852
905.098	18726
905.216	18707
905.334	18692
905.451	18749
905.569	18688
905.686	18700
905.803	18711
905.921	18441
906.038	18574
906.155	18479
906.272	18513
906.389	18410
906.506	18186
906.623	18285
906.74	18292
906.857	18049
906.974	18190
907.091	18327
907.208	18266
907.324	18388
907.441	18148
907.557	18057
907.674	18015
907.79	17916
907.907	17828
908.023	17988
908.139	17942
908.256	17901
908.372	17878
908.488	17817
908.604	17745
908.72	17619
908.836	17676
908.952	17665
909.068	17767
909.184	17836
909.3	17657
909.415	17649
909.531	17661
909.647	17376
909.762	17326
909.878	17387
909.993	17433
910.108	17326
910.224	17299
910.339	17360
910.454	17258
910.57	17189
910.685	17102
910.8	17421
910.915	17345
911.03	17067
911.145	16980
911.259	16877
911.374	16957
911.489	16862
911.604	16744
911.718	16713
911.833	16698
911.947	16679
912.062	16527
912.176	16622
912.291	16683
912.405	16653
912.519	16847
912.633	16774
912.748	16713
912.862	16645
912.976	16538
913.09	16367
913.204	16409
913.318	16508
913.431	16493
913.545	16516
913.659	16588
913.772	16417
913.886	16242
914	16268
914.113	16379
914.226	16440
914.34	16402
914.453	16211
914.566	16322
914.68	16196
914.793	16150
914.906	15964
915.019	15808
915.132	15808
915.245	15789
915.358	15774
915.47	15873
915.583	15880
915.696	15918
915.809	15968
915.921	15922
916.034	15918
916.146	15793
916.259	15747
916.371	15911
916.483	15800
916.595	15713
916.708	15644
916.82	15698
916.932	15614
917.044	15728
917.156	15606
917.268	15466
917.38	15511
917.491	15420
917.603	15469
917.715	15587
917.826	15572
917.938	15336
918.049	15340
918.161	15488
918.272	15530
918.384	15526
918.495	15344
918.606	15260
918.717	15184
918.828	15195
918.939	15218
919.05	15131
919.161	15233
919.272	14933
919.383	15066
919.494	15279
919.604	15458
919.715	15112
919.826	15116
919.936	15272
920.047	15321
920.157	15127
920.267	15351
920.378	15116
920.488	15138
920.598	15260
920.708	15481
920.818	15321
920.928	15291
921.038	15367
921.148	15454
921.258	15047
921.368	15036
921.477	14952
921.587	14804
921.697	14746
921.806	14899
921.916	14720
922.025	14610
922.134	14617
922.244	14503
922.353	14454
922.462	14511
922.571	14404
922.68	14157
922.789	14172
922.898	14290
923.007	14161
923.116	14271
923.224	14111
923.333	14164
923.442	13997
923.55	13982
923.659	14031
923.767	14016
923.876	14008
923.984	14005
924.092	13947
924.201	13917
924.309	13970
924.417	13936
924.525	13746
924.633	13852
924.741	14632
924.849	13681
924.956	13753
925.064	13681
925.172	13487
925.279	13556
925.387	13499
925.494	13441
925.602	13643
925.709	13586
925.816	13407
925.924	13506
926.031	13559
926.138	13411
926.245	13506
926.352	13426
926.459	13613
926.566	13597
926.673	13491
926.779	13266
926.886	13149
926.993	13160
927.099	13126
927.206	13000
927.312	12977
927.419	13091
927.525	13114
927.631	13084
927.737	12939
927.843	12875
927.95	12722
928.056	12958
928.162	12958
928.267	12905
928.373	13655
928.479	12909
928.585	12627
928.69	12810
928.796	12871
928.901	12802
929.007	12654
929.112	12875
929.218	12700
929.323	12646
929.428	12547
929.533	12715
929.638	12486
929.743	12547
929.848	12597
929.953	12566
930.058	12517
930.163	12292
930.267	12323
930.372	12403
930.477	12285
930.581	12467
930.685	12315
930.79	12178
930.894	12194
930.998	12167
931.103	12292
931.207	11908
931.311	11855
931.415	11790
931.519	11501
931.623	11516
