Data from test_V78500241_780.txt Node
Date: Fri Mar 25 15:47:12 CST 2022
User: usil
Spectrometer: V785-0024
Trigger mode: 0
Integration Time (sec): 4.000000E-1
Scans to average: 1
Nonlinearity correction enabled: false
Boxcar width: 0
Storing dark spectrum: false
XAxis mode: Wavelengths
Number of Pixels in Spectrum: 1024
>>>>>Begin Spectral Data<<<<<
801.071	27568
801.214	27599
801.356	27249
801.499	27252
801.641	27039
801.783	27127
801.926	27184
802.068	27089
802.211	27032
802.353	27039
802.496	26845
802.638	26785
802.78	26804
802.923	26746
803.065	26697
803.208	26807
803.35	26811
803.492	26982
803.635	27024
803.777	26979
803.919	27100
804.061	27317
804.204	27043
804.346	26914
804.488	26902
804.63	26998
804.773	26804
804.915	26998
805.057	27036
805.199	27055
805.341	26967
805.483	27104
805.626	27154
805.768	27032
805.91	27211
806.052	27131
806.194	27066
806.336	27367
806.478	27058
806.62	27138
806.762	27264
806.904	27241
807.046	27637
807.188	27622
807.33	27561
807.472	27641
807.614	27496
807.756	27408
807.898	27291
808.04	27154
808.182	27389
808.324	27351
808.465	27382
808.607	27648
808.749	27720
808.891	27762
809.033	27914
809.174	27911
809.316	27766
809.458	27682
809.6	27835
809.741	27819
809.883	27827
810.025	27857
810.166	28021
810.308	28048
810.45	27941
810.591	28101
810.733	27766
810.875	27743
811.016	27625
811.158	27705
811.299	27934
811.441	27907
811.582	27956
811.724	27770
811.865	27587
812.007	27774
812.148	27701
812.29	27797
812.431	27808
812.573	28143
812.714	28078
812.855	28265
812.997	28367
813.138	28542
813.279	28421
813.421	28226
813.562	28306
813.703	27972
813.845	27983
813.986	27728
814.127	27675
814.268	27492
814.41	27511
814.551	27435
814.692	27473
814.833	27211
814.974	27302
815.115	27488
815.256	27405
815.397	27336
815.539	27321
815.68	27302
815.821	27188
815.962	27199
816.103	27043
816.244	27039
816.385	27104
816.526	27047
816.666	26872
816.807	26697
816.948	26754
817.089	26887
817.23	26697
817.371	26750
817.512	26689
817.653	26777
817.793	26590
817.934	26754
818.075	26667
818.216	26708
818.356	26708
818.497	26526
818.638	26442
818.778	26408
818.919	26370
819.06	26571
819.2	26613
819.341	26716
819.481	26712
819.622	26796
819.762	27070
819.903	26990
820.043	26853
820.184	26883
820.324	26750
820.465	26910
820.605	26777
820.746	26845
820.886	26571
821.026	26754
821.167	26864
821.307	26823
821.447	26735
821.588	26804
821.728	26625
821.868	26351
822.008	26142
822.149	26252
822.289	26271
822.429	26031
822.569	25833
822.709	25841
822.849	25742
822.99	25750
823.13	25757
823.27	25594
823.41	25419
823.55	25434
823.69	25533
823.83	25502
823.97	25472
824.11	25232
824.25	25202
824.389	25251
824.529	25388
824.669	25179
824.809	25479
824.949	25575
825.089	25476
825.228	25411
825.368	25213
825.508	25244
825.648	25187
825.787	25312
825.927	25255
826.067	25099
826.206	25095
826.346	25282
826.485	25263
826.625	25255
826.765	25282
826.904	25206
827.044	24958
827.183	24932
827.323	24875
827.462	25076
827.601	24882
827.741	24825
827.88	24886
828.02	24707
828.159	24928
828.298	25000
828.437	24954
828.577	25019
828.716	24909
828.855	24825
828.994	24559
829.134	24658
829.273	24566
829.412	24505
829.551	24540
829.69	24604
829.829	24696
829.968	24673
830.107	24582
830.246	24555
830.385	24646
830.524	24612
830.663	24429
830.802	24281
830.941	24197
831.08	24186
831.219	24308
831.357	24384
831.496	24391
831.635	24148
831.774	24136
831.913	24121
832.051	23901
832.19	23992
832.329	23961
832.467	23954
832.606	23824
832.744	23843
832.883	23851
833.022	23927
833.16	23920
833.299	24068
833.437	24011
833.576	24015
833.714	23923
833.852	23969
833.991	24095
834.129	24015
834.267	24136
834.406	24026
834.544	24076
834.682	23950
834.821	23813
834.959	24178
835.097	23855
835.235	24022
835.373	23935
835.511	23828
835.65	23908
835.788	23752
835.926	23608
836.064	23630
836.202	23718
836.34	23665
836.478	23790
836.615	23813
836.753	23805
836.891	23813
837.029	23798
837.167	23615
837.305	23722
837.443	23665
837.58	23646
837.718	23668
837.856	23630
837.993	23535
838.131	23642
838.269	23512
838.406	23520
838.544	23395
838.681	23349
838.819	23174
838.956	23181
839.094	23124
839.231	23178
839.369	23284
839.506	23505
839.643	23277
839.781	23022
839.918	23086
840.055	23022
840.193	22976
840.33	23033
840.467	23010
840.604	23083
840.742	23303
840.879	22949
841.016	22911
841.153	23006
841.29	22987
841.427	22980
841.564	23075
841.701	22972
841.838	22961
841.975	22839
842.112	23014
842.249	22858
842.385	22782
842.522	22961
842.659	22957
842.796	22675
842.933	22767
843.069	22752
843.206	22660
843.343	22843
843.479	22801
843.616	22767
843.752	22569
843.889	22561
844.025	22645
844.162	22462
844.298	22637
844.435	22447
844.571	22462
844.708	22538
844.844	22656
844.98	22698
845.117	22588
845.253	22314
845.389	22382
845.525	22447
845.661	22413
845.798	22249
845.934	22291
846.07	22257
846.206	22325
846.342	22306
846.478	22219
846.614	22177
846.75	21915
846.886	21934
847.022	22055
847.158	21915
847.294	22013
847.429	22059
847.565	21964
847.701	22211
847.837	21778
847.972	21629
848.108	21880
848.244	21899
848.379	21603
848.515	21599
848.65	21561
848.786	21701
848.921	21511
849.057	21660
849.192	21705
849.328	21705
849.463	21583
849.598	21500
849.734	21428
849.869	21454
850.004	21313
850.14	21321
850.275	21336
850.41	21283
850.545	21401
850.68	21420
850.815	21378
850.95	21359
851.085	21382
851.22	21382
851.355	21355
851.49	21332
851.625	21393
851.76	21302
851.895	21268
852.03	21325
852.165	21378
852.299	21481
852.434	21485
852.569	21344
852.703	21355
852.838	21393
852.973	21454
853.107	21519
853.242	21348
853.376	21173
853.511	21127
853.645	21104
853.78	21306
853.914	21272
854.048	21108
854.183	21058
854.317	21188
854.451	21317
854.585	21070
854.72	21230
854.854	21252
854.988	21085
855.122	21055
855.256	21119
855.39	21169
855.524	21150
855.658	21203
855.792	21188
855.926	21275
856.06	21154
856.194	21378
856.327	21176
856.461	21264
856.595	21138
856.729	21119
856.862	21173
856.996	21214
857.13	21173
857.263	21298
857.397	21222
857.53	21173
857.664	21218
857.797	21287
857.931	21291
858.064	21127
858.197	21294
858.331	21135
858.464	21135
858.597	20990
858.731	21256
858.864	21051
858.997	21142
859.13	21332
859.263	21157
859.396	21393
859.529	21233
859.662	21195
859.795	21093
859.928	21161
860.061	21329
860.194	21249
860.327	21279
860.46	21150
860.592	21393
860.725	21386
860.858	21294
860.99	21169
861.123	21146
861.256	21112
861.388	21188
861.521	21797
861.653	21211
861.786	20941
861.918	21028
862.05	21070
862.183	20960
862.315	21024
862.447	21256
862.58	21043
862.712	20998
862.844	20929
862.976	20891
863.108	20937
863.24	21485
863.372	20659
863.504	20845
863.636	20948
863.768	20815
863.9	20876
864.032	20762
864.164	20777
864.296	20986
864.428	21036
864.559	20925
864.691	20906
864.823	20857
864.954	20933
865.086	20910
865.217	20834
865.349	20743
865.48	20773
865.612	20864
865.743	20960
865.875	20758
866.006	20861
866.137	20788
866.269	20819
866.4	20781
866.531	20731
866.662	20689
866.793	20826
866.924	20727
867.055	20697
867.186	20705
867.317	20739
867.448	20545
867.579	20609
867.71	20583
867.841	20689
867.972	20651
868.103	20773
868.233	20765
868.364	20674
868.495	20895
868.625	20842
868.756	21074
868.886	20967
869.017	20952
869.147	21005
869.278	21070
869.408	21066
869.539	20895
869.669	21028
869.799	21013
869.929	21062
870.06	21138
870.19	21233
870.32	21291
870.45	21340
870.58	21306
870.71	21389
870.84	21401
870.97	21382
871.1	21435
871.23	21504
871.36	21496
871.489	21485
871.619	21424
871.749	21428
871.879	21622
872.008	21557
872.138	21633
872.267	21660
872.397	21420
872.526	21431
872.656	21488
872.785	21363
872.915	21538
873.044	21652
873.173	21538
873.303	21595
873.432	21587
873.561	21747
873.69	21629
873.819	21641
873.948	21675
874.077	21523
874.206	21500
874.335	21523
874.464	21682
874.593	21762
874.722	21766
874.851	21831
874.979	21892
875.108	21838
875.237	21808
875.365	21732
875.494	21800
875.623	21842
875.751	21694
875.88	21781
876.008	21899
876.136	22021
876.265	22234
876.393	22265
876.521	22230
876.65	22272
876.778	22200
876.906	22063
877.034	22147
877.162	22211
877.29	22086
877.418	22166
877.546	22196
877.674	22139
877.802	22135
877.93	22158
878.058	22097
878.185	22063
878.313	22139
878.441	22063
878.568	21983
878.696	22093
878.824	22177
878.951	22268
879.079	22291
879.206	22462
879.333	22219
879.461	22135
879.588	22230
879.715	22348
879.842	22371
879.97	22215
880.097	21968
880.224	22029
880.351	22059
880.478	22002
880.605	22051
880.732	21956
880.859	22204
880.986	21968
881.112	21945
881.239	21865
881.366	21728
881.493	21705
881.619	21454
881.746	21469
881.872	21561
881.999	21538
882.125	21481
882.252	21603
882.378	21583
882.505	21724
882.631	21481
882.757	21268
882.883	21431
883.01	21119
883.136	21165
883.262	21146
883.388	21157
883.514	21355
883.64	21283
883.766	21237
883.892	21036
884.018	21077
884.143	21230
884.269	21260
884.395	20845
884.52	20876
884.646	20914
884.772	20788
884.897	20830
885.023	20925
885.148	20979
885.274	20994
885.399	21043
885.524	21001
885.65	20914
885.775	20902
885.9	20952
886.025	21009
886.15	21032
886.275	20804
886.4	20804
886.525	20815
886.65	20796
886.775	20868
886.9	20960
887.025	21119
887.149	20792
887.274	20720
887.399	20720
887.523	20606
887.648	20701
887.773	20644
887.897	20716
888.021	20731
888.146	20629
888.27	20796
888.395	20811
888.519	20731
888.643	20800
888.767	20762
888.891	20590
889.015	20492
889.139	20568
889.263	20415
889.387	20617
889.511	20758
889.635	20564
889.759	20362
889.883	20465
890.006	20396
890.13	20522
890.254	20461
890.377	20381
890.501	20278
890.624	20305
890.748	20290
890.871	20142
890.995	19997
891.118	20001
891.241	20107
891.364	20039
891.488	20233
891.611	19967
891.734	20020
891.857	20119
891.98	20046
892.103	20130
892.226	19986
892.349	20054
892.471	19803
892.594	19978
892.717	20024
892.839	19913
892.962	20027
893.085	19970
893.207	19902
893.33	19864
893.452	19807
893.575	20065
893.697	19887
893.819	20153
893.941	20073
894.064	20092
894.186	19845
894.308	19822
894.43	20001
894.552	20084
894.674	20081
894.796	19860
894.918	19932
895.04	19856
895.161	19989
895.283	19982
895.405	19879
895.526	20001
895.648	19932
895.769	19921
895.891	19932
896.012	20138
896.134	19974
896.255	19993
896.376	19982
896.498	19928
896.619	19970
896.74	20096
896.861	19982
896.982	20275
897.103	20465
897.224	20343
897.345	20111
897.466	20092
897.587	20153
897.708	20275
897.828	20172
897.949	20202
898.07	20069
898.19	20142
898.311	20214
898.431	20012
898.552	20290
898.672	20320
898.792	20377
898.913	20210
899.033	20073
899.153	20008
899.273	19921
899.393	19890
899.513	19932
899.633	19902
899.753	20065
899.873	19887
899.993	19993
900.113	19967
900.232	19883
900.352	19909
900.472	19795
900.591	19761
900.711	19780
900.83	19613
900.95	19666
901.069	19822
901.189	19662
901.308	19407
901.427	19259
901.546	19282
901.665	19278
901.784	19327
901.904	19263
902.023	19076
902.141	18867
902.26	18825
902.379	18932
902.498	18848
902.617	18768
902.735	18798
902.854	18806
902.973	18787
903.091	18578
903.21	18483
903.328	18551
903.446	18407
903.565	18388
903.683	18311
903.801	18216
903.919	18308
904.038	18228
904.156	18228
904.274	18129
904.392	18026
904.51	18026
904.627	18106
904.745	17954
904.863	18022
904.981	17912
905.098	17699
905.216	17718
905.334	17828
905.451	17703
905.569	17737
905.686	17714
905.803	17691
905.921	17562
906.038	17604
906.155	17657
906.272	17398
906.389	17482
906.506	17265
906.623	17299
906.74	17250
906.857	17216
906.974	17189
907.091	17353
907.208	17379
907.324	17356
907.441	17124
907.557	17098
907.674	16892
907.79	16889
907.907	16949
908.023	16934
908.139	16965
908.256	16915
908.372	16816
908.488	16881
908.604	16736
908.72	16729
908.836	16694
908.952	16687
909.068	16744
909.184	16782
909.3	16717
909.415	16683
909.531	16755
909.647	16356
909.762	16413
909.878	16466
909.993	16428
910.108	16379
910.224	16394
910.339	16398
910.454	16291
910.57	16192
910.685	16162
910.8	16455
910.915	16306
911.03	16249
911.145	16063
911.259	15987
911.374	16044
911.489	15934
911.604	15934
911.718	15728
911.833	15709
911.947	15781
912.062	15663
912.176	15778
912.291	15823
912.405	15861
912.519	15964
912.633	15907
912.748	15747
912.862	15800
912.976	15564
913.09	15431
913.204	15671
913.318	15656
913.431	15629
913.545	15709
913.659	15644
913.772	15466
913.886	15412
914	15275
914.113	15389
914.226	15511
914.34	15507
914.453	15294
914.566	15428
914.68	15275
914.793	15325
914.906	15043
915.019	14948
915.132	14899
915.245	14918
915.358	14994
915.47	15001
915.583	14944
915.696	15112
915.809	15108
915.921	15157
916.034	14963
916.146	14823
916.259	14921
916.371	14971
916.483	14906
916.595	14849
916.708	14838
916.82	14864
916.932	14724
917.044	14842
917.156	14872
917.268	14678
917.38	14708
917.491	14651
917.603	14727
917.715	14762
917.826	14765
917.938	14571
918.049	14587
918.161	14644
918.272	14792
918.384	14716
918.495	14556
918.606	14495
918.717	14339
918.828	14526
918.939	14393
919.05	14286
919.161	14351
919.272	14240
919.383	14298
919.494	14465
919.604	14552
919.715	14362
919.826	14244
919.936	14324
920.047	14362
920.157	14396
920.267	14651
920.378	14434
920.488	14355
920.598	14617
920.708	14640
920.818	14514
920.928	14457
921.038	14750
921.148	14716
921.258	14396
921.368	14286
921.477	14123
921.587	14065
921.697	14012
921.806	14027
921.916	13970
922.025	13731
922.134	13753
922.244	13681
922.353	13837
922.462	13590
922.571	13647
922.68	13540
922.789	13472
922.898	13381
923.007	13343
923.116	13514
923.224	13419
923.333	13426
923.442	13259
923.55	13270
923.659	13270
923.767	13343
923.876	13206
923.984	13209
924.092	13084
924.201	13164
924.309	13255
924.417	13209
924.525	13114
924.633	13145
924.741	14035
924.849	12916
924.956	12966
925.064	12897
925.172	12798
925.279	12859
925.387	12806
925.494	12726
925.602	12973
925.709	12970
925.816	12749
925.924	12829
926.031	12810
926.138	12719
926.245	12798
926.352	12673
926.459	12848
926.566	12886
926.673	12738
926.779	12570
926.886	12585
926.993	12422
927.099	12437
927.206	12380
927.312	12353
927.419	12391
927.525	12410
927.631	12483
927.737	12357
927.843	12239
927.95	12201
928.056	12171
928.162	12235
928.267	12357
928.373	12867
928.479	12300
928.585	12159
928.69	12216
928.796	12247
928.901	12133
929.007	11931
929.112	12095
929.218	11984
929.323	12060
929.428	11999
929.533	12095
929.638	11794
929.743	11988
929.848	11897
929.953	11927
930.058	11866
930.163	11630
930.267	11714
930.372	11767
930.477	11661
930.581	11847
930.685	11649
930.79	11516
930.894	11608
930.998	11524
931.103	11661
931.207	11368
931.311	11242
931.415	11189
931.519	10957
931.623	10908
