Data from test_V78500241_2770.txt Node
Date: Fri Mar 25 16:00:59 CST 2022
User: usil
Spectrometer: V785-0024
Trigger mode: 0
Integration Time (sec): 4.000000E-1
Scans to average: 1
Nonlinearity correction enabled: false
Boxcar width: 0
Storing dark spectrum: false
XAxis mode: Wavelengths
Number of Pixels in Spectrum: 1024
>>>>>Begin Spectral Data<<<<<
801.071	29174
801.214	28771
801.356	28740
801.499	28672
801.641	28660
801.783	28550
801.926	28679
802.068	28653
802.211	28584
802.353	28523
802.496	28447
802.638	28249
802.78	28257
802.923	28261
803.065	28280
803.208	28341
803.35	28287
803.492	28527
803.635	28557
803.777	28424
803.919	28531
804.061	28946
804.204	28569
804.346	28584
804.488	28577
804.63	28557
804.773	28592
804.915	28710
805.057	28672
805.199	28573
805.341	28691
805.483	28888
805.626	28900
805.768	28782
805.91	28771
806.052	28744
806.194	28763
806.336	28862
806.478	28839
806.62	28729
806.762	28801
806.904	29064
807.046	29162
807.188	29261
807.33	29208
807.472	29208
807.614	29303
807.756	29227
807.898	29071
808.04	29044
808.182	29079
808.324	29212
808.465	29033
808.607	29417
808.749	29383
808.891	29608
809.033	29608
809.174	29547
809.316	29459
809.458	29360
809.6	29463
809.741	29672
809.883	29604
810.025	29703
810.166	29623
810.308	29779
810.45	29722
810.591	29543
810.733	29528
810.875	29478
811.016	29417
811.158	29341
811.299	29554
811.441	29608
811.582	29497
811.724	29490
811.865	29585
812.007	29383
812.148	29604
812.29	29611
812.431	29703
812.573	29874
812.714	29779
812.855	30018
812.997	30068
813.138	30254
813.279	29950
813.421	29969
813.562	29889
813.703	29950
813.845	29703
813.986	29410
814.127	29341
814.268	29193
814.41	29166
814.551	29227
814.692	29250
814.833	29200
814.974	29155
815.115	29242
815.256	29216
815.397	29098
815.539	29052
815.68	29124
815.821	28984
815.962	29041
816.103	29109
816.244	28873
816.385	28896
816.526	28858
816.666	28694
816.807	28474
816.948	28500
817.089	28733
817.23	28573
817.371	28596
817.512	28554
817.653	28466
817.793	28561
817.934	28542
818.075	28500
818.216	28443
818.356	28424
818.497	28554
818.638	28386
818.778	28428
818.919	28272
819.06	28303
819.2	28535
819.341	28470
819.481	28481
819.622	28710
819.762	28850
819.903	28752
820.043	28824
820.184	28691
820.324	28569
820.465	28656
820.605	28706
820.746	28679
820.886	28424
821.026	28618
821.167	28504
821.307	28721
821.447	28599
821.588	28443
821.728	28337
821.868	28166
822.008	28124
822.149	28070
822.289	28063
822.429	27835
822.569	27736
822.709	27827
822.849	27583
822.99	27549
823.13	27538
823.27	27549
823.41	27211
823.55	27226
823.69	27427
823.83	27355
823.97	27291
824.11	27222
824.25	27218
824.389	27184
824.529	27252
824.669	27218
824.809	27291
824.949	27340
825.089	27302
825.228	27195
825.368	27013
825.508	27051
825.648	27096
825.787	27165
825.927	27070
826.067	27055
826.206	27173
826.346	27093
826.485	27096
826.625	27150
826.765	27192
826.904	27112
827.044	26876
827.183	26940
827.323	26682
827.462	26880
827.601	26826
827.741	26937
827.88	26872
828.02	26712
828.159	26811
828.298	26804
828.437	26895
828.577	26861
828.716	26967
828.855	26670
828.994	26461
829.134	26408
829.273	26621
829.412	26484
829.551	26423
829.69	26499
829.829	26537
829.968	26480
830.107	26689
830.246	26549
830.385	26453
830.524	26412
830.663	26389
830.802	26187
830.941	25970
831.08	26062
831.219	26126
831.357	26225
831.496	26332
831.635	26115
831.774	26187
831.913	26050
832.051	25944
832.19	25856
832.329	25921
832.467	25894
832.606	25753
832.744	25689
832.883	25742
833.022	25719
833.16	25772
833.299	25856
833.437	25723
833.576	25822
833.714	25917
833.852	25852
833.991	25906
834.129	25932
834.267	25921
834.406	25890
834.544	25902
834.682	25765
834.821	25902
834.959	25978
835.097	25685
835.235	25940
835.373	25708
835.511	25731
835.65	25761
835.788	25700
835.926	25506
836.064	25346
836.202	25537
836.34	25567
836.478	25849
836.615	25514
836.753	25704
836.891	25670
837.029	25616
837.167	25681
837.305	25544
837.443	25441
837.58	25438
837.718	25441
837.856	25487
837.993	25426
838.131	25552
838.269	25316
838.406	25476
838.544	25293
838.681	25091
838.819	25034
838.956	24859
839.094	24951
839.231	24970
839.369	25091
839.506	25346
839.643	25240
839.781	24932
839.918	24875
840.055	24882
840.193	24867
840.33	24890
840.467	24901
840.604	24958
840.742	25171
840.879	24631
841.016	24745
841.153	24658
841.29	24962
841.427	24863
841.564	24920
841.701	24703
841.838	24856
841.975	24844
842.112	24772
842.249	24688
842.385	24559
842.522	24840
842.659	24646
842.796	24509
842.933	24700
843.069	24665
843.206	24582
843.343	24711
843.479	24582
843.616	24612
843.752	24460
843.889	24308
844.025	24437
844.162	24528
844.298	24418
844.435	24327
844.571	24441
844.708	24342
844.844	24540
844.98	24574
845.117	24517
845.253	24213
845.389	24277
845.525	24315
845.661	24342
845.798	24102
845.934	24068
846.07	24072
846.206	24281
846.342	24281
846.478	23973
846.614	23878
846.75	23809
846.886	23939
847.022	23843
847.158	23961
847.294	23710
847.429	23935
847.565	23843
847.701	24083
847.837	23695
847.972	23554
848.108	23539
848.244	23539
848.379	23501
848.515	23433
848.65	23463
848.786	23509
848.921	23452
849.057	23570
849.192	23554
849.328	23562
849.463	23383
849.598	23391
849.734	23174
849.869	23292
850.004	23189
850.14	23292
850.275	23330
850.41	23189
850.545	23132
850.68	23025
850.815	23166
850.95	23151
851.085	23143
851.22	23318
851.355	23258
851.49	23227
851.625	23121
851.76	23124
851.895	23098
852.03	22995
852.165	23227
852.299	23193
852.434	23223
852.569	23151
852.703	23204
852.838	23246
852.973	23261
853.107	23296
853.242	23071
853.376	23086
853.511	22987
853.645	22980
853.78	23102
853.914	23025
854.048	22923
854.183	22908
854.317	22968
854.451	23185
854.585	22938
854.72	23010
854.854	23197
854.988	22930
855.122	22961
855.256	22835
855.39	22919
855.524	23113
855.658	23094
855.792	23025
855.926	22961
856.06	23090
856.194	23044
856.327	22999
856.461	22938
856.595	22938
856.729	22987
856.862	23014
856.996	23029
857.13	23044
857.263	23140
857.397	23018
857.53	22908
857.664	23052
857.797	23025
857.931	23117
858.064	22934
858.197	22972
858.331	22904
858.464	23022
858.597	22915
858.731	22965
858.864	22930
858.997	23060
859.13	23014
859.263	23075
859.396	22961
859.529	22938
859.662	22987
859.795	22972
859.928	23128
860.061	23140
860.194	23258
860.327	23113
860.46	23022
860.592	23060
860.725	23174
860.858	23155
860.99	23037
861.123	22961
861.256	22934
861.388	22927
861.521	23676
861.653	22942
861.786	22691
861.918	22805
862.05	22820
862.183	22984
862.315	22904
862.447	22889
862.58	22949
862.712	22733
862.844	22687
862.976	22831
863.108	22710
863.24	23132
863.372	22759
863.504	22694
863.636	22626
863.768	22725
863.9	22748
864.032	22618
864.164	22763
864.296	22641
864.428	22850
864.559	22831
864.691	22782
864.823	22729
864.954	22694
865.086	22672
865.217	22535
865.349	22512
865.48	22573
865.612	22596
865.743	22634
865.875	22596
866.006	22542
866.137	22561
866.269	22653
866.4	22546
866.531	22554
866.662	22451
866.793	22527
866.924	22474
867.055	22653
867.186	22474
867.317	22478
867.448	22398
867.579	22535
867.71	22436
867.841	22310
867.972	22618
868.103	22550
868.233	22577
868.364	22516
868.495	22637
868.625	22733
868.756	22809
868.886	22740
869.017	22790
869.147	22904
869.278	22763
869.408	22748
869.539	22733
869.669	22748
869.799	22839
869.929	22824
870.06	22877
870.19	23071
870.32	23147
870.45	23060
870.58	23132
870.71	23208
870.84	23269
870.97	23239
871.1	23170
871.23	23315
871.36	23277
871.489	23250
871.619	23391
871.749	23223
871.879	23463
872.008	23455
872.138	23391
872.267	23322
872.397	23231
872.526	23181
872.656	23204
872.785	23178
872.915	23402
873.044	23455
873.173	23334
873.303	23379
873.432	23383
873.561	23452
873.69	23376
873.819	23216
873.948	23414
874.077	23391
874.206	23250
874.335	23326
874.464	23459
874.593	23615
874.722	23395
874.851	23642
874.979	23577
875.108	23543
875.237	23490
875.365	23459
875.494	23516
875.623	23539
875.751	23509
875.88	23619
876.008	23630
876.136	23733
876.265	23931
876.393	23988
876.521	24133
876.65	24045
876.778	23954
876.906	23901
877.034	23889
877.162	23863
877.29	23889
877.418	23874
877.546	23984
877.674	23885
877.802	23866
877.93	23882
878.058	23813
878.185	23741
878.313	23760
878.441	23790
878.568	23870
878.696	23824
878.824	23882
878.951	23992
879.079	24003
879.206	24273
879.333	24167
879.461	23942
879.588	23935
879.715	24159
879.842	24125
879.97	24007
880.097	23726
880.224	23737
880.351	23737
880.478	23745
880.605	23634
880.732	23790
880.859	23889
880.986	23668
881.112	23783
881.239	23608
881.366	23486
881.493	23391
881.619	23280
881.746	23269
881.872	23440
881.999	23227
882.125	23220
882.252	23296
882.378	23178
882.505	23299
882.631	23124
882.757	22896
882.883	23003
883.01	22904
883.136	22858
883.262	22862
883.388	22748
883.514	22991
883.64	23075
883.766	22820
883.892	22641
884.018	22736
884.143	22881
884.269	22911
884.395	22687
884.52	22577
884.646	22573
884.772	22584
884.897	22531
885.023	22599
885.148	22683
885.274	22790
885.399	22687
885.524	22519
885.65	22523
885.775	22535
885.9	22584
886.025	22675
886.15	22664
886.275	22481
886.4	22561
886.525	22489
886.65	22535
886.775	22409
886.9	22497
887.025	22603
887.149	22519
887.274	22421
887.399	22318
887.523	22329
887.648	22325
887.773	22333
887.897	22337
888.021	22462
888.146	22402
888.27	22341
888.395	22367
888.519	22341
888.643	22219
888.767	22379
888.891	22280
889.015	22048
889.139	22135
889.263	22002
889.387	22204
889.511	22287
889.635	22280
889.759	22074
889.883	22078
890.006	22158
890.13	22131
890.254	22025
890.377	22120
890.501	21842
890.624	21911
890.748	21827
890.871	21698
890.995	21583
891.118	21682
891.241	21599
891.364	21591
891.488	21713
891.611	21595
891.734	21663
891.857	21747
891.98	21614
892.103	21606
892.226	21595
892.349	21515
892.471	21447
892.594	21473
892.717	21648
892.839	21374
892.962	21488
893.085	21542
893.207	21580
893.33	21378
893.452	21523
893.575	21523
893.697	21500
893.819	21652
893.941	21671
894.064	21679
894.186	21583
894.308	21523
894.43	21591
894.552	21606
894.674	21633
894.796	21466
894.918	21553
895.04	21603
895.161	21526
895.283	21572
895.405	21443
895.526	21701
895.648	21348
895.769	21450
895.891	21523
896.012	21553
896.134	21610
896.255	21576
896.376	21401
896.498	21568
896.619	21542
896.74	21466
896.861	21519
896.982	21766
897.103	21915
897.224	21797
897.345	21819
897.466	21580
897.587	21648
897.708	21854
897.828	21774
897.949	21667
898.07	21511
898.19	21663
898.311	21751
898.431	21557
898.552	21648
898.672	21781
898.792	21724
898.913	21686
899.033	21557
899.153	21564
899.273	21386
899.393	21473
899.513	21496
899.633	21405
899.753	21431
899.873	21321
899.993	21397
900.113	21321
900.232	21408
900.352	21462
900.472	21192
900.591	21146
900.711	21192
900.83	21142
900.95	21245
901.069	21249
901.189	21013
901.308	20842
901.427	20765
901.546	20746
901.665	20727
901.784	20678
901.904	20545
902.023	20537
902.141	20339
902.26	20164
902.379	20343
902.498	20225
902.617	20221
902.735	20412
902.854	20153
902.973	20164
903.091	19955
903.21	19784
903.328	19890
903.446	19753
903.565	19620
903.683	19769
903.801	19487
903.919	19628
904.038	19556
904.156	19540
904.274	19464
904.392	19445
904.51	19369
904.627	19411
904.745	19460
904.863	19430
904.981	19160
905.098	19175
905.216	19099
905.334	19152
905.451	19145
905.569	19065
905.686	19244
905.803	19050
905.921	18856
906.038	19034
906.155	18886
906.272	18764
906.389	18814
906.506	18608
906.623	18642
906.74	18612
906.857	18521
906.974	18536
907.091	18703
907.208	18795
907.324	18570
907.441	18471
907.557	18388
907.674	18281
907.79	18342
907.907	18270
908.023	18330
908.139	18304
908.256	18319
908.372	18182
908.488	18285
908.604	18148
908.72	18068
908.836	18068
908.952	17954
909.068	18087
909.184	18083
909.3	17980
909.415	18045
909.531	18072
909.647	17836
909.762	17699
909.878	17771
909.993	17752
910.108	17779
910.224	17657
910.339	17665
910.454	17581
910.57	17611
910.685	17490
910.8	17710
910.915	17752
911.03	17532
911.145	17398
911.259	17395
911.374	17322
911.489	17159
911.604	17170
911.718	17048
911.833	17090
911.947	17022
912.062	16953
912.176	16980
912.291	17090
912.405	17060
912.519	17250
912.633	17246
912.748	16949
912.862	17006
912.976	16900
913.09	16702
913.204	16873
913.318	16835
913.431	16968
913.545	16862
913.659	16911
913.772	16835
913.886	16793
914	16607
914.113	16725
914.226	16835
914.34	16759
914.453	16470
914.566	16573
914.68	16455
914.793	16382
914.906	16333
915.019	16234
915.132	16185
915.245	16325
915.358	16246
915.47	16154
915.583	16124
915.696	16246
915.809	16318
915.921	16329
916.034	16086
916.146	16105
916.259	16109
916.371	16150
916.483	16097
916.595	15975
916.708	16036
916.82	15991
916.932	15915
917.044	15899
917.156	15888
917.268	15713
917.38	15850
917.491	15800
917.603	15789
917.715	15876
917.826	15895
917.938	15675
918.049	15641
918.161	15743
918.272	15842
918.384	15766
918.495	15816
918.606	15500
918.717	15526
918.828	15591
918.939	15625
919.05	15485
919.161	15561
919.272	15355
919.383	15351
919.494	15538
919.604	15686
919.715	15462
919.826	15412
919.936	15447
920.047	15530
920.157	15530
920.267	15610
920.378	15599
920.488	15439
920.598	15633
920.708	15804
920.818	15633
920.928	15606
921.038	15759
921.148	15698
921.258	15542
921.368	15416
921.477	15199
921.587	15150
921.697	15055
921.806	15195
921.916	15036
922.025	14868
922.134	14845
922.244	14804
922.353	14842
922.462	14716
922.571	14670
922.68	14602
922.789	14469
922.898	14393
923.007	14396
923.116	14503
923.224	14469
923.333	14503
923.442	14259
923.55	14259
923.659	14309
923.767	14377
923.876	14191
923.984	14313
924.092	14286
924.201	14168
924.309	14130
924.417	14142
924.525	14176
924.633	14115
924.741	15020
924.849	13868
924.956	14039
925.064	13860
925.172	13761
925.279	13826
925.387	13883
925.494	13875
925.602	13955
925.709	13803
925.816	13712
925.924	13765
926.031	13856
926.138	13746
926.245	13860
926.352	13700
926.459	13776
926.566	13902
926.673	13628
926.779	13567
926.886	13567
926.993	13411
927.099	13419
927.206	13312
927.312	13316
927.419	13426
927.525	13369
927.631	13392
927.737	13217
927.843	13232
927.95	13050
928.056	13282
928.162	13179
928.267	13221
928.373	13670
928.479	13209
928.585	12905
928.69	13034
928.796	13206
928.901	12993
929.007	12875
929.112	13042
929.218	12928
929.323	12882
929.428	12833
929.533	13065
929.638	12810
929.743	12871
929.848	12837
929.953	12817
930.058	12662
930.163	12506
930.267	12513
930.372	12662
930.477	12483
930.581	12825
930.685	12642
930.79	12369
930.894	12483
930.998	12353
931.103	12471
931.207	12140
931.311	12091
931.415	12019
931.519	11741
931.623	11752
