Data from test_V78500241_2303.txt Node
Date: Fri Mar 25 15:57:45 CST 2022
User: usil
Spectrometer: V785-0024
Trigger mode: 0
Integration Time (sec): 4.000000E-1
Scans to average: 1
Nonlinearity correction enabled: false
Boxcar width: 0
Storing dark spectrum: false
XAxis mode: Wavelengths
Number of Pixels in Spectrum: 1024
>>>>>Begin Spectral Data<<<<<
801.071	29060
801.214	29136
801.356	28824
801.499	28820
801.641	28763
801.783	28706
801.926	28873
802.068	28767
802.211	28618
802.353	28668
802.496	28474
802.638	28390
802.78	28443
802.923	28371
803.065	28318
803.208	28348
803.35	28390
803.492	28466
803.635	28767
803.777	28557
803.919	28782
804.061	29113
804.204	28782
804.346	28596
804.488	28622
804.63	28668
804.773	28668
804.915	28729
805.057	28835
805.199	28759
805.341	28713
805.483	28816
805.626	28668
805.768	28801
805.91	28729
806.052	28888
806.194	28782
806.336	29075
806.478	28900
806.62	28995
806.762	28927
806.904	29098
807.046	29467
807.188	29296
807.33	29250
807.472	29398
807.614	29303
807.756	29296
807.898	29044
808.04	29246
808.182	29094
808.324	29174
808.465	29208
808.607	29345
808.749	29528
808.891	29551
809.033	29726
809.174	29619
809.316	29501
809.458	29623
809.6	29341
809.741	29630
809.883	29680
810.025	29764
810.166	29916
810.308	29851
810.45	29790
810.591	29710
810.733	29604
810.875	29608
811.016	29452
811.158	29649
811.299	29760
811.441	29710
811.582	29790
811.724	29733
811.865	29562
812.007	29551
812.148	29611
812.29	29687
812.431	29718
812.573	29828
812.714	30045
812.855	30011
812.997	30053
813.138	30334
813.279	30209
813.421	29973
813.562	29882
813.703	29889
813.845	29786
813.986	29440
814.127	29284
814.268	29330
814.41	29258
814.551	29334
814.692	29436
814.833	29250
814.974	29299
815.115	29364
815.256	29071
815.397	29170
815.539	29197
815.68	29025
815.821	28991
815.962	29086
816.103	29227
816.244	29018
816.385	28919
816.526	28869
816.666	28660
816.807	28675
816.948	28653
817.089	28691
817.23	28626
817.371	28660
817.512	28664
817.653	28596
817.793	28744
817.934	28527
818.075	28679
818.216	28691
818.356	28421
818.497	28470
818.638	28432
818.778	28341
818.919	28474
819.06	28466
819.2	28615
819.341	28649
819.481	28440
819.622	28850
819.762	28976
819.903	28896
820.043	28881
820.184	28797
820.324	28866
820.465	28805
820.605	28748
820.746	28824
820.886	28546
821.026	28816
821.167	28603
821.307	28748
821.447	28721
821.588	28504
821.728	28497
821.868	28371
822.008	28177
822.149	28128
822.289	28112
822.429	27778
822.569	27873
822.709	27766
822.849	27614
822.99	27580
823.13	27644
823.27	27542
823.41	27386
823.55	27401
823.69	27378
823.83	27466
823.97	27424
824.11	27264
824.25	27260
824.389	27306
824.529	27302
824.669	27363
824.809	27325
824.949	27313
825.089	27523
825.228	27389
825.368	27230
825.508	27154
825.648	27108
825.787	27116
825.927	27192
826.067	27001
826.206	27123
826.346	27214
826.485	27226
826.625	27169
826.765	27317
826.904	27119
827.044	26937
827.183	26982
827.323	26880
827.462	26963
827.601	26804
827.741	26891
827.88	26956
828.02	26678
828.159	26921
828.298	26937
828.437	26857
828.577	26967
828.716	26967
828.855	26781
828.994	26621
829.134	26617
829.273	26602
829.412	26587
829.551	26560
829.69	26473
829.829	26602
829.968	26594
830.107	26583
830.246	26488
830.385	26465
830.524	26511
830.663	26343
830.802	26328
830.941	26187
831.08	26153
831.219	26157
831.357	26221
831.496	26362
831.635	26096
831.774	26126
831.913	25955
832.051	25982
832.19	25925
832.329	26103
832.467	25784
832.606	25704
832.744	25791
832.883	25845
833.022	25852
833.16	25772
833.299	25807
833.437	25898
833.576	26024
833.714	25993
833.852	25906
833.991	25879
834.129	26058
834.267	25944
834.406	25925
834.544	25963
834.682	25860
834.821	25772
834.959	26050
835.097	25830
835.235	25795
835.373	25917
835.511	25909
835.65	25693
835.788	25803
835.926	25712
836.064	25502
836.202	25594
836.34	25666
836.478	25738
836.615	25677
836.753	25715
836.891	25830
837.029	25624
837.167	25708
837.305	25552
837.443	25495
837.58	25472
837.718	25571
837.856	25525
837.993	25521
838.131	25464
838.269	25388
838.406	25510
838.544	25274
838.681	25194
838.819	25145
838.956	25015
839.094	24863
839.231	25069
839.369	25126
839.506	25324
839.643	25213
839.781	24890
839.918	24848
840.055	24897
840.193	24977
840.33	24787
840.467	24856
840.604	24932
840.742	25095
840.879	24848
841.016	24905
841.153	24772
841.29	24985
841.427	24810
841.564	24852
841.701	24916
841.838	24802
841.975	24673
842.112	24745
842.249	24669
842.385	24745
842.522	24882
842.659	24833
842.796	24616
842.933	24597
843.069	24517
843.206	24612
843.343	24715
843.479	24719
843.616	24635
843.752	24388
843.889	24403
844.025	24509
844.162	24391
844.298	24589
844.435	24441
844.571	24391
844.708	24475
844.844	24620
844.98	24578
845.117	24540
845.253	24422
845.389	24251
845.525	24369
845.661	24277
845.798	24148
845.934	24125
846.07	24117
846.206	24091
846.342	24163
846.478	24087
846.614	23950
846.75	23904
846.886	23866
847.022	23870
847.158	23897
847.294	23783
847.429	23859
847.565	23859
847.701	24045
847.837	23707
847.972	23539
848.108	23646
848.244	23710
848.379	23585
848.515	23395
848.65	23459
848.786	23379
848.921	23467
849.057	23554
849.192	23539
849.328	23543
849.463	23349
849.598	23334
849.734	23402
849.869	23467
850.004	23212
850.14	23299
850.275	23170
850.41	23136
850.545	23022
850.68	23208
850.815	23250
850.95	23239
851.085	23398
851.22	23204
851.355	23151
851.49	23162
851.625	23094
851.76	23147
851.895	23147
852.03	23083
852.165	23204
852.299	23318
852.434	23220
852.569	23212
852.703	23227
852.838	23391
852.973	23284
853.107	23311
853.242	23200
853.376	23003
853.511	22927
853.645	23010
853.78	23056
853.914	23003
854.048	23060
854.183	23018
854.317	23143
854.451	23109
854.585	23052
854.72	23044
854.854	23064
854.988	22946
855.122	23018
855.256	23041
855.39	23090
855.524	23044
855.658	23117
855.792	23124
855.926	22976
856.06	23117
856.194	23033
856.327	23109
856.461	22911
856.595	23094
856.729	23022
856.862	23151
856.996	22957
857.13	23159
857.263	23025
857.397	23090
857.53	23075
857.664	23041
857.797	23079
857.931	23197
858.064	23010
858.197	23143
858.331	22854
858.464	22858
858.597	22934
858.731	23029
858.864	23010
858.997	22991
859.13	23136
859.263	23170
859.396	23239
859.529	22957
859.662	22866
859.795	23010
859.928	23121
860.061	23189
860.194	23147
860.327	22987
860.46	22976
860.592	23044
860.725	23037
860.858	23136
860.99	22968
861.123	23033
861.256	22919
861.388	23113
861.521	23745
861.653	22900
861.786	22782
861.918	22854
862.05	22797
862.183	22934
862.315	22938
862.447	23060
862.58	22908
862.712	22626
862.844	22660
862.976	22702
863.108	22733
863.24	23284
863.372	22691
863.504	22706
863.636	22710
863.768	22683
863.9	22790
864.032	22637
864.164	22679
864.296	22675
864.428	22767
864.559	22748
864.691	22763
864.823	22664
864.954	22786
865.086	22660
865.217	22523
865.349	22493
865.48	22645
865.612	22577
865.743	22725
865.875	22565
866.006	22481
866.137	22500
866.269	22626
866.4	22508
866.531	22573
866.662	22348
866.793	22523
866.924	22424
867.055	22561
867.186	22527
867.317	22580
867.448	22386
867.579	22421
867.71	22436
867.841	22363
867.972	22554
868.103	22565
868.233	22523
868.364	22512
868.495	22668
868.625	22656
868.756	22733
868.886	22793
869.017	22607
869.147	22866
869.278	22805
869.408	22656
869.539	22877
869.669	22740
869.799	22717
869.929	22877
870.06	22763
870.19	23010
870.32	23041
870.45	23064
870.58	23064
870.71	23292
870.84	23170
870.97	23060
871.1	23086
871.23	23341
871.36	23402
871.489	23250
871.619	23227
871.749	23341
871.879	23398
872.008	23535
872.138	23383
872.267	23391
872.397	23326
872.526	23254
872.656	23151
872.785	23216
872.915	23341
873.044	23490
873.173	23379
873.303	23459
873.432	23391
873.561	23379
873.69	23474
873.819	23326
873.948	23387
874.077	23387
874.206	23277
874.335	23383
874.464	23478
874.593	23623
874.722	23535
874.851	23623
874.979	23634
875.108	23562
875.237	23531
875.365	23436
875.494	23490
875.623	23600
875.751	23505
875.88	23668
876.008	23531
876.136	23714
876.265	23942
876.393	24045
876.521	24030
876.65	24049
876.778	23874
876.906	23882
877.034	23882
877.162	23916
877.29	23756
877.418	23882
877.546	23882
877.674	23832
877.802	23889
877.93	23878
878.058	23935
878.185	23752
878.313	23813
878.441	23840
878.568	23779
878.696	23901
878.824	23821
878.951	24030
879.079	24007
879.206	24228
879.333	24064
879.461	23866
879.588	23977
879.715	24053
879.842	24270
879.97	23908
880.097	23691
880.224	23611
880.351	23687
880.478	23745
880.605	23691
880.732	23703
880.859	23931
880.986	23642
881.112	23691
881.239	23566
881.366	23425
881.493	23440
881.619	23269
881.746	23368
881.872	23197
881.999	23227
882.125	23277
882.252	23296
882.378	23284
882.505	23303
882.631	23178
882.757	23010
882.883	23098
883.01	22938
883.136	22904
883.262	22809
883.388	22778
883.514	22900
883.64	22953
883.766	22930
883.892	22691
884.018	22850
884.143	22801
884.269	23003
884.395	22645
884.52	22424
884.646	22653
884.772	22527
884.897	22485
885.023	22611
885.148	22679
885.274	22809
885.399	22797
885.524	22459
885.65	22641
885.775	22504
885.9	22607
886.025	22831
886.15	22641
886.275	22371
886.4	22466
886.525	22546
886.65	22497
886.775	22497
886.9	22519
887.025	22820
887.149	22516
887.274	22417
887.399	22246
887.523	22428
887.648	22185
887.773	22211
887.897	22466
888.021	22284
888.146	22204
888.27	22348
888.395	22333
888.519	22451
888.643	22390
888.767	22287
888.891	22344
889.015	22139
889.139	22124
889.263	22150
889.387	22196
889.511	22318
889.635	22173
889.759	22147
889.883	22074
890.006	22226
890.13	22196
890.254	22082
890.377	21968
890.501	21960
890.624	21701
890.748	21873
890.871	21728
890.995	21637
891.118	21660
891.241	21614
891.364	21755
891.488	21724
891.611	21606
891.734	21694
891.857	21732
891.98	21694
892.103	21751
892.226	21622
892.349	21526
892.471	21481
892.594	21504
892.717	21595
892.839	21564
892.962	21564
893.085	21572
893.207	21534
893.33	21492
893.452	21428
893.575	21557
893.697	21496
893.819	21530
893.941	21713
894.064	21648
894.186	21477
894.308	21256
894.43	21568
894.552	21629
894.674	21485
894.796	21374
894.918	21515
895.04	21420
895.161	21542
895.283	21656
895.405	21526
895.526	21435
895.648	21340
895.769	21644
895.891	21606
896.012	21633
896.134	21515
896.255	21507
896.376	21515
896.498	21500
896.619	21511
896.74	21515
896.861	21633
896.982	21876
897.103	21987
897.224	21755
897.345	21663
897.466	21553
897.587	21682
897.708	21797
897.828	21656
897.949	21530
898.07	21583
898.19	21564
898.311	21739
898.431	21648
898.552	21614
898.672	21690
898.792	21671
898.913	21717
899.033	21481
899.153	21469
899.273	21496
899.393	21378
899.513	21462
899.633	21526
899.753	21279
899.873	21408
899.993	21393
900.113	21386
900.232	21348
900.352	21230
900.472	21207
900.591	21070
900.711	21245
900.83	21123
900.95	21332
901.069	21199
901.189	21093
901.308	20842
901.427	20670
901.546	20724
901.665	20697
901.784	20636
901.904	20750
902.023	20476
902.141	20298
902.26	20229
902.379	20385
902.498	20259
902.617	20199
902.735	20244
902.854	20172
902.973	20020
903.091	19959
903.21	19860
903.328	19837
903.446	19761
903.565	19795
903.683	19655
903.801	19563
903.919	19643
904.038	19662
904.156	19403
904.274	19597
904.392	19419
904.51	19312
904.627	19388
904.745	19468
904.863	19506
904.981	19175
905.098	19046
905.216	18973
905.334	19080
905.451	19076
905.569	19152
905.686	19122
905.803	19099
905.921	18844
906.038	19065
906.155	18928
906.272	18810
906.389	18642
906.506	18684
906.623	18620
906.74	18570
906.857	18532
906.974	18407
907.091	18681
907.208	18719
907.324	18696
907.441	18536
907.557	18414
907.674	18456
907.79	18148
907.907	18365
908.023	18308
908.139	18338
908.256	18330
908.372	18258
908.488	18159
908.604	18102
908.72	17992
908.836	18064
908.952	18076
909.068	18038
909.184	18163
909.3	18060
909.415	18079
909.531	17958
909.647	17790
909.762	17687
909.878	17627
909.993	17783
910.108	17748
910.224	17680
910.339	17657
910.454	17581
910.57	17478
910.685	17433
910.8	17760
910.915	17638
911.03	17539
911.145	17330
911.259	17254
911.374	17208
911.489	17227
911.604	17124
911.718	17003
911.833	17029
911.947	16900
912.062	16965
912.176	17079
912.291	17098
912.405	17083
912.519	17337
912.633	17208
912.748	17071
912.862	16999
912.976	16881
913.09	16801
913.204	16911
913.318	16854
913.431	16942
913.545	16999
913.659	16957
913.772	16687
913.886	16596
914	16626
914.113	16774
914.226	16759
914.34	16679
914.453	16451
914.566	16664
914.68	16447
914.793	16459
914.906	16268
915.019	16249
915.132	16120
915.245	16154
915.358	16284
915.47	16204
915.583	16120
915.696	16223
915.809	16337
915.921	16276
916.034	16128
916.146	16063
916.259	16223
916.371	16192
916.483	16211
916.595	15987
916.708	16074
916.82	15998
916.932	16025
917.044	15934
917.156	15888
917.268	15804
917.38	15854
917.491	15865
917.603	15770
917.715	15915
917.826	15857
917.938	15743
918.049	15595
918.161	15819
918.272	15953
918.384	15884
918.495	15701
918.606	15591
918.717	15416
918.828	15572
918.939	15618
919.05	15473
919.161	15530
919.272	15386
919.383	15283
919.494	15504
919.604	15785
919.715	15458
919.826	15439
919.936	15469
920.047	15545
920.157	15477
920.267	15618
920.378	15492
920.488	15439
920.598	15690
920.708	15880
920.818	15682
920.928	15557
921.038	15762
921.148	15831
921.258	15264
921.368	15454
921.477	15230
921.587	15119
921.697	15070
921.806	15188
921.916	15024
922.025	14864
922.134	14823
922.244	14807
922.353	14872
922.462	14708
922.571	14613
922.68	14465
922.789	14457
922.898	14415
923.007	14370
923.116	14412
923.224	14446
923.333	14415
923.442	14374
923.55	14286
923.659	14324
923.767	14347
923.876	14210
923.984	14313
924.092	14180
924.201	14195
924.309	14115
924.417	14229
924.525	14039
924.633	14020
924.741	14952
924.849	13928
924.956	14058
925.064	13906
925.172	13811
925.279	13822
925.387	13879
925.494	13826
925.602	13959
925.709	13864
925.816	13769
925.924	13757
926.031	13890
926.138	13803
926.245	13864
926.352	13670
926.459	13708
926.566	13875
926.673	13704
926.779	13533
926.886	13483
926.993	13392
927.099	13362
927.206	13266
927.312	13365
927.419	13339
927.525	13373
927.631	13350
927.737	13206
927.843	13175
927.95	13065
928.056	13171
928.162	13206
928.267	13160
928.373	13738
928.479	13206
928.585	12871
928.69	13156
928.796	13129
928.901	13027
929.007	12825
929.112	13034
929.218	12977
929.323	12947
929.428	12859
929.533	12996
929.638	12871
929.743	12901
929.848	12852
929.953	12791
930.058	12684
930.163	12486
930.267	12570
930.372	12684
930.477	12536
930.581	12817
930.685	12612
930.79	12399
930.894	12479
930.998	12388
931.103	12521
931.207	12095
931.311	12117
931.415	12019
931.519	11760
931.623	11741
