Data from test_V78500241_746.txt Node
Date: Fri Mar 25 15:46:58 CST 2022
User: usil
Spectrometer: V785-0024
Trigger mode: 0
Integration Time (sec): 4.000000E-1
Scans to average: 1
Nonlinearity correction enabled: false
Boxcar width: 0
Storing dark spectrum: false
XAxis mode: Wavelengths
Number of Pixels in Spectrum: 1024
>>>>>Begin Spectral Data<<<<<
801.071	28048
801.214	28040
801.356	27774
801.499	27648
801.641	27526
801.783	27549
801.926	27736
802.068	27625
802.211	27511
802.353	27515
802.496	27268
802.638	27245
802.78	27268
802.923	27294
803.065	27192
803.208	27233
803.35	27211
803.492	27317
803.635	27511
803.777	27405
803.919	27386
804.061	27778
804.204	27450
804.346	27393
804.488	27291
804.63	27397
804.773	27351
804.915	27378
805.057	27641
805.199	27420
805.341	27507
805.483	27580
805.626	27545
805.768	27530
805.91	27496
806.052	27675
806.194	27675
806.336	27717
806.478	27701
806.62	27553
806.762	27629
806.904	27842
807.046	28238
807.188	27975
807.33	28029
807.472	28036
807.614	27895
807.756	28044
807.898	27838
808.04	27774
808.182	27812
808.324	27842
808.465	27854
808.607	28082
808.749	28207
808.891	28291
809.033	28516
809.174	28253
809.316	28268
809.458	28310
809.6	28246
809.741	28325
809.883	28356
810.025	28462
810.166	28497
810.308	28466
810.45	28493
810.591	28428
810.733	28310
810.875	28238
811.016	28215
811.158	28207
811.299	28424
811.441	28497
811.582	28497
811.724	28287
811.865	28284
812.007	28303
812.148	28242
812.29	28249
812.431	28470
812.573	28656
812.714	28843
812.855	28847
812.997	28915
813.138	29044
813.279	29033
813.421	28809
813.562	28790
813.703	28592
813.845	28611
813.986	28188
814.127	28078
814.268	28040
814.41	28048
814.551	27941
814.692	28029
814.833	27842
814.974	27975
815.115	27960
815.256	27823
815.397	27781
815.539	27838
815.68	27709
815.821	27614
815.962	27835
816.103	27675
816.244	27675
816.385	27557
816.526	27564
816.666	27287
816.807	27233
816.948	27275
817.089	27370
817.23	27397
817.371	27367
817.512	27317
817.653	27192
817.793	27207
817.934	27165
818.075	27283
818.216	27222
818.356	27192
818.497	27043
818.638	27028
818.778	26967
818.919	26998
819.06	27089
819.2	27180
819.341	27260
819.481	27192
819.622	27355
819.762	27671
819.903	27450
820.043	27336
820.184	27401
820.324	27359
820.465	27462
820.605	27332
820.746	27298
820.886	27169
821.026	27310
821.167	27431
821.307	27458
821.447	27195
821.588	27264
821.728	27055
821.868	26933
822.008	26765
822.149	26625
822.289	26705
822.429	26503
822.569	26492
822.709	26320
822.849	26145
822.99	26229
823.13	26233
823.27	26248
823.41	26062
823.55	25974
823.69	26062
823.83	26077
823.97	25936
824.11	25803
824.25	25727
824.389	25925
824.529	25879
824.669	25868
824.809	25993
824.949	25864
825.089	26027
825.228	25932
825.368	25712
825.508	25635
825.648	25803
825.787	25757
825.927	25856
826.067	25738
826.206	25769
826.346	25871
826.485	25788
826.625	25879
826.765	25864
826.904	25727
827.044	25434
827.183	25529
827.323	25285
827.462	25510
827.601	25289
827.741	25487
827.88	25571
828.02	25335
828.159	25430
828.298	25407
828.437	25533
828.577	25407
828.716	25559
828.855	25388
828.994	25103
829.134	25118
829.273	25346
829.412	25236
829.551	25065
829.69	25084
829.829	25236
829.968	25247
830.107	25187
830.246	25050
830.385	24943
830.524	25057
830.663	24954
830.802	24817
830.941	24684
831.08	24772
831.219	24886
831.357	24878
831.496	25015
831.635	24844
831.774	24563
831.913	24719
832.051	24661
832.19	24559
832.329	24509
832.467	24517
832.606	24319
832.744	24460
832.883	24528
833.022	24414
833.16	24483
833.299	24372
833.437	24517
833.576	24505
833.714	24525
833.852	24471
833.991	24395
834.129	24612
834.267	24551
834.406	24601
834.544	24464
834.682	24513
834.821	24426
834.959	24673
835.097	24445
835.235	24441
835.373	24509
835.511	24410
835.65	24289
835.788	24258
835.926	24281
836.064	24064
836.202	24171
836.34	24361
836.478	24486
836.615	24327
836.753	24384
836.891	24410
837.029	24232
837.167	24216
837.305	24235
837.443	24186
837.58	24182
837.718	24201
837.856	24209
837.993	24140
838.131	24266
838.269	23973
838.406	24053
838.544	23904
838.681	23855
838.819	23760
838.956	23581
839.094	23615
839.231	23676
839.369	23840
839.506	24079
839.643	23851
839.781	23581
839.918	23573
840.055	23699
840.193	23619
840.33	23539
840.467	23638
840.604	23646
840.742	23737
840.879	23433
841.016	23433
841.153	23516
841.29	23661
841.427	23558
841.564	23512
841.701	23551
841.838	23421
841.975	23467
842.112	23509
842.249	23269
842.385	23292
842.522	23638
842.659	23349
842.796	23185
842.933	23425
843.069	23227
843.206	23273
843.343	23368
843.479	23250
843.616	23368
843.752	23075
843.889	23102
844.025	23185
844.162	23113
844.298	23140
844.435	23193
844.571	23003
844.708	23086
844.844	23315
844.98	23223
845.117	23109
845.253	23060
845.389	22873
845.525	23071
845.661	22805
845.798	22713
845.934	22911
846.07	22828
846.206	22843
846.342	22881
846.478	22854
846.614	22523
846.75	22512
846.886	22485
847.022	22508
847.158	22599
847.294	22489
847.429	22535
847.565	22546
847.701	22809
847.837	22280
847.972	22253
848.108	22367
848.244	22310
848.379	22116
848.515	22063
848.65	22067
848.786	22192
848.921	22173
849.057	22230
849.192	22230
849.328	22097
849.463	22329
849.598	22188
849.734	22051
849.869	22040
850.004	21930
850.14	21987
850.275	21873
850.41	21937
850.545	21854
850.68	21960
850.815	21865
850.95	21895
851.085	22185
851.22	22101
851.355	21846
851.49	21915
851.625	21892
851.76	21968
851.895	21857
852.03	21903
852.165	22006
852.299	21998
852.434	22048
852.569	21975
852.703	22010
852.838	21979
852.973	21968
853.107	22120
853.242	21888
853.376	21823
853.511	21656
853.645	21641
853.78	21880
853.914	21720
854.048	21583
854.183	21652
854.317	21797
854.451	21953
854.585	21755
854.72	21778
854.854	21838
854.988	21675
855.122	21808
855.256	21679
855.39	21724
855.524	21766
855.658	21831
855.792	21857
855.926	21736
856.06	21759
856.194	21854
856.327	21667
856.461	21698
856.595	21618
856.729	21694
856.862	21728
856.996	21831
857.13	21869
857.263	21835
857.397	21857
857.53	21701
857.664	21850
857.797	21842
857.931	21956
858.064	21789
858.197	21895
858.331	21774
858.464	21736
858.597	21622
858.731	21610
858.864	21736
858.997	21724
859.13	21686
859.263	21800
859.396	21895
859.529	21583
859.662	21690
859.795	21690
859.928	21797
860.061	21865
860.194	21949
860.327	21873
860.46	21850
860.592	21762
860.725	21876
860.858	21747
860.99	21793
861.123	21603
861.256	21652
861.388	21743
861.521	22402
861.653	21652
861.786	21534
861.918	21606
862.05	21557
862.183	21610
862.315	21675
862.447	21633
862.58	21675
862.712	21447
862.844	21389
862.976	21488
863.108	21625
863.24	21892
863.372	21363
863.504	21416
863.636	21450
863.768	21386
863.9	21412
864.032	21355
864.164	21344
864.296	21450
864.428	21595
864.559	21454
864.691	21466
864.823	21549
864.954	21443
865.086	21310
865.217	21351
865.349	21146
865.48	21340
865.612	21378
865.743	21454
865.875	21374
866.006	21306
866.137	21332
866.269	21283
866.4	21336
866.531	21355
866.662	21291
866.793	21306
866.924	21268
867.055	21218
867.186	21302
867.317	21192
867.448	21169
867.579	21188
867.71	21313
867.841	21169
867.972	21291
868.103	21211
868.233	21249
868.364	21237
868.495	21264
868.625	21557
868.756	21481
868.886	21408
869.017	21515
869.147	21629
869.278	21603
869.408	21447
869.539	21500
869.669	21557
869.799	21462
869.929	21603
870.06	21538
870.19	21778
870.32	21766
870.45	21861
870.58	21865
870.71	22044
870.84	21968
870.97	21949
871.1	21865
871.23	21956
871.36	22086
871.489	22029
871.619	22082
871.749	22143
871.879	22101
872.008	22173
872.138	22044
872.267	22105
872.397	21953
872.526	21918
872.656	21926
872.785	21888
872.915	22082
873.044	22131
873.173	22150
873.303	22135
873.432	22219
873.561	22211
873.69	22120
873.819	22067
873.948	22158
874.077	22093
874.206	22063
874.335	22029
874.464	22223
874.593	22268
874.722	22207
874.851	22356
874.979	22402
875.108	22394
875.237	22276
875.365	22166
875.494	22226
875.623	22268
875.751	22325
875.88	22382
876.008	22421
876.136	22538
876.265	22683
876.393	22858
876.521	22790
876.65	22847
876.778	22702
876.906	22618
877.034	22672
877.162	22748
877.29	22584
877.418	22786
877.546	22630
877.674	22691
877.802	22500
877.93	22611
878.058	22645
878.185	22489
878.313	22546
878.441	22721
878.568	22554
878.696	22664
878.824	22744
878.951	22759
879.079	22957
879.206	23079
879.333	22869
879.461	22668
879.588	22793
879.715	22744
879.842	22919
879.97	22854
880.097	22508
880.224	22675
880.351	22603
880.478	22672
880.605	22474
880.732	22481
880.859	22706
880.986	22656
881.112	22569
881.239	22379
881.366	22287
881.493	22120
881.619	22131
881.746	22112
881.872	22059
881.999	22002
882.125	21934
882.252	22112
882.378	22086
882.505	22120
882.631	21964
882.757	21770
882.883	21781
883.01	21720
883.136	21759
883.262	21603
883.388	21671
883.514	21759
883.64	21751
883.766	21698
883.892	21561
884.018	21561
884.143	21766
884.269	21789
884.395	21496
884.52	21378
884.646	21428
884.772	21340
884.897	21195
885.023	21310
885.148	21545
885.274	21557
885.399	21568
885.524	21439
885.65	21355
885.775	21405
885.9	21393
886.025	21504
886.15	21458
886.275	21401
886.4	21245
886.525	21298
886.65	21393
886.775	21363
886.9	21462
887.025	21614
887.149	21294
887.274	21161
887.399	21108
887.523	21176
887.648	21157
887.773	20975
887.897	21249
888.021	21207
888.146	21142
888.27	21214
888.395	21184
888.519	21195
888.643	21256
888.767	21199
888.891	21119
889.015	21062
889.139	21028
889.263	20990
889.387	20986
889.511	21055
889.635	21100
889.759	20902
889.883	20887
890.006	20906
890.13	20941
890.254	20975
890.377	20807
890.501	20735
890.624	20640
890.748	20670
890.871	20598
890.995	20617
891.118	20404
891.241	20495
891.364	20514
891.488	20708
891.611	20560
891.734	20644
891.857	20446
891.98	20575
892.103	20545
892.226	20419
892.349	20450
892.471	20343
892.594	20351
892.717	20396
892.839	20396
892.962	20370
893.085	20461
893.207	20514
893.33	20389
893.452	20374
893.575	20495
893.697	20374
893.819	20533
893.941	20579
894.064	20526
894.186	20252
894.308	20324
894.43	20503
894.552	20621
894.674	20594
894.796	20317
894.918	20336
895.04	20389
895.161	20461
895.283	20408
895.405	20248
895.526	20545
895.648	20423
895.769	20495
895.891	20442
896.012	20480
896.134	20476
896.255	20480
896.376	20423
896.498	20377
896.619	20492
896.74	20503
896.861	20511
896.982	20606
897.103	20868
897.224	20686
897.345	20693
897.466	20518
897.587	20571
897.708	20773
897.828	20769
897.949	20686
898.07	20518
898.19	20530
898.311	20754
898.431	20571
898.552	20727
898.672	20579
898.792	20777
898.913	20655
899.033	20530
899.153	20412
899.273	20313
899.393	20385
899.513	20408
899.633	20545
899.753	20381
899.873	20320
899.993	20522
900.113	20240
900.232	20423
900.352	20221
900.472	20180
900.591	20096
900.711	20149
900.83	20043
900.95	20263
901.069	20278
901.189	20115
901.308	19845
901.427	19849
901.546	19719
901.665	19742
901.784	19712
901.904	19666
902.023	19491
902.141	19346
902.26	19206
902.379	19312
902.498	19213
902.617	19141
902.735	19232
902.854	19304
902.973	19099
903.091	19004
903.21	18951
903.328	18859
903.446	18783
903.565	18760
903.683	18661
903.801	18654
903.919	18764
904.038	18707
904.156	18414
904.274	18578
904.392	18433
904.51	18452
904.627	18502
904.745	18464
904.863	18513
904.981	18167
905.098	18178
905.216	18148
905.334	18197
905.451	18209
905.569	18117
905.686	18262
905.803	18224
905.921	17843
906.038	18041
906.155	17965
906.272	17809
906.389	17935
906.506	17691
906.623	17676
906.74	17672
906.857	17646
906.974	17566
907.091	17767
907.208	17748
907.324	17687
907.441	17585
907.557	17440
907.674	17414
907.79	17318
907.907	17379
908.023	17520
908.139	17307
908.256	17448
908.372	17181
908.488	17254
908.604	17181
908.72	17090
908.836	17067
908.952	17041
909.068	17216
909.184	17113
909.3	17079
909.415	17098
909.531	17124
909.647	16873
909.762	16927
909.878	16736
909.993	16889
910.108	16683
910.224	16877
910.339	16790
910.454	16668
910.57	16656
910.685	16478
910.8	16828
910.915	16634
911.03	16626
911.145	16424
911.259	16432
911.374	16474
911.489	16352
911.604	16284
911.718	16147
911.833	16067
911.947	16162
912.062	16002
912.176	16204
912.291	16131
912.405	16124
912.519	16409
912.633	16265
912.748	16226
912.862	16021
912.976	16044
913.09	15816
913.204	15964
913.318	16025
913.431	15994
913.545	15983
913.659	16063
913.772	15930
913.886	15728
914	15724
914.113	15797
914.226	15854
914.34	15816
914.453	15599
914.566	15774
914.68	15679
914.793	15663
914.906	15485
915.019	15344
915.132	15313
915.245	15313
915.358	15389
915.47	15367
915.583	15393
915.696	15424
915.809	15447
915.921	15450
916.034	15306
916.146	15306
916.259	15291
916.371	15241
916.483	15310
916.595	15298
916.708	15123
916.82	15310
916.932	15176
917.044	15036
917.156	15161
917.268	14944
917.38	15108
917.491	15013
917.603	15020
917.715	15146
917.826	15100
917.938	14994
918.049	14823
918.161	15013
918.272	14986
918.384	15005
918.495	14883
918.606	14853
918.717	14724
918.828	14849
918.939	14845
919.05	14750
919.161	14743
919.272	14587
919.383	14644
919.494	14804
919.604	14925
919.715	14765
919.826	14644
919.936	14705
920.047	14800
920.157	14640
920.267	14956
920.378	14819
920.488	14754
920.598	14872
920.708	15207
920.818	14868
920.928	14845
921.038	14956
921.148	14986
921.258	14708
921.368	14571
921.477	14530
921.587	14412
921.697	14412
921.806	14438
921.916	14286
922.025	14145
922.134	14115
922.244	14073
922.353	14161
922.462	13982
922.571	13925
922.68	13734
922.789	13849
922.898	13674
923.007	13708
923.116	13761
923.224	13780
923.333	13655
923.442	13559
923.55	13540
923.659	13571
923.767	13708
923.876	13525
923.984	13525
924.092	13460
924.201	13426
924.309	13510
924.417	13563
924.525	13324
924.633	13441
924.741	14328
924.849	13198
924.956	13411
925.064	13164
925.172	13042
925.279	13156
925.387	13171
925.494	13175
925.602	13362
925.709	13114
925.816	13031
925.924	13141
926.031	13152
926.138	13061
926.245	13050
926.352	12973
926.459	13129
926.566	13103
926.673	13004
926.779	12886
926.886	12905
926.993	12844
927.099	12726
927.206	12623
927.312	12673
927.419	12776
927.525	12715
927.631	12677
927.737	12597
927.843	12517
927.95	12414
928.056	12528
928.162	12525
928.267	12479
928.373	13164
928.479	12559
928.585	12380
928.69	12452
928.796	12464
928.901	12319
929.007	12304
929.112	12395
929.218	12410
929.323	12311
929.428	12365
929.533	12369
929.638	12098
929.743	12224
929.848	12346
929.953	12224
930.058	12117
930.163	11916
930.267	11992
930.372	12091
930.477	11954
930.581	12125
930.685	12003
930.79	11821
930.894	11847
930.998	11794
931.103	11897
931.207	11592
931.311	11490
931.415	11383
931.519	11140
931.623	11235
