Data from test_V78500241_974.txt Node
Date: Fri Mar 25 15:48:32 CST 2022
User: usil
Spectrometer: V785-0024
Trigger mode: 0
Integration Time (sec): 4.000000E-1
Scans to average: 1
Nonlinearity correction enabled: false
Boxcar width: 0
Storing dark spectrum: false
XAxis mode: Wavelengths
Number of Pixels in Spectrum: 1024
>>>>>Begin Spectral Data<<<<<
801.071	28561
801.214	28645
801.356	28200
801.499	28200
801.641	28063
801.783	28109
801.926	28215
802.068	28147
802.211	28032
802.353	28150
802.496	27850
802.638	27850
802.78	27823
802.923	27667
803.065	27694
803.208	27778
803.35	27728
803.492	27876
803.635	27987
803.777	27774
803.919	27941
804.061	28295
804.204	28101
804.346	27964
804.488	27888
804.63	27960
804.773	27903
804.915	28078
805.057	28109
805.199	28097
805.341	28070
805.483	28158
805.626	28082
805.768	28029
805.91	28086
806.052	28242
806.194	28112
806.336	28470
806.478	28139
806.62	28086
806.762	28204
806.904	28424
807.046	28729
807.188	28580
807.33	28580
807.472	28603
807.614	28421
807.756	28550
807.898	28421
808.04	28329
808.182	28394
808.324	28611
808.465	28584
808.607	28615
808.749	28911
808.891	28888
809.033	28904
809.174	29003
809.316	28835
809.458	28763
809.6	28854
809.741	28976
809.883	29033
810.025	29170
810.166	29117
810.308	29212
810.45	29044
810.591	29143
810.733	29037
810.875	28805
811.016	28771
811.158	28736
811.299	29083
811.441	29105
811.582	29151
811.724	28866
811.865	28805
812.007	28816
812.148	28942
812.29	28934
812.431	29094
812.573	29250
812.714	29360
812.855	29452
812.997	29672
813.138	29726
813.279	29520
813.421	29425
813.562	29459
813.703	29273
813.845	29067
813.986	28790
814.127	28782
814.268	28611
814.41	28702
814.551	28603
814.692	28717
814.833	28535
814.974	28531
815.115	28752
815.256	28363
815.397	28550
815.539	28485
815.68	28401
815.821	28401
815.962	28295
816.103	28432
816.244	28253
816.385	28192
816.526	28078
816.666	28013
816.807	27846
816.948	28029
817.089	28013
817.23	27861
817.371	27751
817.512	27930
817.653	27922
817.793	27979
817.934	27892
818.075	27949
818.216	27823
818.356	27895
818.497	27778
818.638	27572
818.778	27736
818.919	27648
819.06	27637
819.2	27751
819.341	27876
819.481	27914
819.622	27994
819.762	28280
819.903	28253
820.043	28093
820.184	28013
820.324	28002
820.465	28147
820.605	27964
820.746	28021
820.886	27739
821.026	28021
821.167	27960
821.307	28067
821.447	28158
821.588	27789
821.728	27804
821.868	27538
822.008	27420
822.149	27306
822.289	27332
822.429	27169
822.569	27093
822.709	27009
822.849	26796
822.99	26880
823.13	26826
823.27	26933
823.41	26697
823.55	26613
823.69	26792
823.83	26792
823.97	26743
824.11	26480
824.25	26507
824.389	26587
824.529	26549
824.669	26571
824.809	26659
824.949	26701
825.089	26667
825.228	26617
825.368	26290
825.508	26461
825.648	26393
825.787	26400
825.927	26625
826.067	26389
826.206	26488
826.346	26469
826.485	26431
826.625	26393
826.765	26503
826.904	26522
827.044	26218
827.183	26153
827.323	26122
827.462	26157
827.601	26100
827.741	26271
827.88	26218
828.02	26043
828.159	26202
828.298	26130
828.437	26202
828.577	26058
828.716	26122
828.855	25997
828.994	25822
829.134	25875
829.273	25784
829.412	25841
829.551	25807
829.69	25822
829.829	25693
829.968	25944
830.107	25864
830.246	25818
830.385	25761
830.524	25795
830.663	25601
830.802	25582
830.941	25438
831.08	25339
831.219	25540
831.357	25662
831.496	25677
831.635	25411
831.774	25285
831.913	25331
832.051	25175
832.19	25225
832.329	25194
832.467	25133
832.606	25031
832.744	25072
832.883	25031
833.022	25129
833.16	25263
833.299	25148
833.437	25327
833.576	25209
833.714	25107
833.852	25126
833.991	25266
834.129	25274
834.267	25198
834.406	25209
834.544	25209
834.682	25251
834.821	25156
834.959	25327
835.097	25168
835.235	25179
835.373	25168
835.511	25122
835.65	25034
835.788	24981
835.926	24852
836.064	24791
836.202	24817
836.34	24852
836.478	24981
836.615	24878
836.753	24985
836.891	25103
837.029	24954
837.167	24954
837.305	24916
837.443	24829
837.58	24783
837.718	24871
837.856	24840
837.993	24658
838.131	24878
838.269	24711
838.406	24798
838.544	24669
838.681	24490
838.819	24464
838.956	24357
839.094	24133
839.231	24391
839.369	24418
839.506	24555
839.643	24536
839.781	24289
839.918	24159
840.055	24190
840.193	24228
840.33	24285
840.467	24338
840.604	24350
840.742	24395
840.879	24129
841.016	24163
841.153	24076
841.29	24251
841.427	24205
841.564	24281
841.701	24167
841.838	24129
841.975	24038
842.112	24106
842.249	23973
842.385	23878
842.522	24114
842.659	24038
842.796	23954
842.933	23916
843.069	23946
843.206	23847
843.343	23980
843.479	23950
843.616	23958
843.752	23802
843.889	23646
844.025	23729
844.162	23657
844.298	23855
844.435	23695
844.571	23714
844.708	23843
844.844	23809
844.98	23866
845.117	23707
845.253	23649
845.389	23722
845.525	23672
845.661	23581
845.798	23307
845.934	23493
846.07	23398
846.206	23452
846.342	23440
846.478	23296
846.614	23273
846.75	23155
846.886	23121
847.022	23334
847.158	23166
847.294	23189
847.429	23136
847.565	23185
847.701	23345
847.837	22923
847.972	22816
848.108	22904
848.244	22915
848.379	22835
848.515	22801
848.65	22763
848.786	22763
848.921	22698
849.057	22839
849.192	22763
849.328	22797
849.463	22782
849.598	22767
849.734	22797
849.869	22618
850.004	22554
850.14	22603
850.275	22618
850.41	22519
850.545	22478
850.68	22428
850.815	22596
850.95	22577
851.085	22679
851.22	22649
851.355	22523
851.49	22451
851.625	22569
851.76	22379
851.895	22394
852.03	22478
852.165	22557
852.299	22546
852.434	22588
852.569	22645
852.703	22542
852.838	22550
852.973	22615
853.107	22637
853.242	22413
853.376	22394
853.511	22318
853.645	22329
853.78	22462
853.914	22322
854.048	22166
854.183	22173
854.317	22375
854.451	22470
854.585	22291
854.72	22276
854.854	22382
854.988	22360
855.122	22310
855.256	22158
855.39	22390
855.524	22386
855.658	22356
855.792	22272
855.926	22409
856.06	22337
856.194	22405
856.327	22200
856.461	22249
856.595	22329
856.729	22291
856.862	22421
856.996	22360
857.13	22352
857.263	22478
857.397	22440
857.53	22325
857.664	22402
857.797	22428
857.931	22451
858.064	22390
858.197	22436
858.331	22352
858.464	22272
858.597	22322
858.731	22341
858.864	22280
858.997	22253
859.13	22291
859.263	22120
859.396	22386
859.529	22337
859.662	22314
859.795	22306
859.928	22424
860.061	22428
860.194	22538
860.327	22337
860.46	22352
860.592	22405
860.725	22535
860.858	22432
860.99	22318
861.123	22261
861.256	22280
861.388	22242
861.521	23029
861.653	22181
861.786	22177
861.918	22067
862.05	22234
862.183	22322
862.315	22188
862.447	22306
862.58	22200
862.712	22082
862.844	22025
862.976	22169
863.108	22070
863.24	22421
863.372	21991
863.504	21953
863.636	22105
863.768	21964
863.9	21968
864.032	22032
864.164	21983
864.296	21998
864.428	22246
864.559	22124
864.691	22166
864.823	22093
864.954	22010
865.086	22112
865.217	21930
865.349	21899
865.48	21823
865.612	21835
865.743	22070
865.875	21956
866.006	21876
866.137	21827
866.269	21922
866.4	21869
866.531	21797
866.662	21842
866.793	21823
866.924	21907
867.055	21934
867.186	21827
867.317	21755
867.448	21739
867.579	21922
867.71	21812
867.841	21797
867.972	21926
868.103	21861
868.233	21717
868.364	21949
868.495	21766
868.625	22044
868.756	22109
868.886	21949
869.017	22139
869.147	22257
869.278	22230
869.408	22242
869.539	22120
869.669	22177
869.799	22139
869.929	22162
870.06	22242
870.19	22333
870.32	22265
870.45	22363
870.58	22402
870.71	22478
870.84	22538
870.97	22390
871.1	22466
871.23	22641
871.36	22546
871.489	22550
871.619	22573
871.749	22565
871.879	22603
872.008	22767
872.138	22679
872.267	22717
872.397	22455
872.526	22497
872.656	22474
872.785	22451
872.915	22748
873.044	22767
873.173	22656
873.303	22729
873.432	22771
873.561	22839
873.69	22615
873.819	22774
873.948	22744
874.077	22645
874.206	22706
874.335	22771
874.464	22892
874.593	22866
874.722	22858
874.851	22968
874.979	23086
875.108	22987
875.237	22736
875.365	22744
875.494	22748
875.623	23033
875.751	22835
875.88	22942
876.008	23079
876.136	23094
876.265	23330
876.393	23391
876.521	23353
876.65	23372
876.778	23288
876.906	23277
877.034	23220
877.162	23277
877.29	23235
877.418	23242
877.546	23341
877.674	23159
877.802	23121
877.93	23254
878.058	23170
878.185	23109
878.313	23124
878.441	23261
878.568	23052
878.696	23155
878.824	23174
878.951	23254
879.079	23341
879.206	23562
879.333	23436
879.461	23337
879.588	23398
879.715	23364
879.842	23471
879.97	23471
880.097	23010
880.224	23022
880.351	23033
880.478	23014
880.605	23079
880.732	23083
880.859	23288
880.986	23083
881.112	22957
881.239	22991
881.366	22873
881.493	22721
881.619	22637
881.746	22565
881.872	22531
881.999	22748
882.125	22592
882.252	22672
882.378	22592
882.505	22687
882.631	22440
882.757	22299
882.883	22329
883.01	22303
883.136	22143
883.262	22226
883.388	22257
883.514	22344
883.64	22367
883.766	22120
883.892	21979
884.018	22086
884.143	22211
884.269	22379
884.395	22086
884.52	21915
884.646	21964
884.772	21888
884.897	21762
885.023	21964
885.148	22025
885.274	22010
885.399	22063
885.524	21960
885.65	21945
885.775	21930
885.9	21945
886.025	22017
886.15	21911
886.275	21880
886.4	21804
886.525	21918
886.65	21812
886.775	21865
886.9	21937
887.025	22055
887.149	21774
887.274	21690
887.399	21701
887.523	21747
887.648	21595
887.773	21572
887.897	21797
888.021	21766
888.146	21603
888.27	21876
888.395	21736
888.519	21686
888.643	21686
888.767	21675
888.891	21641
889.015	21583
889.139	21564
889.263	21462
889.387	21534
889.511	21701
889.635	21496
889.759	21439
889.883	21420
890.006	21553
890.13	21534
890.254	21447
890.377	21386
890.501	21272
890.624	21169
890.748	21165
890.871	21138
890.995	21017
891.118	20925
891.241	21024
891.364	21066
891.488	21085
891.611	21096
891.734	21131
891.857	21047
891.98	21051
892.103	21184
892.226	21001
892.349	21009
892.471	20842
892.594	20918
892.717	20956
892.839	21066
892.962	20948
893.085	20979
893.207	20925
893.33	20929
893.452	20872
893.575	20914
893.697	20963
893.819	21062
893.941	21119
894.064	21001
894.186	20838
894.308	20842
894.43	20952
894.552	21039
894.674	20998
894.796	20781
894.918	20921
895.04	20880
895.161	20960
895.283	20994
895.405	20864
895.526	20872
895.648	20880
895.769	20956
895.891	20971
896.012	20994
896.134	20918
896.255	20906
896.376	20781
896.498	20826
896.619	20937
896.74	20849
896.861	20921
896.982	21165
897.103	21412
897.224	21298
897.345	21192
897.466	21005
897.587	21176
897.708	21264
897.828	21127
897.949	20986
898.07	20914
898.19	21005
898.311	21256
898.431	20979
898.552	21241
898.672	21195
898.792	21154
898.913	21070
899.033	21043
899.153	20963
899.273	20765
899.393	20914
899.513	20895
899.633	20792
899.753	20868
899.873	20804
899.993	20899
900.113	20796
900.232	20872
900.352	20785
900.472	20640
900.591	20621
900.711	20651
900.83	20488
900.95	20701
901.069	20670
901.189	20594
901.308	20294
901.427	20161
901.546	20180
901.665	20206
901.784	20092
901.904	20046
902.023	19982
902.141	19769
902.26	19723
902.379	19772
902.498	19704
902.617	19506
902.735	19696
902.854	19620
902.973	19628
903.091	19289
903.21	19381
903.328	19346
903.446	19266
903.565	19164
903.683	19274
903.801	19031
903.919	18996
904.038	19034
904.156	18916
904.274	18985
904.392	18977
904.51	18970
904.627	18954
904.745	19004
904.863	18985
904.981	18578
905.098	18597
905.216	18650
905.334	18631
905.451	18532
905.569	18608
905.686	18525
905.803	18525
905.921	18247
906.038	18517
906.155	18266
906.272	18152
906.389	18277
906.506	18087
906.623	18083
906.74	18121
906.857	18045
906.974	17965
907.091	18114
907.208	18270
907.324	18064
907.441	17973
907.557	17870
907.674	17847
907.79	17695
907.907	17836
908.023	17764
908.139	17874
908.256	17889
908.372	17798
908.488	17741
908.604	17573
908.72	17505
908.836	17589
908.952	17535
909.068	17452
909.184	17615
909.3	17459
909.415	17551
909.531	17467
909.647	17341
909.762	17292
909.878	17258
909.993	17227
910.108	17288
910.224	17155
910.339	17288
910.454	17102
910.57	17048
910.685	17037
910.8	17166
910.915	17132
911.03	17083
911.145	16869
911.259	16740
911.374	16713
911.489	16679
911.604	16755
911.718	16558
911.833	16573
911.947	16508
912.062	16424
912.176	16554
912.291	16535
912.405	16474
912.519	16580
912.633	16771
912.748	16679
912.862	16531
912.976	16417
913.09	16246
913.204	16238
913.318	16386
913.431	16474
913.545	16409
913.659	16504
913.772	16363
913.886	16139
914	16154
914.113	16135
914.226	16299
914.34	16162
914.453	16090
914.566	16162
914.68	16063
914.793	16063
914.906	15842
915.019	15713
915.132	15751
915.245	15797
915.358	15793
915.47	15667
915.583	15717
915.696	15698
915.809	15930
915.921	15876
916.034	15694
916.146	15576
916.259	15526
916.371	15804
916.483	15660
916.595	15530
916.708	15466
916.82	15576
916.932	15561
917.044	15481
917.156	15557
917.268	15359
917.38	15332
917.491	15298
917.603	15412
917.715	15393
917.826	15435
917.938	15317
918.049	15150
918.161	15237
918.272	15420
918.384	15363
918.495	15367
918.606	15116
918.717	15028
918.828	15192
918.939	15108
919.05	14899
919.161	15097
919.272	14986
919.383	14929
919.494	15135
919.604	15275
919.715	15131
919.826	14967
919.936	15077
920.047	15150
920.157	15051
920.267	15325
920.378	15127
920.488	15043
920.598	15157
920.708	15374
920.818	15169
920.928	15256
921.038	15348
921.148	15241
921.258	14948
921.368	14960
921.477	14956
921.587	14811
921.697	14632
921.806	14754
921.916	14640
922.025	14514
922.134	14400
922.244	14389
922.353	14415
922.462	14278
922.571	14267
922.68	14069
922.789	14058
922.898	14130
923.007	13986
923.116	14092
923.224	13993
923.333	14046
923.442	13909
923.55	13898
923.659	13879
923.767	13928
923.876	13769
923.984	13871
924.092	13818
924.201	13784
924.309	13833
924.417	13803
924.525	13639
924.633	13753
924.741	14682
924.849	13578
924.956	13685
925.064	13556
925.172	13464
925.279	13331
925.387	13483
925.494	13422
925.602	13594
925.709	13392
925.816	13301
925.924	13426
926.031	13438
926.138	13460
926.245	13388
926.352	13304
926.459	13441
926.566	13483
926.673	13293
926.779	13206
926.886	13213
926.993	12996
927.099	13065
927.206	12996
927.312	12966
927.419	13000
927.525	12966
927.631	12966
927.737	12859
927.843	12791
927.95	12692
928.056	12760
928.162	12966
928.267	12825
928.373	13350
928.479	12882
928.585	12658
928.69	12776
928.796	12783
928.901	12616
929.007	12593
929.112	12684
929.218	12722
929.323	12547
929.428	12521
929.533	12635
929.638	12536
929.743	12506
929.848	12593
929.953	12582
930.058	12483
930.163	12106
930.267	12178
930.372	12376
930.477	12232
930.581	12365
930.685	12277
930.79	12133
930.894	12133
930.998	12091
931.103	12159
931.207	11923
931.311	11726
931.415	11714
931.519	11471
931.623	11433
