Data from test_V78500241_3543.txt Node
Date: Fri Mar 25 16:06:20 CST 2022
User: usil
Spectrometer: V785-0024
Trigger mode: 0
Integration Time (sec): 4.000000E-1
Scans to average: 1
Nonlinearity correction enabled: false
Boxcar width: 0
Storing dark spectrum: false
XAxis mode: Wavelengths
Number of Pixels in Spectrum: 1024
>>>>>Begin Spectral Data<<<<<
801.071	29155
801.214	29037
801.356	28816
801.499	28664
801.641	28554
801.783	28466
801.926	28717
802.068	28573
802.211	28653
802.353	28470
802.496	28295
802.638	28265
802.78	28310
802.923	28204
803.065	28204
803.208	28166
803.35	28352
803.492	28432
803.635	28584
803.777	28474
803.919	28527
804.061	28816
804.204	28641
804.346	28291
804.488	28512
804.63	28546
804.773	28508
804.915	28721
805.057	28774
805.199	28531
805.341	28588
805.483	28759
805.626	28664
805.768	28626
805.91	28653
806.052	28683
806.194	28656
806.336	28854
806.478	28797
806.62	28710
806.762	28831
806.904	29003
807.046	29299
807.188	29124
807.33	29140
807.472	29280
807.614	29098
807.756	29044
807.898	29079
808.04	28759
808.182	28976
808.324	29109
808.465	29185
808.607	29284
808.749	29490
808.891	29524
809.033	29653
809.174	29417
809.316	29391
809.458	29444
809.6	29429
809.741	29501
809.883	29589
810.025	29722
810.166	29611
810.308	29627
810.45	29821
810.591	29562
810.733	29429
810.875	29391
811.016	29250
811.158	29288
811.299	29467
811.441	29509
811.582	29592
811.724	29433
811.865	29334
812.007	29638
812.148	29493
812.29	29608
812.431	29672
812.573	29790
812.714	29923
812.855	30045
812.997	30018
813.138	30102
813.279	30106
813.421	30083
813.562	29897
813.703	29657
813.845	29524
813.986	29478
814.127	29204
814.268	29147
814.41	29197
814.551	29128
814.692	29185
814.833	29121
814.974	29075
815.115	29174
815.256	29022
815.397	28984
815.539	29060
815.68	29014
815.821	28930
815.962	28869
816.103	29079
816.244	28805
816.385	28733
816.526	28904
816.666	28607
816.807	28360
816.948	28500
817.089	28630
817.23	28481
817.371	28493
817.512	28474
817.653	28497
817.793	28489
817.934	28489
818.075	28481
818.216	28546
818.356	28443
818.497	28333
818.638	28287
818.778	28272
818.919	28230
819.06	28341
819.2	28253
819.341	28580
819.481	28542
819.622	28622
819.762	28816
819.903	28611
820.043	28713
820.184	28569
820.324	28672
820.465	28687
820.605	28577
820.746	28592
820.886	28538
821.026	28713
821.167	28493
821.307	28710
821.447	28497
821.588	28436
821.728	28261
821.868	28188
822.008	28002
822.149	27972
822.289	28017
822.429	27644
822.569	27538
822.709	27648
822.849	27481
822.99	27572
823.13	27397
823.27	27325
823.41	27332
823.55	27268
823.69	27230
823.83	27370
823.97	27249
824.11	27203
824.25	26940
824.389	27093
824.529	27150
824.669	27116
824.809	27195
824.949	27256
825.089	27272
825.228	27218
825.368	27036
825.508	26986
825.648	26967
825.787	27096
825.927	27093
826.067	26990
826.206	27028
826.346	27051
826.485	27199
826.625	27051
826.765	27089
826.904	26910
827.044	26902
827.183	26956
827.323	26708
827.462	26979
827.601	26743
827.741	26667
827.88	26739
828.02	26549
828.159	26739
828.298	26769
828.437	26743
828.577	26644
828.716	26765
828.855	26659
828.994	26545
829.134	26461
829.273	26446
829.412	26526
829.551	26240
829.69	26385
829.829	26488
829.968	26598
830.107	26492
830.246	26385
830.385	26537
830.524	26370
830.663	26244
830.802	26142
830.941	25997
831.08	26001
831.219	25955
831.357	26111
831.496	26423
831.635	26050
831.774	26027
831.913	25898
832.051	25883
832.19	25902
832.329	25860
832.467	25765
832.606	25689
832.744	25635
832.883	25776
833.022	25575
833.16	25738
833.299	25693
833.437	25746
833.576	25811
833.714	25742
833.852	25875
833.991	25830
834.129	25902
834.267	25784
834.406	25685
834.544	25765
834.682	25849
834.821	25693
834.959	25890
835.097	25696
835.235	25708
835.373	25643
835.511	25814
835.65	25750
835.788	25632
835.926	25449
836.064	25324
836.202	25476
836.34	25445
836.478	25643
836.615	25582
836.753	25594
836.891	25616
837.029	25635
837.167	25331
837.305	25510
837.443	25464
837.58	25377
837.718	25430
837.856	25339
837.993	25346
838.131	25403
838.269	25369
838.406	25293
838.544	25221
838.681	25004
838.819	25023
838.956	24897
839.094	24741
839.231	24875
839.369	25019
839.506	25320
839.643	25198
839.781	24913
839.918	24821
840.055	24795
840.193	24764
840.33	24783
840.467	24772
840.604	24859
840.742	25031
840.879	24623
841.016	24730
841.153	24631
841.29	24802
841.427	24798
841.564	24623
841.701	24760
841.838	24779
841.975	24719
842.112	24665
842.249	24620
842.385	24525
842.522	24837
842.659	24540
842.796	24509
842.933	24547
843.069	24639
843.206	24547
843.343	24555
843.479	24505
843.616	24494
843.752	24205
843.889	24327
844.025	24445
844.162	24327
844.298	24311
844.435	24224
844.571	24262
844.708	24376
844.844	24486
844.98	24361
845.117	24399
845.253	24159
845.389	24121
845.525	24125
845.661	24102
845.798	24030
845.934	24114
846.07	23996
846.206	24106
846.342	24190
846.478	23942
846.614	23908
846.75	23615
846.886	23748
847.022	23859
847.158	23859
847.294	23699
847.429	23764
847.565	23741
847.701	23958
847.837	23486
847.972	23330
848.108	23364
848.244	23581
848.379	23311
848.515	23311
848.65	23299
848.786	23402
848.921	23284
849.057	23421
849.192	23455
849.328	23425
849.463	23223
849.598	23273
849.734	23185
849.869	23246
850.004	23044
850.14	23204
850.275	23132
850.41	23166
850.545	23094
850.68	23143
850.815	23208
850.95	23155
851.085	23128
851.22	23303
851.355	23128
851.49	23170
851.625	23067
851.76	23090
851.895	23022
852.03	23014
852.165	23090
852.299	23044
852.434	23174
852.569	23075
852.703	23048
852.838	23079
852.973	23170
853.107	23258
853.242	22999
853.376	22953
853.511	22828
853.645	22812
853.78	23064
853.914	22866
854.048	22900
854.183	22980
854.317	22915
854.451	23231
854.585	23018
854.72	22953
854.854	23003
854.988	22866
855.122	22942
855.256	22809
855.39	22980
855.524	22980
855.658	22961
855.792	22995
855.926	22953
856.06	22824
856.194	23105
856.327	23033
856.461	22934
856.595	22946
856.729	22976
856.862	22976
856.996	22885
857.13	22915
857.263	22976
857.397	23037
857.53	22866
857.664	23079
857.797	23037
857.931	23056
858.064	23003
858.197	23071
858.331	22843
858.464	22786
858.597	22881
858.731	22904
858.864	22869
858.997	22873
859.13	22927
859.263	22919
859.396	23079
859.529	23025
859.662	22892
859.795	22885
859.928	22938
860.061	23140
860.194	23204
860.327	22961
860.46	23022
860.592	23086
860.725	23124
860.858	23083
860.99	22957
861.123	22915
861.256	22911
861.388	23052
861.521	23665
861.653	22889
861.786	22824
861.918	22904
862.05	22812
862.183	22915
862.315	22839
862.447	22915
862.58	22835
862.712	22645
862.844	22481
862.976	22725
863.108	22691
863.24	23132
863.372	22580
863.504	22573
863.636	22664
863.768	22626
863.9	22755
864.032	22432
864.164	22569
864.296	22592
864.428	22706
864.559	22694
864.691	22725
864.823	22645
864.954	22607
865.086	22683
865.217	22466
865.349	22504
865.48	22459
865.612	22516
865.743	22710
865.875	22588
866.006	22459
866.137	22523
866.269	22531
866.4	22402
866.531	22508
866.662	22287
866.793	22512
866.924	22565
867.055	22451
867.186	22443
867.317	22379
867.448	22363
867.579	22379
867.71	22329
867.841	22394
867.972	22379
868.103	22512
868.233	22478
868.364	22390
868.495	22493
868.625	22611
868.756	22748
868.886	22634
869.017	22664
869.147	22778
869.278	22820
869.408	22611
869.539	22630
869.669	22778
869.799	22801
869.929	22812
870.06	22885
870.19	22858
870.32	22957
870.45	22972
870.58	23090
870.71	23170
870.84	23204
870.97	22991
871.1	23052
871.23	23246
871.36	23376
871.489	23242
871.619	23269
871.749	23315
871.879	23292
872.008	23493
872.138	23417
872.267	23296
872.397	23178
872.526	23117
872.656	23083
872.785	23094
872.915	23341
873.044	23387
873.173	23341
873.303	23406
873.432	23292
873.561	23364
873.69	23345
873.819	23402
873.948	23417
874.077	23231
874.206	23159
874.335	23273
874.464	23455
874.593	23573
874.722	23493
874.851	23459
874.979	23611
875.108	23611
875.237	23417
875.365	23497
875.494	23356
875.623	23558
875.751	23524
875.88	23421
876.008	23528
876.136	23775
876.265	23783
876.393	24041
876.521	23950
876.65	23999
876.778	23954
876.906	23802
877.034	23817
877.162	23882
877.29	23828
877.418	23942
877.546	23855
877.674	23958
877.802	23802
877.93	23798
878.058	23756
878.185	23619
878.313	23836
878.441	23680
878.568	23638
878.696	23790
878.824	23923
878.951	23866
879.079	23992
879.206	24155
879.333	24155
879.461	23916
879.588	23996
879.715	24057
879.842	24136
879.97	24034
880.097	23653
880.224	23543
880.351	23733
880.478	23714
880.605	23668
880.732	23745
880.859	23882
880.986	23707
881.112	23665
881.239	23524
881.366	23387
881.493	23402
881.619	23212
881.746	23185
881.872	23254
881.999	23254
882.125	23181
882.252	23261
882.378	23189
882.505	23296
882.631	23033
882.757	22961
882.883	23018
883.01	22862
883.136	22869
883.262	22725
883.388	22634
883.514	22828
883.64	22824
883.766	22835
883.892	22584
884.018	22698
884.143	22835
884.269	22911
884.395	22637
884.52	22565
884.646	22519
884.772	22451
884.897	22493
885.023	22512
885.148	22550
885.274	22561
885.399	22618
885.524	22588
885.65	22557
885.775	22371
885.9	22542
886.025	22535
886.15	22538
886.275	22462
886.4	22398
886.525	22470
886.65	22375
886.775	22382
886.9	22603
887.025	22729
887.149	22478
887.274	22379
887.399	22219
887.523	22280
887.648	22257
887.773	22124
887.897	22360
888.021	22402
888.146	22097
888.27	22375
888.395	22348
888.519	22413
888.643	22246
888.767	22219
888.891	22101
889.015	22086
889.139	22147
889.263	22070
889.387	22158
889.511	22169
889.635	22272
889.759	22029
889.883	21888
890.006	22226
890.13	22002
890.254	21915
890.377	21918
890.501	21903
890.624	21838
890.748	21884
890.871	21694
890.995	21587
891.118	21496
891.241	21618
891.364	21644
891.488	21804
891.611	21568
891.734	21587
891.857	21720
891.98	21500
892.103	21603
892.226	21591
892.349	21481
892.471	21298
892.594	21450
892.717	21591
892.839	21428
892.962	21561
893.085	21606
893.207	21462
893.33	21287
893.452	21473
893.575	21515
893.697	21496
893.819	21564
893.941	21591
894.064	21557
894.186	21397
894.308	21405
894.43	21534
894.552	21637
894.674	21580
894.796	21370
894.918	21462
895.04	21462
895.161	21648
895.283	21477
895.405	21344
895.526	21469
895.648	21450
895.769	21500
895.891	21485
896.012	21542
896.134	21439
896.255	21397
896.376	21336
896.498	21412
896.619	21454
896.74	21355
896.861	21473
896.982	21812
897.103	21800
897.224	21690
897.345	21606
897.466	21656
897.587	21633
897.708	21816
897.828	21652
897.949	21519
898.07	21481
898.19	21595
898.311	21720
898.431	21549
898.552	21622
898.672	21557
898.792	21610
898.913	21637
899.033	21424
899.153	21412
899.273	21370
899.393	21473
899.513	21332
899.633	21351
899.753	21374
899.873	21272
899.993	21340
900.113	21317
900.232	21245
900.352	21313
900.472	21211
900.591	21001
900.711	21268
900.83	21142
900.95	21291
901.069	21176
901.189	21009
901.308	20853
901.427	20758
901.546	20678
901.665	20598
901.784	20743
901.904	20499
902.023	20442
902.141	20301
902.26	20153
902.379	20263
902.498	20145
902.617	20149
902.735	20290
902.854	20084
902.973	20016
903.091	19830
903.21	19803
903.328	19837
903.446	19746
903.565	19685
903.683	19662
903.801	19590
903.919	19529
904.038	19537
904.156	19358
904.274	19499
904.392	19476
904.51	19422
904.627	19263
904.745	19483
904.863	19392
904.981	19065
905.098	19141
905.216	19099
905.334	19088
905.451	19084
905.569	19027
905.686	19137
905.803	19046
905.921	18863
906.038	19015
906.155	18856
906.272	18798
906.389	18787
906.506	18551
906.623	18665
906.74	18631
906.857	18490
906.974	18361
907.091	18559
907.208	18639
907.324	18578
907.441	18494
907.557	18239
907.674	18235
907.79	18251
907.907	18254
908.023	18247
908.139	18292
908.256	18251
908.372	18087
908.488	18083
908.604	18087
908.72	17992
908.836	18060
908.952	18022
909.068	18057
909.184	18167
909.3	17961
909.415	17965
909.531	18026
909.647	17710
909.762	17737
909.878	17653
909.993	17748
910.108	17630
910.224	17695
910.339	17619
910.454	17539
910.57	17509
910.685	17474
910.8	17687
910.915	17722
911.03	17406
911.145	17204
911.259	17269
911.374	17307
911.489	17220
911.604	17079
911.718	17003
911.833	17033
911.947	17029
912.062	16767
912.176	16946
912.291	16942
912.405	17033
912.519	17212
912.633	17166
912.748	17006
912.862	17003
912.976	16847
913.09	16710
913.204	16702
913.318	16847
913.431	16934
913.545	16877
913.659	16896
913.772	16729
913.886	16668
914	16596
914.113	16687
914.226	16698
914.34	16683
914.453	16382
914.566	16615
914.68	16485
914.793	16508
914.906	16162
915.019	16093
915.132	16154
915.245	16196
915.358	16135
915.47	16166
915.583	16177
915.696	16196
915.809	16257
915.921	16287
916.034	16051
916.146	16055
916.259	16051
916.371	16010
916.483	16105
916.595	15960
916.708	15994
916.82	15884
916.932	15945
917.044	15880
917.156	15884
917.268	15679
917.38	15838
917.491	15739
917.603	15732
917.715	15880
917.826	15873
917.938	15694
918.049	15625
918.161	15720
918.272	15781
918.384	15770
918.495	15679
918.606	15595
918.717	15466
918.828	15485
918.939	15526
919.05	15291
919.161	15523
919.272	15214
919.383	15355
919.494	15542
919.604	15629
919.715	15610
919.826	15359
919.936	15511
920.047	15488
920.157	15504
920.267	15595
920.378	15450
920.488	15424
920.598	15545
920.708	15751
920.818	15526
920.928	15542
921.038	15720
921.148	15709
921.258	15408
921.368	15306
921.477	15260
921.587	15161
921.697	15085
921.806	15233
921.916	14960
922.025	14864
922.134	14750
922.244	14826
922.353	14864
922.462	14655
922.571	14613
922.68	14503
922.789	14385
922.898	14404
923.007	14385
923.116	14465
923.224	14473
923.333	14309
923.442	14358
923.55	14225
923.659	14290
923.767	14336
923.876	14313
923.984	14286
924.092	14103
924.201	14096
924.309	14084
924.417	14180
924.525	14149
924.633	14084
924.741	14982
924.849	13852
924.956	13986
925.064	13852
925.172	13761
925.279	13780
925.387	13898
925.494	13757
925.602	14012
925.709	13868
925.816	13734
925.924	13746
926.031	13890
926.138	13780
926.245	13765
926.352	13620
926.459	13799
926.566	13818
926.673	13601
926.779	13525
926.886	13578
926.993	13407
927.099	13384
927.206	13346
927.312	13304
927.419	13362
927.525	13369
927.631	13396
927.737	13183
927.843	13209
927.95	12993
928.056	13206
928.162	13133
928.267	13236
928.373	13689
928.479	13126
928.585	12924
928.69	13080
928.796	13160
928.901	12947
929.007	12958
929.112	13069
929.218	12958
929.323	12935
929.428	12806
929.533	12951
929.638	12810
929.743	12856
929.848	12749
929.953	12837
930.058	12646
930.163	12566
930.267	12494
930.372	12673
930.477	12448
930.581	12726
930.685	12525
930.79	12380
930.894	12464
930.998	12319
931.103	12490
931.207	12220
931.311	12011
931.415	11969
931.519	11714
931.623	11748
