Data from test_V78500241_1396.txt Node
Date: Fri Mar 25 15:51:28 CST 2022
User: usil
Spectrometer: V785-0024
Trigger mode: 0
Integration Time (sec): 4.000000E-1
Scans to average: 1
Nonlinearity correction enabled: false
Boxcar width: 0
Storing dark spectrum: false
XAxis mode: Wavelengths
Number of Pixels in Spectrum: 1024
>>>>>Begin Spectral Data<<<<<
801.071	27648
801.214	27667
801.356	27378
801.499	27359
801.641	27344
801.783	27203
801.926	27199
802.068	27416
802.211	27161
802.353	27066
802.496	26967
802.638	26883
802.78	26834
802.923	26785
803.065	26815
803.208	26735
803.35	26887
803.492	26952
803.635	27123
803.777	26845
803.919	27074
804.061	27355
804.204	27218
804.346	27047
804.488	26979
804.63	27138
804.773	26971
804.915	27036
805.057	27169
805.199	27161
805.341	27005
805.483	27100
805.626	27272
805.768	27081
805.91	27161
806.052	27302
806.194	27062
806.336	27405
806.478	27154
806.62	27252
806.762	27233
806.904	27454
807.046	27549
807.188	27591
807.33	27622
807.472	27652
807.614	27416
807.756	27622
807.898	27416
808.04	27321
808.182	27367
808.324	27416
808.465	27443
808.607	27728
808.749	27914
808.891	27816
809.033	27945
809.174	27831
809.316	27880
809.458	27838
809.6	27713
809.741	27934
809.883	28013
810.025	28124
810.166	28226
810.308	28143
810.45	28101
810.591	28078
810.733	27918
810.875	27880
811.016	27755
811.158	27705
811.299	27918
811.441	27884
811.582	27762
811.724	27774
811.865	27846
812.007	27770
812.148	27778
812.29	27762
812.431	28002
812.573	28109
812.714	28169
812.855	28207
812.997	28421
813.138	28599
813.279	28538
813.421	28329
813.562	28162
813.703	28025
813.845	27918
813.986	27698
814.127	27599
814.268	27401
814.41	27519
814.551	27275
814.692	27469
814.833	27370
814.974	27462
815.115	27469
815.256	27389
815.397	27237
815.539	27325
815.68	27211
815.821	27142
815.962	27150
816.103	27131
816.244	27180
816.385	27127
816.526	27043
816.666	26853
816.807	26708
816.948	26906
817.089	26773
817.23	26727
817.371	26804
817.512	26716
817.653	26758
817.793	26731
817.934	26861
818.075	26667
818.216	26781
818.356	26750
818.497	26453
818.638	26568
818.778	26298
818.919	26507
819.06	26556
819.2	26629
819.341	26754
819.481	26609
819.622	26796
819.762	27005
819.903	27062
820.043	26975
820.184	26705
820.324	26876
820.465	26967
820.605	26815
820.746	26769
820.886	26716
821.026	26944
821.167	26823
821.307	26933
821.447	26731
821.588	26598
821.728	26571
821.868	26404
822.008	26336
822.149	26210
822.289	26263
822.429	25936
822.569	25932
822.709	25913
822.849	25772
822.99	25849
823.13	25708
823.27	25677
823.41	25529
823.55	25441
823.69	25609
823.83	25544
823.97	25491
824.11	25362
824.25	25358
824.389	25289
824.529	25548
824.669	25403
824.809	25491
824.949	25426
825.089	25426
825.228	25369
825.368	25179
825.508	25160
825.648	25282
825.787	25179
825.927	25190
826.067	25148
826.206	25263
826.346	25221
826.485	25308
826.625	25122
826.765	25316
826.904	25289
827.044	24989
827.183	25084
827.323	24863
827.462	24992
827.601	24954
827.741	24867
827.88	24939
828.02	24787
828.159	24985
828.298	24844
828.437	24951
828.577	24878
828.716	25046
828.855	24795
828.994	24715
829.134	24661
829.273	24681
829.412	24513
829.551	24559
829.69	24601
829.829	24601
829.968	24722
830.107	24684
830.246	24597
830.385	24471
830.524	24475
830.663	24433
830.802	24243
830.941	24216
831.08	24239
831.219	24380
831.357	24330
831.496	24384
831.635	24289
831.774	24129
831.913	24083
832.051	23946
832.19	23996
832.329	23973
832.467	23935
832.606	23726
832.744	23973
832.883	23866
833.022	23775
833.16	23912
833.299	23904
833.437	23961
833.576	24034
833.714	24018
833.852	24041
833.991	23901
834.129	23984
834.267	23977
834.406	23882
834.544	23969
834.682	23882
834.821	24007
834.959	24178
835.097	23992
835.235	23897
835.373	24003
835.511	23939
835.65	23817
835.788	23912
835.926	23634
836.064	23486
836.202	23661
836.34	23798
836.478	23969
836.615	23684
836.753	23707
836.891	23840
837.029	23699
837.167	23870
837.305	23733
837.443	23638
837.58	23676
837.718	23710
837.856	23539
837.993	23615
838.131	23452
838.269	23524
838.406	23471
838.544	23539
838.681	23417
838.819	23258
838.956	23033
839.094	23098
839.231	23128
839.369	23284
839.506	23497
839.643	23490
839.781	23174
839.918	23048
840.055	23083
840.193	23052
840.33	22854
840.467	23086
840.604	23151
840.742	23292
840.879	22904
841.016	23083
841.153	22847
841.29	23014
841.427	23075
841.564	22987
841.701	23010
841.838	22896
841.975	22949
842.112	22812
842.249	22748
842.385	22740
842.522	22942
842.659	22896
842.796	22721
842.933	22691
843.069	22542
843.206	22683
843.343	22866
843.479	22778
843.616	22721
843.752	22649
843.889	22561
844.025	22805
844.162	22618
844.298	22771
844.435	22531
844.571	22626
844.708	22634
844.844	22645
844.98	22809
845.117	22713
845.253	22344
845.389	22424
845.525	22519
845.661	22329
845.798	22265
845.934	22375
846.07	22341
846.206	22257
846.342	22329
846.478	22375
846.614	22173
846.75	22036
846.886	22063
847.022	22124
847.158	22147
847.294	21960
847.429	22059
847.565	21899
847.701	22230
847.837	21743
847.972	21789
848.108	21842
848.244	21663
848.379	21610
848.515	21538
848.65	21652
848.786	21599
848.921	21705
849.057	21679
849.192	21701
849.328	21701
849.463	21610
849.598	21652
849.734	21553
849.869	21496
850.004	21492
850.14	21412
850.275	21348
850.41	21169
850.545	21382
850.68	21332
850.815	21355
850.95	21428
851.085	21568
851.22	21435
851.355	21283
851.49	21389
851.625	21252
851.76	21378
851.895	21173
852.03	21283
852.165	21378
852.299	21492
852.434	21530
852.569	21428
852.703	21382
852.838	21344
852.973	21519
853.107	21625
853.242	21401
853.376	21252
853.511	21150
853.645	21150
853.78	21344
853.914	21340
854.048	21184
854.183	21161
854.317	21192
854.451	21348
854.585	21245
854.72	21188
854.854	21237
854.988	21222
855.122	21211
855.256	21039
855.39	21157
855.524	21275
855.658	21321
855.792	21260
855.926	21249
856.06	21237
856.194	21226
856.327	21226
856.461	21116
856.595	21173
856.729	21192
856.862	21336
856.996	21317
857.13	21230
857.263	21279
857.397	21241
857.53	21199
857.664	21138
857.797	21283
857.931	21344
858.064	21165
858.197	21245
858.331	21218
858.464	21169
858.597	21074
858.731	21123
858.864	21093
858.997	21165
859.13	21287
859.263	21245
859.396	21226
859.529	21142
859.662	21116
859.795	21119
859.928	21104
860.061	21275
860.194	21428
860.327	21241
860.46	21233
860.592	21264
860.725	21389
860.858	21408
860.99	21169
861.123	21165
861.256	21218
861.388	21199
861.521	21964
861.653	21017
861.786	21077
861.918	21009
862.05	21116
862.183	21161
862.315	21222
862.447	21146
862.58	21066
862.712	20891
862.844	20853
862.976	20899
863.108	20956
863.24	21428
863.372	20800
863.504	20975
863.636	20921
863.768	20967
863.9	21039
864.032	20876
864.164	20868
864.296	20830
864.428	20960
864.559	20963
864.691	20982
864.823	20971
864.954	20994
865.086	20887
865.217	20914
865.349	20640
865.48	20861
865.612	20853
865.743	20876
865.875	20834
866.006	20804
866.137	20864
866.269	20952
866.4	20861
866.531	20667
866.662	20720
866.793	20769
866.924	20777
867.055	20689
867.186	20819
867.317	20716
867.448	20739
867.579	20705
867.71	20636
867.841	20693
867.972	20785
868.103	20659
868.233	20826
868.364	20804
868.495	20876
868.625	21001
868.756	21135
868.886	20918
869.017	21013
869.147	21062
869.278	21100
869.408	21066
869.539	21020
869.669	20944
869.799	20963
869.929	21154
870.06	21070
870.19	21462
870.32	21325
870.45	21367
870.58	21504
870.71	21519
870.84	21500
870.97	21370
871.1	21393
871.23	21572
871.36	21629
871.489	21618
871.619	21553
871.749	21591
871.879	21625
872.008	21747
872.138	21652
872.267	21625
872.397	21420
872.526	21298
872.656	21416
872.785	21416
872.915	21743
873.044	21652
873.173	21690
873.303	21580
873.432	21660
873.561	21884
873.69	21656
873.819	21682
873.948	21743
874.077	21523
874.206	21610
874.335	21660
874.464	21762
874.593	21732
874.722	21911
874.851	21922
874.979	21937
875.108	21907
875.237	21899
875.365	21804
875.494	21838
875.623	21975
875.751	21793
875.88	21823
876.008	22025
876.136	22017
876.265	22363
876.393	22325
876.521	22363
876.65	22379
876.778	22280
876.906	22112
877.034	22166
877.162	22139
877.29	22158
877.418	22154
877.546	22169
877.674	22200
877.802	22295
877.93	22082
878.058	22238
878.185	22032
878.313	22048
878.441	22173
878.568	22013
878.696	22067
878.824	22272
878.951	22219
879.079	22337
879.206	22542
879.333	22287
879.461	22131
879.588	22299
879.715	22371
879.842	22508
879.97	22249
880.097	22093
880.224	21991
880.351	22029
880.478	21983
880.605	22116
880.732	21964
880.859	22375
880.986	22078
881.112	22078
881.239	21888
881.366	21793
881.493	21633
881.619	21568
881.746	21690
881.872	21701
881.999	21488
882.125	21462
882.252	21557
882.378	21614
882.505	21663
882.631	21382
882.757	21363
882.883	21367
883.01	21226
883.136	21283
883.262	21173
883.388	21116
883.514	21298
883.64	21207
883.766	21173
883.892	21135
884.018	21077
884.143	21241
884.269	21405
884.395	21058
884.52	20902
884.646	20971
884.772	20880
884.897	20785
885.023	20868
885.148	20994
885.274	21184
885.399	21047
885.524	20986
885.65	20937
885.775	20967
885.9	20963
886.025	21028
886.15	20971
886.275	20918
886.4	20739
886.525	20906
886.65	20895
886.775	20902
886.9	21055
887.025	21096
887.149	20868
887.274	20800
887.399	20750
887.523	20678
887.648	20678
887.773	20670
887.897	20724
888.021	20834
888.146	20758
888.27	20815
888.395	20743
888.519	20838
888.643	20705
888.767	20773
888.891	20632
889.015	20636
889.139	20575
889.263	20347
889.387	20598
889.511	20651
889.635	20613
889.759	20492
889.883	20438
890.006	20492
890.13	20606
890.254	20454
890.377	20514
890.501	20267
890.624	20275
890.748	20199
890.871	20244
890.995	20103
891.118	19986
891.241	20103
891.364	20031
891.488	20248
891.611	20122
891.734	20065
891.857	20248
891.98	20035
892.103	20164
892.226	20084
892.349	20046
892.471	19986
892.594	19940
892.717	19986
892.839	19925
892.962	20050
893.085	20050
893.207	20054
893.33	19822
893.452	19959
893.575	20084
893.697	19909
893.819	20111
893.941	20191
894.064	20130
894.186	19902
894.308	19944
894.43	20027
894.552	20153
894.674	20210
894.796	19955
894.918	19909
895.04	19883
895.161	20046
895.283	20012
895.405	19902
895.526	19970
895.648	20005
895.769	20016
895.891	19978
896.012	20122
896.134	20084
896.255	19944
896.376	19947
896.498	19902
896.619	20084
896.74	19989
896.861	20172
896.982	20248
897.103	20434
897.224	20229
897.345	20298
897.466	20115
897.587	20161
897.708	20415
897.828	20282
897.949	20210
898.07	20168
898.19	20153
898.311	20412
898.431	20142
898.552	20191
898.672	20187
898.792	20381
898.913	20305
899.033	20210
899.153	20031
899.273	19944
899.393	19879
899.513	20001
899.633	19871
899.753	20043
899.873	19932
899.993	20001
900.113	19955
900.232	19963
900.352	19769
900.472	19811
900.591	19685
900.711	19715
900.83	19704
900.95	19833
901.069	19788
901.189	19616
901.308	19506
901.427	19247
901.546	19274
901.665	19381
901.784	19354
901.904	19251
902.023	19091
902.141	18875
902.26	18947
902.379	19046
902.498	18833
902.617	18772
902.735	18852
902.854	18768
902.973	18783
903.091	18555
903.21	18574
903.328	18395
903.446	18490
903.565	18350
903.683	18467
903.801	18144
903.919	18380
904.038	18209
904.156	18098
904.274	18228
904.392	18095
904.51	18022
904.627	18068
904.745	18140
904.863	18110
904.981	17851
905.098	17649
905.216	17676
905.334	17893
905.451	17726
905.569	17805
905.686	17764
905.803	17767
905.921	17619
906.038	17691
906.155	17551
906.272	17452
906.389	17486
906.506	17334
906.623	17330
906.74	17345
906.857	17265
906.974	17212
907.091	17311
907.208	17368
907.324	17379
907.441	17242
907.557	17006
907.674	16987
907.79	16953
907.907	16957
908.023	16999
908.139	16885
908.256	16999
908.372	17014
908.488	16934
908.604	16805
908.72	16729
908.836	16679
908.952	16653
909.068	16698
909.184	16847
909.3	16778
909.415	16698
909.531	16748
909.647	16432
909.762	16405
909.878	16417
909.993	16436
910.108	16470
910.224	16470
910.339	16470
910.454	16295
910.57	16257
910.685	16093
910.8	16455
910.915	16489
911.03	16295
911.145	16109
911.259	16055
911.374	16051
911.489	15960
911.604	15972
911.718	15781
911.833	15850
911.947	15682
912.062	15648
912.176	15812
912.291	15804
912.405	15762
912.519	15945
912.633	15968
912.748	15766
912.862	15766
912.976	15629
913.09	15557
913.204	15504
913.318	15641
913.431	15694
913.545	15591
913.659	15679
913.772	15603
913.886	15435
914	15397
914.113	15481
914.226	15435
914.34	15515
914.453	15294
914.566	15405
914.68	15298
914.793	15317
914.906	15081
915.019	15085
915.132	15047
915.245	15055
915.358	15097
915.47	14990
915.583	15146
915.696	15036
915.809	15146
915.921	15089
916.034	15005
916.146	14895
916.259	14868
916.371	15020
916.483	14971
916.595	14842
916.708	14891
916.82	14918
916.932	14842
917.044	14868
917.156	14788
917.268	14549
917.38	14754
917.491	14705
917.603	14697
917.715	14777
917.826	14773
917.938	14564
918.049	14556
918.161	14720
918.272	14758
918.384	14754
918.495	14617
918.606	14514
918.717	14343
918.828	14537
918.939	14533
919.05	14343
919.161	14415
919.272	14271
919.383	14366
919.494	14541
919.604	14686
919.715	14438
919.826	14385
919.936	14492
920.047	14446
920.157	14434
920.267	14716
920.378	14408
920.488	14412
920.598	14590
920.708	14792
920.818	14590
920.928	14568
921.038	14648
921.148	14667
921.258	14381
921.368	14339
921.477	14191
921.587	14195
921.697	14119
921.806	14248
921.916	13974
922.025	13856
922.134	13856
922.244	13845
922.353	13799
922.462	13712
922.571	13567
922.68	13506
922.789	13438
922.898	13529
923.007	13487
923.116	13529
923.224	13510
923.333	13422
923.442	13308
923.55	13343
923.659	13316
923.767	13415
923.876	13270
923.984	13354
924.092	13175
924.201	13240
924.309	13244
924.417	13217
924.525	13080
924.633	13095
924.741	13822
924.849	12875
924.956	13069
925.064	12890
925.172	12779
925.279	12928
925.387	12875
925.494	12897
925.602	13084
925.709	12867
925.816	12837
925.924	12886
926.031	12848
926.138	12882
926.245	12924
926.352	12791
926.459	12848
926.566	12913
926.673	12662
926.779	12623
926.886	12658
926.993	12574
927.099	12517
927.206	12433
927.312	12361
927.419	12509
927.525	12441
927.631	12479
927.737	12319
927.843	12327
927.95	12163
928.056	12281
928.162	12361
928.267	12289
928.373	12909
928.479	12338
928.585	12049
928.69	12148
928.796	12292
928.901	12129
929.007	12053
929.112	12197
929.218	12095
929.323	12102
929.428	12026
929.533	12110
929.638	11946
929.743	12022
929.848	12030
929.953	11923
930.058	11847
930.163	11737
930.267	11691
930.372	11790
930.477	11688
930.581	11897
930.685	11752
930.79	11554
930.894	11630
930.998	11558
931.103	11691
931.207	11410
931.311	11299
931.415	11121
931.519	11018
931.623	11022
