Data from test_V78500241_3656.txt Node
Date: Fri Mar 25 16:07:07 CST 2022
User: usil
Spectrometer: V785-0024
Trigger mode: 0
Integration Time (sec): 4.000000E-1
Scans to average: 1
Nonlinearity correction enabled: false
Boxcar width: 0
Storing dark spectrum: false
XAxis mode: Wavelengths
Number of Pixels in Spectrum: 1024
>>>>>Begin Spectral Data<<<<<
801.071	28531
801.214	28440
801.356	28238
801.499	28143
801.641	28078
801.783	28010
801.926	28006
802.068	28181
802.211	28017
802.353	27812
802.496	27914
802.638	27747
802.78	27728
802.923	27637
803.065	27644
803.208	27625
803.35	27770
803.492	27930
803.635	27979
803.777	27884
803.919	27979
804.061	28261
804.204	28116
804.346	27934
804.488	27880
804.63	27972
804.773	27914
804.915	28093
805.057	28177
805.199	28013
805.341	28017
805.483	28143
805.626	28078
805.768	27975
805.91	28291
806.052	28112
806.194	28131
806.336	28375
806.478	28143
806.62	28219
806.762	28196
806.904	28504
807.046	28721
807.188	28607
807.33	28615
807.472	28656
807.614	28653
807.756	28664
807.898	28462
808.04	28386
808.182	28337
808.324	28504
808.465	28478
808.607	28858
808.749	28938
808.891	28984
809.033	29052
809.174	28911
809.316	28801
809.458	28896
809.6	28820
809.741	28843
809.883	29014
810.025	29170
810.166	29075
810.308	29113
810.45	29060
810.591	29102
810.733	28896
810.875	28839
811.016	28885
811.158	28687
811.299	28927
811.441	28999
811.582	29075
811.724	28877
811.865	28915
812.007	28869
812.148	28866
812.29	29048
812.431	29044
812.573	29075
812.714	29170
812.855	29250
812.997	29406
813.138	29467
813.279	29482
813.421	29417
813.562	29356
813.703	29151
813.845	29105
813.986	28847
814.127	28828
814.268	28474
814.41	28736
814.551	28607
814.692	28573
814.833	28508
814.974	28409
815.115	28443
815.256	28443
815.397	28459
815.539	28440
815.68	28367
815.821	28356
815.962	28310
816.103	28322
816.244	28124
816.385	28204
816.526	28139
816.666	27945
816.807	27819
816.948	27914
817.089	27914
817.23	27930
817.371	27876
817.512	27956
817.653	27892
817.793	27759
817.934	27857
818.075	27682
818.216	27732
818.356	27778
818.497	27564
818.638	27591
818.778	27637
818.919	27625
819.06	27739
819.2	27713
819.341	27755
819.481	27945
819.622	28048
819.762	28344
819.903	28048
820.043	28131
820.184	27934
820.324	28025
820.465	28181
820.605	27983
820.746	27987
820.886	27914
821.026	27785
821.167	27964
821.307	28219
821.447	27994
821.588	27819
821.728	27603
821.868	27580
822.008	27405
822.149	27264
822.289	27340
822.429	27192
822.569	27051
822.709	27154
822.849	26960
822.99	26921
823.13	26853
823.27	26910
823.41	26663
823.55	26606
823.69	26617
823.83	26648
823.97	26621
824.11	26537
824.25	26351
824.389	26564
824.529	26568
824.669	26453
824.809	26743
824.949	26526
825.089	26560
825.228	26625
825.368	26358
825.508	26347
825.648	26328
825.787	26415
825.927	26507
826.067	26408
826.206	26461
826.346	26617
826.485	26476
826.625	26298
826.765	26465
826.904	26465
827.044	26115
827.183	26202
827.323	26168
827.462	26240
827.601	26100
827.741	26043
827.88	26168
828.02	25913
828.159	25959
828.298	26244
828.437	26100
828.577	26077
828.716	26145
828.855	26077
828.994	25715
829.134	25852
829.273	25997
829.412	25814
829.551	25830
829.69	25822
829.829	25875
829.968	25993
830.107	25830
830.246	25715
830.385	25761
830.524	25696
830.663	25734
830.802	25514
830.941	25354
831.08	25331
831.219	25540
831.357	25365
831.496	25559
831.635	25419
831.774	25354
831.913	25377
832.051	25282
832.19	25217
832.329	25202
832.467	25027
832.606	24981
832.744	24985
832.883	25057
833.022	25038
833.16	25118
833.299	25152
833.437	25160
833.576	25232
833.714	25110
833.852	25198
833.991	25107
834.129	25221
834.267	25247
834.406	25095
834.544	25152
834.682	25103
834.821	25069
834.959	25324
835.097	24977
835.235	25278
835.373	25126
835.511	25122
835.65	24951
835.788	25015
835.926	24943
836.064	24749
836.202	24814
836.34	24943
836.478	25141
836.615	25072
836.753	24909
836.891	25141
837.029	25004
837.167	24875
837.305	24928
837.443	24951
837.58	24943
837.718	24901
837.856	24730
837.993	24764
838.131	24722
838.269	24829
838.406	24722
838.544	24616
838.681	24437
838.819	24475
838.956	24205
839.094	24266
839.231	24365
839.369	24517
839.506	24540
839.643	24566
839.781	24270
839.918	24155
840.055	24277
840.193	24235
840.33	24251
840.467	24213
840.604	24235
840.742	24429
840.879	24068
841.016	24171
841.153	24022
841.29	24205
841.427	24197
841.564	24155
841.701	24163
841.838	24087
841.975	24140
842.112	23984
842.249	24007
842.385	23908
842.522	24064
842.659	24045
842.796	23946
842.933	23893
843.069	23973
843.206	23805
843.343	23878
843.479	23958
843.616	23935
843.752	23672
843.889	23733
844.025	23897
844.162	23531
844.298	23821
844.435	23710
844.571	23589
844.708	23756
844.844	23824
844.98	23954
845.117	23908
845.253	23528
845.389	23566
845.525	23539
845.661	23623
845.798	23512
845.934	23478
846.07	23410
846.206	23543
846.342	23566
846.478	23402
846.614	23212
846.75	23048
846.886	23170
847.022	23197
847.158	23006
847.294	23113
847.429	23292
847.565	23124
847.701	23410
847.837	22839
847.972	22824
848.108	22946
848.244	23037
848.379	22729
848.515	22744
848.65	22805
848.786	22736
848.921	22774
849.057	22797
849.192	22854
849.328	22793
849.463	22839
849.598	22687
849.734	22588
849.869	22660
850.004	22500
850.14	22577
850.275	22580
850.41	22519
850.545	22497
850.68	22459
850.815	22577
850.95	22550
851.085	22744
851.22	22653
851.355	22675
851.49	22489
851.625	22523
851.76	22645
851.895	22462
852.03	22394
852.165	22466
852.299	22607
852.434	22561
852.569	22622
852.703	22504
852.838	22527
852.973	22687
853.107	22660
853.242	22451
853.376	22310
853.511	22253
853.645	22291
853.78	22432
853.914	22428
854.048	22207
854.183	22413
854.317	22360
854.451	22607
854.585	22303
854.72	22329
854.854	22455
854.988	22295
855.122	22470
855.256	22181
855.39	22337
855.524	22459
855.658	22344
855.792	22333
855.926	22310
856.06	22497
856.194	22455
856.327	22405
856.461	22337
856.595	22314
856.729	22322
856.862	22618
856.996	22428
857.13	22417
857.263	22417
857.397	22394
857.53	22314
857.664	22596
857.797	22379
857.931	22512
858.064	22424
858.197	22580
858.331	22352
858.464	22432
858.597	22341
858.731	22341
858.864	22318
858.997	22303
859.13	22322
859.263	22405
859.396	22485
859.529	22303
859.662	22382
859.795	22246
859.928	22280
860.061	22523
860.194	22641
860.327	22500
860.46	22409
860.592	22573
860.725	22489
860.858	22542
860.99	22413
861.123	22413
861.256	22242
861.388	22455
861.521	23166
861.653	22101
861.786	22211
861.918	22192
862.05	22204
862.183	22341
862.315	22295
862.447	22295
862.58	22223
862.712	22025
862.844	22048
862.976	22124
863.108	22188
863.24	22592
863.372	21994
863.504	22177
863.636	22109
863.768	22211
863.9	22120
864.032	21953
864.164	22040
864.296	22207
864.428	22226
864.559	22078
864.691	22310
864.823	22048
864.954	22097
865.086	22002
865.217	21983
865.349	21934
865.48	22025
865.612	21926
865.743	22105
865.875	21827
866.006	21956
866.137	22036
866.269	21968
866.4	21960
866.531	21953
866.662	21846
866.793	21835
866.924	22017
867.055	21842
867.186	21880
867.317	21804
867.448	21808
867.579	21838
867.71	21808
867.841	21808
867.972	21835
868.103	21778
868.233	21854
868.364	21953
868.495	22112
868.625	22021
868.756	22188
868.886	22025
869.017	22093
869.147	22185
869.278	22230
869.408	22135
869.539	22090
869.669	22204
869.799	22124
869.929	22306
870.06	22291
870.19	22436
870.32	22405
870.45	22428
870.58	22535
870.71	22630
870.84	22660
870.97	22630
871.1	22603
871.23	22706
871.36	22828
871.489	22599
871.619	22793
871.749	22767
871.879	22713
872.008	22862
872.138	22641
872.267	22755
872.397	22668
872.526	22588
872.656	22596
872.785	22508
872.915	22660
873.044	22877
873.173	22717
873.303	22831
873.432	22736
873.561	22782
873.69	22702
873.819	22733
873.948	22782
874.077	22805
874.206	22713
874.335	22694
874.464	22805
874.593	22942
874.722	22790
874.851	23022
874.979	23022
875.108	23037
875.237	22984
875.365	22755
875.494	22923
875.623	23071
875.751	23003
875.88	23025
876.008	23098
876.136	23136
876.265	23292
876.393	23425
876.521	23379
876.65	23490
876.778	23315
876.906	23280
877.034	23162
877.162	23284
877.29	23303
877.418	23341
877.546	23345
877.674	23250
877.802	23349
877.93	23425
878.058	23140
878.185	23124
878.313	23410
878.441	23261
878.568	23223
878.696	23273
878.824	23547
878.951	23280
879.079	23474
879.206	23573
879.333	23528
879.461	23334
879.588	23299
879.715	23471
879.842	23634
879.97	23337
880.097	23044
880.224	23128
880.351	23162
880.478	23010
880.605	23083
880.732	23121
880.859	23372
880.986	23037
881.112	23220
881.239	23010
881.366	22812
881.493	22793
881.619	22702
881.746	22752
881.872	22649
881.999	22702
882.125	22710
882.252	22694
882.378	22637
882.505	22672
882.631	22455
882.757	22504
882.883	22394
883.01	22344
883.136	22310
883.262	22242
883.388	22166
883.514	22318
883.64	22459
883.766	22299
883.892	22067
884.018	22280
884.143	22314
884.269	22329
884.395	22116
884.52	22086
884.646	21987
884.772	21861
884.897	21941
885.023	21975
885.148	22055
885.274	22067
885.399	22074
885.524	22013
885.65	22029
885.775	21994
885.9	22013
886.025	21972
886.15	21911
886.275	21956
886.4	21842
886.525	22051
886.65	21903
886.775	21880
886.9	21979
887.025	22223
887.149	21846
887.274	21789
887.399	21751
887.523	21751
887.648	21675
887.773	21557
887.897	21808
888.021	21720
888.146	21698
888.27	21899
888.395	21816
888.519	21762
888.643	21861
888.767	21846
888.891	21686
889.015	21606
889.139	21682
889.263	21587
889.387	21576
889.511	21770
889.635	21667
889.759	21610
889.883	21511
890.006	21656
890.13	21736
890.254	21386
890.377	21443
890.501	21279
890.624	21245
890.748	21382
890.871	21233
890.995	21047
891.118	21043
891.241	21055
891.364	21127
891.488	21264
891.611	21047
891.734	21142
891.857	21211
891.98	20899
892.103	21169
892.226	21001
892.349	21005
892.471	20960
892.594	20918
892.717	21058
892.839	21085
892.962	20998
893.085	20956
893.207	21013
893.33	20895
893.452	20861
893.575	20956
893.697	20975
893.819	21058
893.941	21264
894.064	21123
894.186	21005
894.308	20967
894.43	21146
894.552	21100
894.674	21119
894.796	20929
894.918	20990
895.04	20952
895.161	20979
895.283	20956
895.405	20811
895.526	20849
895.648	20872
895.769	21013
895.891	21001
896.012	21131
896.134	20937
896.255	20979
896.376	20948
896.498	20948
896.619	21028
896.74	20937
896.861	20990
896.982	21329
897.103	21447
897.224	21199
897.345	21116
897.466	21104
897.587	21112
897.708	21355
897.828	21264
897.949	21043
898.07	21013
898.19	20971
898.311	21096
898.431	21131
898.552	21150
898.672	21291
898.792	21173
898.913	21199
899.033	21135
899.153	20948
899.273	20845
899.393	20876
899.513	20956
899.633	20982
899.753	21009
899.873	20838
899.993	20925
900.113	20933
900.232	20842
900.352	20765
900.472	20765
900.591	20617
900.711	20842
900.83	20636
900.95	20644
901.069	20800
901.189	20545
901.308	20381
901.427	20301
901.546	20313
901.665	20225
901.784	20336
901.904	20157
902.023	19959
902.141	19814
902.26	19750
902.379	19902
902.498	19799
902.617	19712
902.735	19761
902.854	19871
902.973	19674
903.091	19521
903.21	19331
903.328	19400
903.446	19324
903.565	19225
903.683	19266
903.801	19164
903.919	19175
904.038	19137
904.156	19008
904.274	19122
904.392	19080
904.51	18977
904.627	18886
904.745	18996
904.863	19004
904.981	18810
905.098	18669
905.216	18559
905.334	18612
905.451	18749
905.569	18582
905.686	18669
905.803	18627
905.921	18471
906.038	18513
906.155	18342
906.272	18289
906.389	18285
906.506	18174
906.623	18163
906.74	18091
906.857	18022
906.974	17988
907.091	18201
907.208	18254
907.324	18121
907.441	18079
907.557	17916
907.674	17851
907.79	17821
907.907	17821
908.023	17851
908.139	17916
908.256	17710
908.372	17786
908.488	17748
908.604	17623
908.72	17509
908.836	17585
908.952	17490
909.068	17539
909.184	17680
909.3	17619
909.415	17703
909.531	17608
909.647	17273
909.762	17239
909.878	17292
909.993	17318
910.108	17250
910.224	17223
910.339	17140
910.454	17109
910.57	17083
910.685	16968
910.8	17212
910.915	17200
911.03	17155
911.145	17052
911.259	16805
911.374	16873
911.489	16831
911.604	16824
911.718	16603
911.833	16687
911.947	16516
912.062	16402
912.176	16672
912.291	16561
912.405	16641
912.519	16778
912.633	16786
912.748	16615
912.862	16592
912.976	16394
913.09	16348
913.204	16386
913.318	16440
913.431	16607
913.545	16485
913.659	16436
913.772	16341
913.886	16238
914	16234
914.113	16356
914.226	16246
914.34	16272
914.453	16101
914.566	16223
914.68	16059
914.793	16044
914.906	15998
915.019	15827
915.132	15865
915.245	15785
915.358	15876
915.47	15778
915.583	15766
915.696	15835
915.809	15869
915.921	15899
916.034	15781
916.146	15652
916.259	15667
916.371	15781
916.483	15663
916.595	15572
916.708	15530
916.82	15614
916.932	15606
917.044	15534
917.156	15473
917.268	15439
917.38	15477
917.491	15298
917.603	15344
917.715	15405
917.826	15488
917.938	15363
918.049	15313
918.161	15344
918.272	15481
918.384	15553
918.495	15272
918.606	15233
918.717	15176
918.828	15184
918.939	15237
919.05	14990
919.161	15081
919.272	14914
919.383	14952
919.494	15188
919.604	15325
919.715	15226
919.826	14994
919.936	15176
920.047	15230
920.157	15062
920.267	15275
920.378	15154
920.488	15013
920.598	15264
920.708	15336
920.818	15291
920.928	15237
921.038	15370
921.148	15405
921.258	15123
921.368	15047
921.477	14830
921.587	14857
921.697	14731
921.806	14876
921.916	14762
922.025	14480
922.134	14545
922.244	14328
922.353	14602
922.462	14343
922.571	14233
922.68	14157
922.789	13993
922.898	14172
923.007	14035
923.116	14130
923.224	14077
923.333	14050
923.442	14058
923.55	13986
923.659	14031
923.767	14008
923.876	13936
923.984	13955
924.092	13788
924.201	13818
924.309	13852
924.417	13780
924.525	13753
924.633	13712
924.741	14689
924.849	13605
924.956	13704
925.064	13537
925.172	13483
925.279	13487
925.387	13559
925.494	13491
925.602	13537
925.709	13525
925.816	13426
925.924	13403
926.031	13468
926.138	13373
926.245	13453
926.352	13362
926.459	13525
926.566	13552
926.673	13343
926.779	13327
926.886	13270
926.993	13057
927.099	13126
927.206	12973
927.312	13023
927.419	13057
927.525	13046
927.631	13023
927.737	12947
927.843	12848
927.95	12677
928.056	12951
928.162	12878
928.267	12856
928.373	13495
928.479	12920
928.585	12734
928.69	12760
928.796	12768
928.901	12662
929.007	12563
929.112	12715
929.218	12662
929.323	12582
929.428	12540
929.533	12631
929.638	12513
929.743	12467
929.848	12604
929.953	12483
930.058	12391
930.163	12224
930.267	12296
930.372	12395
930.477	12163
930.581	12422
930.685	12270
930.79	12095
930.894	12121
930.998	12106
931.103	12205
931.207	11904
931.311	11802
931.415	11737
931.519	11467
931.623	11509
