Data from test_V78500241_1198.txt Node
Date: Fri Mar 25 15:50:06 CST 2022
User: usil
Spectrometer: V785-0024
Trigger mode: 0
Integration Time (sec): 4.000000E-1
Scans to average: 1
Nonlinearity correction enabled: false
Boxcar width: 0
Storing dark spectrum: false
XAxis mode: Wavelengths
Number of Pixels in Spectrum: 1024
>>>>>Begin Spectral Data<<<<<
801.071	28668
801.214	28664
801.356	28409
801.499	28348
801.641	28131
801.783	28116
801.926	28200
802.068	28249
802.211	28207
802.353	28086
802.496	27895
802.638	27831
802.78	27911
802.923	27895
803.065	27797
803.208	27831
803.35	27930
803.492	27953
803.635	27960
803.777	28025
803.919	28116
804.061	28379
804.204	28162
804.346	28116
804.488	28055
804.63	28154
804.773	28021
804.915	28204
805.057	28344
805.199	28192
805.341	28192
805.483	28394
805.626	28325
805.768	28204
805.91	28318
806.052	28325
806.194	28192
806.336	28386
806.478	28371
806.62	28280
806.762	28390
806.904	28569
807.046	28866
807.188	28683
807.33	28790
807.472	28900
807.614	28618
807.756	28649
807.898	28653
808.04	28615
808.182	28557
808.324	28565
808.465	28740
808.607	28801
808.749	28995
808.891	29064
809.033	29193
809.174	29086
809.316	28888
809.458	29098
809.6	28927
809.741	29189
809.883	29147
810.025	29265
810.166	29345
810.308	29311
810.45	29436
810.591	29166
810.733	29022
810.875	28919
811.016	28923
811.158	28949
811.299	29185
811.441	29223
811.582	29193
811.724	29025
811.865	29022
812.007	29025
812.148	29018
812.29	29048
812.431	29143
812.573	29345
812.714	29448
812.855	29627
812.997	29672
813.138	29889
813.279	29615
813.421	29444
813.562	29554
813.703	29452
813.845	29265
813.986	29090
814.127	28778
814.268	28755
814.41	28755
814.551	28725
814.692	28729
814.833	28645
814.974	28603
815.115	28656
815.256	28656
815.397	28687
815.539	28557
815.68	28554
815.821	28421
815.962	28592
816.103	28660
816.244	28356
816.385	28303
816.526	28200
816.666	28059
816.807	27983
816.948	28276
817.089	28173
817.23	27998
817.371	27991
817.512	28086
817.653	27972
817.793	28032
817.934	28063
818.075	28029
818.216	28131
818.356	28025
818.497	27907
818.638	27701
818.778	27781
818.919	27911
819.06	27694
819.2	27899
819.341	28090
819.481	28036
819.622	28188
819.762	28344
819.903	28272
820.043	28200
820.184	28090
820.324	28150
820.465	28234
820.605	28185
820.746	28154
820.886	27987
821.026	28162
821.167	28154
821.307	28128
821.447	28025
821.588	27926
821.728	27857
821.868	27652
822.008	27549
822.149	27557
822.289	27576
822.429	27211
822.569	27138
822.709	27192
822.849	27066
822.99	27150
823.13	27001
823.27	26990
823.41	26937
823.55	26746
823.69	26925
823.83	26986
823.97	26819
824.11	26583
824.25	26678
824.389	26606
824.529	26826
824.669	26552
824.809	26804
824.949	26792
825.089	26739
825.228	26826
825.368	26594
825.508	26621
825.648	26476
825.787	26587
825.927	26651
826.067	26518
826.206	26503
826.346	26549
826.485	26663
826.625	26606
826.765	26693
826.904	26640
827.044	26278
827.183	26339
827.323	26225
827.462	26240
827.601	26347
827.741	26370
827.88	26434
828.02	26149
828.159	26225
828.298	26282
828.437	26358
828.577	26248
828.716	26408
828.855	26084
828.994	25974
829.134	25993
829.273	26027
829.412	25898
829.551	25993
829.69	25921
829.829	25932
829.968	26043
830.107	26126
830.246	26046
830.385	25917
830.524	25875
830.663	25772
830.802	25704
830.941	25620
831.08	25548
831.219	25616
831.357	25655
831.496	25826
831.635	25563
831.774	25495
831.913	25476
832.051	25400
832.19	25407
832.329	25377
832.467	25339
832.606	25187
832.744	25194
832.883	25449
833.022	25194
833.16	25282
833.299	25228
833.437	25327
833.576	25388
833.714	25266
833.852	25415
833.991	25289
834.129	25339
834.267	25346
834.406	25304
834.544	25301
834.682	25449
834.821	25274
834.959	25472
835.097	25213
835.235	25293
835.373	25240
835.511	25217
835.65	25152
835.788	25168
835.926	25209
836.064	24958
836.202	25053
836.34	25084
836.478	25362
836.615	25156
836.753	25042
836.891	25171
837.029	25240
837.167	25133
837.305	25050
837.443	25015
837.58	25019
837.718	25103
837.856	24951
837.993	24970
838.131	24924
838.269	24783
838.406	24897
838.544	24810
838.681	24620
838.819	24616
838.956	24437
839.094	24410
839.231	24555
839.369	24574
839.506	24909
839.643	24661
839.781	24418
839.918	24441
840.055	24346
840.193	24300
840.33	24456
840.467	24414
840.604	24505
840.742	24631
840.879	24178
841.016	24304
841.153	24273
841.29	24361
841.427	24308
841.564	24338
841.701	24456
841.838	24338
841.975	24285
842.112	24247
842.249	24106
842.385	24155
842.522	24399
842.659	24060
842.796	24057
842.933	24121
843.069	23946
843.206	24007
843.343	24140
843.479	24057
843.616	24140
843.752	23893
843.889	24026
844.025	24038
844.162	23752
844.298	23980
844.435	23874
844.571	23897
844.708	23817
844.844	23988
844.98	24034
845.117	23927
845.253	23798
845.389	23745
845.525	23699
845.661	23840
845.798	23581
845.934	23611
846.07	23581
846.206	23543
846.342	23729
846.478	23512
846.614	23337
846.75	23147
846.886	23258
847.022	23406
847.158	23318
847.294	23269
847.429	23368
847.565	23170
847.701	23577
847.837	23033
847.972	23052
848.108	23162
848.244	23060
848.379	23041
848.515	22911
848.65	22858
848.786	22934
848.921	22927
849.057	22987
849.192	22942
849.328	22858
849.463	22911
849.598	22953
849.734	22828
849.869	22793
850.004	22569
850.14	22702
850.275	22565
850.41	22485
850.545	22599
850.68	22698
850.815	22653
850.95	22675
851.085	22759
851.22	22740
851.355	22653
851.49	22702
851.625	22672
851.76	22679
851.895	22523
852.03	22542
852.165	22672
852.299	22691
852.434	22755
852.569	22691
852.703	22645
852.838	22634
852.973	22919
853.107	22668
853.242	22641
853.376	22550
853.511	22337
853.645	22428
853.78	22481
853.914	22618
854.048	22443
854.183	22402
854.317	22592
854.451	22725
854.585	22402
854.72	22428
854.854	22519
854.988	22382
855.122	22405
855.256	22409
855.39	22367
855.524	22592
855.658	22489
855.792	22527
855.926	22497
856.06	22356
856.194	22565
856.327	22424
856.461	22337
856.595	22459
856.729	22402
856.862	22596
856.996	22561
857.13	22561
857.263	22672
857.397	22565
857.53	22500
857.664	22443
857.797	22478
857.931	22603
858.064	22531
858.197	22611
858.331	22409
858.464	22478
858.597	22508
858.731	22440
858.864	22500
858.997	22470
859.13	22394
859.263	22535
859.396	22596
859.529	22276
859.662	22459
859.795	22394
859.928	22493
860.061	22668
860.194	22596
860.327	22470
860.46	22500
860.592	22603
860.725	22725
860.858	22504
860.99	22436
861.123	22455
861.256	22535
861.388	22421
861.521	23162
861.653	22341
861.786	22215
861.918	22291
862.05	22322
862.183	22474
862.315	22356
862.447	22500
862.58	22398
862.712	22177
862.844	22131
862.976	22284
863.108	22249
863.24	22607
863.372	22169
863.504	22112
863.636	22173
863.768	22234
863.9	22223
864.032	22158
864.164	22120
864.296	22188
864.428	22363
864.559	22295
864.691	22299
864.823	22128
864.954	22120
865.086	22143
865.217	22188
865.349	22006
865.48	22025
865.612	22185
865.743	22177
865.875	22158
866.006	21998
866.137	22139
866.269	22154
866.4	22040
866.531	21975
866.662	22090
866.793	21945
866.924	22021
867.055	21953
867.186	22105
867.317	22025
867.448	21987
867.579	22032
867.71	21941
867.841	21880
867.972	22048
868.103	21960
868.233	22002
868.364	21915
868.495	22158
868.625	22230
868.756	22242
868.886	22082
869.017	22219
869.147	22398
869.278	22303
869.408	22192
869.539	22120
869.669	22344
869.799	22242
869.929	22363
870.06	22421
870.19	22599
870.32	22493
870.45	22580
870.58	22500
870.71	22740
870.84	22729
870.97	22717
871.1	22615
871.23	22793
871.36	22805
871.489	22630
871.619	22786
871.749	22717
871.879	22835
872.008	22961
872.138	22862
872.267	22892
872.397	22771
872.526	22649
872.656	22649
872.785	22675
872.915	22778
873.044	22915
873.173	22930
873.303	22938
873.432	22976
873.561	22953
873.69	22934
873.819	22744
873.948	22961
874.077	22896
874.206	22717
874.335	22835
874.464	22938
874.593	23048
874.722	22991
874.851	23102
874.979	23044
875.108	23162
875.237	22995
875.365	22908
875.494	22965
875.623	23064
875.751	23067
875.88	23121
876.008	23292
876.136	23292
876.265	23474
876.393	23573
876.521	23440
876.65	23634
876.778	23353
876.906	23448
877.034	23341
877.162	23303
877.29	23372
877.418	23376
877.546	23391
877.674	23414
877.802	23376
877.93	23353
878.058	23406
878.185	23326
878.313	23265
878.441	23307
878.568	23216
878.696	23311
878.824	23414
878.951	23539
879.079	23619
879.206	23760
879.333	23459
879.461	23562
879.588	23471
879.715	23596
879.842	23608
879.97	23425
880.097	23220
880.224	23117
880.351	23337
880.478	23242
880.605	23223
880.732	23280
880.859	23448
880.986	23204
881.112	23193
881.239	23174
881.366	22927
881.493	22862
881.619	22744
881.746	22828
881.872	22809
881.999	22816
882.125	22615
882.252	22801
882.378	22687
882.505	22847
882.631	22573
882.757	22481
882.883	22580
883.01	22428
883.136	22462
883.262	22421
883.388	22379
883.514	22481
883.64	22519
883.766	22314
883.892	22093
884.018	22257
884.143	22322
884.269	22424
884.395	22200
884.52	22181
884.646	22101
884.772	22006
884.897	22120
885.023	22143
885.148	22166
885.274	22158
885.399	22177
885.524	22090
885.65	22154
885.775	22143
885.9	22143
886.025	22249
886.15	22082
886.275	22074
886.4	21960
886.525	21979
886.65	21922
886.775	21964
886.9	22131
887.025	22219
887.149	22044
887.274	21918
887.399	21876
887.523	21831
887.648	21770
887.773	21641
887.897	21934
888.021	21968
888.146	21762
888.27	21899
888.395	21968
888.519	21892
888.643	21854
888.767	21778
888.891	21793
889.015	21629
889.139	21663
889.263	21576
889.387	21778
889.511	21842
889.635	21690
889.759	21633
889.883	21538
890.006	21553
890.13	21793
890.254	21481
890.377	21538
890.501	21344
890.624	21233
890.748	21412
890.871	21230
890.995	21230
891.118	21062
891.241	21233
891.364	21252
891.488	21264
891.611	21199
891.734	21222
891.857	21237
891.98	21226
892.103	21233
892.226	21180
892.349	21036
892.471	20906
892.594	21119
892.717	21100
892.839	21104
892.962	21017
893.085	21100
893.207	21119
893.33	20956
893.452	20941
893.575	21036
893.697	20960
893.819	21214
893.941	21272
894.064	21192
894.186	21039
894.308	21001
894.43	21169
894.552	21070
894.674	21138
894.796	20994
894.918	20944
895.04	21043
895.161	21135
895.283	21089
895.405	20975
895.526	21005
895.648	20933
895.769	21013
895.891	21039
896.012	21127
896.134	21089
896.255	21112
896.376	21047
896.498	21081
896.619	21096
896.74	21093
896.861	21180
896.982	21211
897.103	21481
897.224	21317
897.345	21249
897.466	21173
897.587	21230
897.708	21329
897.828	21222
897.949	21192
898.07	20944
898.19	21180
898.311	21389
898.431	21260
898.552	21279
898.672	21321
898.792	21359
898.913	21283
899.033	21112
899.153	21089
899.273	20906
899.393	20963
899.513	20963
899.633	21051
899.753	20994
899.873	20902
899.993	20967
900.113	20918
900.232	21058
900.352	20834
900.472	20845
900.591	20705
900.711	20754
900.83	20720
900.95	20777
901.069	20823
901.189	20739
901.308	20484
901.427	20244
901.546	20419
901.665	20377
901.784	20229
901.904	20142
902.023	20081
902.141	19974
902.26	19921
902.379	19955
902.498	19833
902.617	19772
902.735	19814
902.854	19753
902.973	19708
903.091	19438
903.21	19365
903.328	19453
903.446	19445
903.565	19289
903.683	19263
903.801	19095
903.919	19152
904.038	19206
904.156	19141
904.274	19133
904.392	18985
904.51	18977
904.627	18966
904.745	19034
904.863	19034
904.981	18871
905.098	18757
905.216	18635
905.334	18787
905.451	18738
905.569	18650
905.686	18745
905.803	18555
905.921	18426
906.038	18570
906.155	18471
906.272	18403
906.389	18372
906.506	18213
906.623	18194
906.74	18144
906.857	17992
906.974	18247
907.091	18251
907.208	18330
907.324	18197
907.441	18140
907.557	18038
907.674	18007
907.79	17809
907.907	18049
908.023	17954
908.139	18049
908.256	17859
908.372	17885
908.488	17821
908.604	17779
908.72	17562
908.836	17707
908.952	17573
909.068	17615
909.184	17745
909.3	17566
909.415	17665
909.531	17562
909.647	17524
909.762	17311
909.878	17227
909.993	17395
910.108	17364
910.224	17322
910.339	17337
910.454	17223
910.57	17086
910.685	17022
910.8	17414
910.915	17280
911.03	17086
911.145	16911
911.259	16934
911.374	16809
911.489	16717
911.604	16771
911.718	16675
911.833	16710
911.947	16584
912.062	16497
912.176	16691
912.291	16622
912.405	16653
912.519	16866
912.633	16793
912.748	16546
912.862	16713
912.976	16554
913.09	16386
913.204	16428
913.318	16360
913.431	16599
913.545	16508
913.659	16569
913.772	16455
913.886	16226
914	16287
914.113	16325
914.226	16314
914.34	16291
914.453	16078
914.566	16272
914.68	16090
914.793	16139
914.906	15953
915.019	15865
915.132	15842
915.245	15831
915.358	15804
915.47	15888
915.583	15751
915.696	15808
915.809	15968
915.921	16029
916.034	15690
916.146	15671
916.259	15660
916.371	15869
916.483	15724
916.595	15633
916.708	15652
916.82	15644
916.932	15530
917.044	15519
917.156	15545
917.268	15435
917.38	15477
917.491	15428
917.603	15473
917.715	15469
917.826	15591
917.938	15378
918.049	15264
918.161	15492
918.272	15584
918.384	15530
918.495	15519
918.606	15207
918.717	15180
918.828	15291
918.939	15272
919.05	15169
919.161	15241
919.272	15017
919.383	14952
919.494	15142
919.604	15336
919.715	15188
919.826	15039
919.936	15112
920.047	15195
920.157	15138
920.267	15294
920.378	15226
920.488	15062
920.598	15329
920.708	15473
920.818	15359
920.928	15268
921.038	15454
921.148	15428
921.258	15093
921.368	15032
921.477	14902
921.587	14868
921.697	14712
921.806	14952
921.916	14765
922.025	14530
922.134	14537
922.244	14434
922.353	14545
922.462	14381
922.571	14317
922.68	14214
922.789	14138
922.898	14187
923.007	14012
923.116	14191
923.224	14088
923.333	14084
923.442	13944
923.55	13947
923.659	14005
923.767	14024
923.876	13951
923.984	13982
924.092	13856
924.201	13875
924.309	13887
924.417	13909
924.525	13757
924.633	13750
924.741	14499
924.849	13559
924.956	13677
925.064	13586
925.172	13419
925.279	13502
925.387	13521
925.494	13578
925.602	13666
925.709	13483
925.816	13312
925.924	13544
926.031	13559
926.138	13422
926.245	13483
926.352	13381
926.459	13506
926.566	13563
926.673	13396
926.779	13327
926.886	13320
926.993	13129
927.099	13088
927.206	13118
927.312	13027
927.419	13149
927.525	13091
927.631	13050
927.737	13004
927.843	13019
927.95	12859
928.056	12905
928.162	12951
928.267	13015
928.373	13719
928.479	13000
928.585	12722
928.69	12905
928.796	13061
928.901	12817
929.007	12604
929.112	12738
929.218	12730
929.323	12726
929.428	12574
929.533	12810
929.638	12639
929.743	12563
929.848	12696
929.953	12608
930.058	12517
930.163	12277
930.267	12372
930.372	12407
930.477	12243
930.581	12509
930.685	12296
930.79	12125
930.894	12266
930.998	12171
931.103	12296
931.207	11920
931.311	11866
931.415	11840
931.519	11539
931.623	11566
