Data from test_V78500241_2271.txt Node
Date: Fri Mar 25 15:57:31 CST 2022
User: usil
Spectrometer: V785-0024
Trigger mode: 0
Integration Time (sec): 4.000000E-1
Scans to average: 1
Nonlinearity correction enabled: false
Boxcar width: 0
Storing dark spectrum: false
XAxis mode: Wavelengths
Number of Pixels in Spectrum: 1024
>>>>>Begin Spectral Data<<<<<
801.071	29239
801.214	29216
801.356	29044
801.499	28999
801.641	28873
801.783	28900
801.926	28919
802.068	28965
802.211	28771
802.353	28748
802.496	28607
802.638	28592
802.78	28653
802.923	28592
803.065	28474
803.208	28493
803.35	28736
803.492	28740
803.635	28873
803.777	28717
803.919	28824
804.061	29227
804.204	28805
804.346	28888
804.488	28771
804.63	28835
804.773	28797
804.915	28885
805.057	28896
805.199	28938
805.341	28919
805.483	29010
805.626	29044
805.768	28995
805.91	29075
806.052	29071
806.194	28980
806.336	29174
806.478	29044
806.62	29079
806.762	29086
806.904	29303
807.046	29573
807.188	29448
807.33	29570
807.472	29551
807.614	29520
807.756	29360
807.898	29387
808.04	29421
808.182	29482
808.324	29375
808.465	29410
808.607	29638
808.749	29741
808.891	29832
809.033	29847
809.174	29828
809.316	29687
809.458	29828
809.6	29767
809.741	29843
809.883	29874
810.025	29984
810.166	30057
810.308	30057
810.45	30076
810.591	30034
810.733	29855
810.875	29836
811.016	29699
811.158	29501
811.299	29828
811.441	29882
811.582	29901
811.724	29878
811.865	29649
812.007	29714
812.148	29874
812.29	29908
812.431	30072
812.573	30163
812.714	30323
812.855	30403
812.997	30486
813.138	30566
813.279	30437
813.421	30460
813.562	30361
813.703	30194
813.845	30011
813.986	29855
814.127	29623
814.268	29410
814.41	29573
814.551	29478
814.692	29474
814.833	29429
814.974	29303
815.115	29520
815.256	29337
815.397	29493
815.539	29414
815.68	29204
815.821	29235
815.962	29417
816.103	29402
816.244	29094
816.385	29128
816.526	29014
816.666	28946
816.807	28919
816.948	28946
817.089	29003
817.23	28774
817.371	28710
817.512	28900
817.653	28980
817.793	28820
817.934	28923
818.075	28888
818.216	28957
818.356	28797
818.497	28793
818.638	28538
818.778	28527
818.919	28679
819.06	28656
819.2	28839
819.341	28790
819.481	28927
819.622	29220
819.762	29197
819.903	29140
820.043	29048
820.184	29064
820.324	29083
820.465	29109
820.605	29083
820.746	28896
820.886	28862
821.026	29083
821.167	28942
821.307	29109
821.447	28763
821.588	28820
821.728	28679
821.868	28428
822.008	28356
822.149	28310
822.289	28268
822.429	28067
822.569	27956
822.709	28109
822.849	27831
822.99	27827
823.13	27907
823.27	27808
823.41	27553
823.55	27724
823.69	27800
823.83	27595
823.97	27644
824.11	27469
824.25	27351
824.389	27618
824.529	27671
824.669	27504
824.809	27606
824.949	27492
825.089	27435
825.228	27629
825.368	27306
825.508	27359
825.648	27466
825.787	27344
825.927	27439
826.067	27386
826.206	27386
826.346	27496
826.485	27439
826.625	27427
826.765	27576
826.904	27435
827.044	27165
827.183	27180
827.323	27127
827.462	27287
827.601	27077
827.741	26982
827.88	27195
828.02	26929
828.159	27093
828.298	27146
828.437	27260
828.577	27085
828.716	27173
828.855	27001
828.994	26868
829.134	26857
829.273	26781
829.412	26746
829.551	26655
829.69	26857
829.829	26811
829.968	26864
830.107	26727
830.246	26731
830.385	26674
830.524	26568
830.663	26545
830.802	26526
830.941	26301
831.08	26313
831.219	26415
831.357	26404
831.496	26587
831.635	26473
831.774	26339
831.913	26256
832.051	26157
832.19	26058
832.329	26240
832.467	26168
832.606	26103
832.744	25993
832.883	26142
833.022	26126
833.16	25928
833.299	26176
833.437	26088
833.576	26073
833.714	26164
833.852	26111
833.991	26035
834.129	26229
834.267	26164
834.406	26100
834.544	26172
834.682	26115
834.821	26058
834.959	26294
835.097	26119
835.235	26126
835.373	26100
835.511	26225
835.65	25826
835.788	25986
835.926	25963
836.064	25727
836.202	25925
836.34	25986
836.478	25974
836.615	25955
836.753	25887
836.891	26077
837.029	26035
837.167	25818
837.305	25951
837.443	25803
837.58	25723
837.718	25788
837.856	25784
837.993	25769
838.131	25712
838.269	25590
838.406	25795
838.544	25476
838.681	25320
838.819	25312
838.956	25152
839.094	25160
839.231	25331
839.369	25384
839.506	25674
839.643	25476
839.781	25171
839.918	25129
840.055	25213
840.193	25114
840.33	25122
840.467	24935
840.604	25141
840.742	25396
840.879	24939
841.016	25065
841.153	25031
841.29	25236
841.427	25027
841.564	25160
841.701	25164
841.838	25065
841.975	25015
842.112	24973
842.249	24905
842.385	24905
842.522	25080
842.659	24951
842.796	24924
842.933	24928
843.069	24772
843.206	24753
843.343	25023
843.479	24932
843.616	24886
843.752	24608
843.889	24620
844.025	24745
844.162	24616
844.298	24757
844.435	24722
844.571	24525
844.708	24623
844.844	24973
844.98	24920
845.117	24658
845.253	24593
845.389	24559
845.525	24433
845.661	24623
845.798	24281
845.934	24540
846.07	24273
846.206	24399
846.342	24369
846.478	24350
846.614	24155
846.75	23988
846.886	24114
847.022	24174
847.158	24159
847.294	24209
847.429	24194
847.565	23988
847.701	24285
847.837	23901
847.972	23809
848.108	23863
848.244	23885
848.379	23752
848.515	23615
848.65	23684
848.786	23653
848.921	23642
849.057	23760
849.192	23684
849.328	23805
849.463	23783
849.598	23672
849.734	23558
849.869	23528
850.004	23463
850.14	23531
850.275	23547
850.41	23379
850.545	23486
850.68	23520
850.815	23402
850.95	23429
851.085	23539
851.22	23406
851.355	23471
851.49	23417
851.625	23452
851.76	23486
851.895	23265
852.03	23509
852.165	23429
852.299	23501
852.434	23554
852.569	23467
852.703	23421
852.838	23425
852.973	23547
853.107	23649
853.242	23337
853.376	23379
853.511	23083
853.645	23303
853.78	23395
853.914	23254
854.048	23261
854.183	23098
854.317	23242
854.451	23509
854.585	23235
854.72	23379
854.854	23337
854.988	23185
855.122	23353
855.256	23105
855.39	23250
855.524	23296
855.658	23261
855.792	23132
855.926	23303
856.06	23140
856.194	23288
856.327	23296
856.461	23204
856.595	23204
856.729	23212
856.862	23227
856.996	23235
857.13	23200
857.263	23376
857.397	23296
857.53	23220
857.664	23242
857.797	23269
857.931	23341
858.064	23315
858.197	23387
858.331	23227
858.464	23147
858.597	23155
858.731	23159
858.864	23296
858.997	23117
859.13	23284
859.263	23326
859.396	23463
859.529	23223
859.662	23265
859.795	23189
859.928	23181
860.061	23440
860.194	23471
860.327	23341
860.46	23299
860.592	23322
860.725	23364
860.858	23318
860.99	23140
861.123	23178
861.256	23364
861.388	23235
861.521	23984
861.653	23071
861.786	23098
861.918	23102
862.05	22999
862.183	23200
862.315	23178
862.447	23242
862.58	23090
862.712	22900
862.844	23037
862.976	23136
863.108	23113
863.24	23444
863.372	22763
863.504	23006
863.636	22938
863.768	23044
863.9	23025
864.032	22828
864.164	22873
864.296	22953
864.428	23025
864.559	22972
864.691	23029
864.823	23029
864.954	22885
865.086	22911
865.217	22809
865.349	22820
865.48	22755
865.612	22782
865.743	22980
865.875	22915
866.006	22759
866.137	22801
866.269	22828
866.4	22774
866.531	22706
866.662	22706
866.793	22767
866.924	22835
867.055	22729
867.186	22816
867.317	22630
867.448	22630
867.579	22626
867.71	22573
867.841	22565
867.972	22721
868.103	22759
868.233	22687
868.364	22713
868.495	22820
868.625	22980
868.756	23064
868.886	22896
869.017	22953
869.147	23098
869.278	23220
869.408	22984
869.539	22965
869.669	23064
869.799	23044
869.929	23181
870.06	23094
870.19	23124
870.32	23239
870.45	23417
870.58	23364
870.71	23425
870.84	23410
870.97	23337
871.1	23360
871.23	23562
871.36	23573
871.489	23482
871.619	23623
871.749	23528
871.879	23668
872.008	23821
872.138	23585
872.267	23649
872.397	23463
872.526	23414
872.656	23501
872.785	23330
872.915	23668
873.044	23767
873.173	23551
873.303	23585
873.432	23585
873.561	23573
873.69	23570
873.819	23501
873.948	23745
874.077	23707
874.206	23558
874.335	23471
874.464	23684
874.593	23863
874.722	23722
874.851	23775
874.979	23760
875.108	23794
875.237	23722
875.365	23680
875.494	23893
875.623	23737
875.751	23859
875.88	23855
876.008	23843
876.136	24015
876.265	24095
876.393	24407
876.521	24239
876.65	24220
876.778	24228
876.906	24125
877.034	24201
877.162	24117
877.29	24064
877.418	24197
877.546	24155
877.674	24106
877.802	24197
877.93	24079
878.058	24129
878.185	24079
878.313	23984
878.441	23992
878.568	23901
878.696	23977
878.824	24163
878.951	24140
879.079	24304
879.206	24357
879.333	24171
879.461	24114
879.588	24319
879.715	24258
879.842	24277
879.97	24106
880.097	23939
880.224	23923
880.351	23840
880.478	23912
880.605	23843
880.732	23855
880.859	24159
880.986	23859
881.112	24083
881.239	23718
881.366	23703
881.493	23573
881.619	23425
881.746	23653
881.872	23589
881.999	23471
882.125	23440
882.252	23364
882.378	23402
882.505	23604
882.631	23311
882.757	23166
882.883	23212
883.01	23235
883.136	23208
883.262	22915
883.388	23006
883.514	23121
883.64	23094
883.766	23128
883.892	22889
884.018	23018
884.143	23041
884.269	23155
884.395	22786
884.52	22702
884.646	22759
884.772	22759
884.897	22702
885.023	22896
885.148	22862
885.274	22828
885.399	22843
885.524	22774
885.65	22790
885.775	22797
885.9	22710
886.025	22778
886.15	22839
886.275	22740
886.4	22691
886.525	22755
886.65	22725
886.775	22831
886.9	22892
887.025	22908
887.149	22748
887.274	22615
887.399	22489
887.523	22474
887.648	22478
887.773	22341
887.897	22618
888.021	22557
888.146	22398
888.27	22645
888.395	22569
888.519	22550
888.643	22481
888.767	22516
888.891	22497
889.015	22287
889.139	22470
889.263	22306
889.387	22447
889.511	22493
889.635	22409
889.759	22299
889.883	22230
890.006	22325
890.13	22440
890.254	22261
890.377	22280
890.501	22029
890.624	21884
890.748	22139
890.871	21926
890.995	21774
891.118	21724
891.241	21861
891.364	21880
891.488	21972
891.611	21915
891.734	21819
891.857	21945
891.98	21808
892.103	21972
892.226	21846
892.349	21759
892.471	21648
892.594	21663
892.717	21781
892.839	21500
892.962	21618
893.085	21835
893.207	21854
893.33	21618
893.452	21660
893.575	21709
893.697	21644
893.819	21797
893.941	21899
894.064	21861
894.186	21690
894.308	21622
894.43	21705
894.552	21850
894.674	21770
894.796	21553
894.918	21667
895.04	21797
895.161	21903
895.283	21800
895.405	21652
895.526	21595
895.648	21625
895.769	21667
895.891	21663
896.012	21751
896.134	21663
896.255	21785
896.376	21545
896.498	21701
896.619	21625
896.74	21698
896.861	21720
896.982	21945
897.103	22116
897.224	21964
897.345	21941
897.466	21873
897.587	21861
897.708	22010
897.828	21934
897.949	21804
898.07	21819
898.19	21781
898.311	21918
898.431	21751
898.552	21915
898.672	21937
898.792	21987
898.913	21899
899.033	21759
899.153	21637
899.273	21599
899.393	21568
899.513	21644
899.633	21561
899.753	21652
899.873	21477
899.993	21561
900.113	21523
900.232	21523
900.352	21485
900.472	21397
900.591	21351
900.711	21317
900.83	21275
900.95	21504
901.069	21469
901.189	21283
901.308	20967
901.427	20902
901.546	20986
901.665	20887
901.784	20876
901.904	20914
902.023	20651
902.141	20507
902.26	20427
902.379	20408
902.498	20343
902.617	20309
902.735	20332
902.854	20298
902.973	20339
903.091	20084
903.21	20008
903.328	20096
903.446	19947
903.565	19765
903.683	19856
903.801	19689
903.919	19799
904.038	19765
904.156	19666
904.274	19700
904.392	19586
904.51	19582
904.627	19609
904.745	19738
904.863	19651
904.981	19499
905.098	19301
905.216	19259
905.334	19228
905.451	19270
905.569	19270
905.686	19244
905.803	19259
905.921	19038
906.038	19240
906.155	19118
906.272	18909
906.389	19084
906.506	18760
906.623	18829
906.74	18829
906.857	18639
906.974	18722
907.091	18772
907.208	18844
907.324	18962
907.441	18681
907.557	18460
907.674	18517
907.79	18441
907.907	18464
908.023	18483
908.139	18604
908.256	18426
908.372	18414
908.488	18384
908.604	18247
908.72	18205
908.836	18205
908.952	18148
909.068	18174
909.184	18357
909.3	18220
909.415	18213
909.531	18110
909.647	17969
909.762	17889
909.878	17897
909.993	17889
910.108	17870
910.224	17908
910.339	17904
910.454	17798
910.57	17714
910.685	17524
910.8	17908
910.915	17821
911.03	17657
911.145	17528
911.259	17421
911.374	17448
911.489	17417
911.604	17292
911.718	17102
911.833	17204
911.947	17052
912.062	17155
912.176	17220
912.291	17277
912.405	17242
912.519	17364
912.633	17360
912.748	17250
912.862	17162
912.976	16965
913.09	16911
913.204	16999
913.318	17037
913.431	17147
913.545	17117
913.659	17098
913.772	16953
913.886	16740
914	16706
914.113	16919
914.226	16885
914.34	16904
914.453	16691
914.566	16752
914.68	16672
914.793	16554
914.906	16333
915.019	16421
915.132	16306
915.245	16375
915.358	16341
915.47	16390
915.583	16268
915.696	16443
915.809	16386
915.921	16462
916.034	16337
916.146	16261
916.259	16139
916.371	16295
916.483	16284
916.595	16181
916.708	16234
916.82	16185
916.932	16078
917.044	16048
917.156	15979
917.268	15956
917.38	15968
917.491	16036
917.603	15956
917.715	15991
917.826	16067
917.938	15861
918.049	15717
918.161	15854
918.272	15907
918.384	15972
918.495	15888
918.606	15732
918.717	15622
918.828	15637
918.939	15629
919.05	15538
919.161	15667
919.272	15466
919.383	15561
919.494	15675
919.604	15892
919.715	15713
919.826	15515
919.936	15584
920.047	15671
920.157	15637
920.267	15797
920.378	15549
920.488	15622
920.598	15846
920.708	15888
920.818	15762
920.928	15736
921.038	15873
921.148	15861
921.258	15507
921.368	15538
921.477	15370
921.587	15374
921.697	15268
921.806	15294
921.916	15161
922.025	15100
922.134	14944
922.244	14883
922.353	14963
922.462	14826
922.571	14708
922.68	14602
922.789	14651
922.898	14632
923.007	14495
923.116	14689
923.224	14564
923.333	14545
923.442	14484
923.55	14408
923.659	14461
923.767	14530
923.876	14419
923.984	14457
924.092	14252
924.201	14309
924.309	14210
924.417	14313
924.525	14229
924.633	14298
924.741	15100
924.849	13955
924.956	14176
925.064	14046
925.172	13951
925.279	13883
925.387	14020
925.494	13917
925.602	14149
925.709	13997
925.816	13959
925.924	13967
926.031	14050
926.138	13902
926.245	13989
926.352	13791
926.459	13894
926.566	13932
926.673	13845
926.779	13696
926.886	13715
926.993	13616
927.099	13586
927.206	13396
927.312	13430
927.419	13552
927.525	13502
927.631	13597
927.737	13362
927.843	13392
927.95	13247
928.056	13346
928.162	13270
928.267	13384
928.373	13864
928.479	13419
928.585	13141
928.69	13301
928.796	13320
928.901	13209
929.007	13034
929.112	13175
929.218	13183
929.323	13065
929.428	12973
929.533	13080
929.638	12977
929.743	12932
929.848	13050
929.953	13038
930.058	12913
930.163	12673
930.267	12662
930.372	12791
930.477	12700
930.581	12890
930.685	12753
930.79	12540
930.894	12578
930.998	12528
931.103	12677
931.207	12239
931.311	12243
931.415	12026
931.519	12049
931.623	11999
