Data from test_V78500241_3501.txt Node
Date: Fri Mar 25 16:06:03 CST 2022
User: usil
Spectrometer: V785-0024
Trigger mode: 0
Integration Time (sec): 4.000000E-1
Scans to average: 1
Nonlinearity correction enabled: false
Boxcar width: 0
Storing dark spectrum: false
XAxis mode: Wavelengths
Number of Pixels in Spectrum: 1024
>>>>>Begin Spectral Data<<<<<
801.071	28965
801.214	28930
801.356	28664
801.499	28672
801.641	28527
801.783	28409
801.926	28451
802.068	28360
802.211	28413
802.353	28436
802.496	28204
802.638	28200
802.78	28154
802.923	28055
803.065	28116
803.208	28090
803.35	28128
803.492	28341
803.635	28386
803.777	28447
803.919	28360
804.061	28721
804.204	28470
804.346	28329
804.488	28238
804.63	28455
804.773	28478
804.915	28561
805.057	28523
805.199	28394
805.341	28485
805.483	28550
805.626	28443
805.768	28634
805.91	28615
806.052	28512
806.194	28375
806.336	28759
806.478	28615
806.62	28550
806.762	28679
806.904	28858
807.046	29159
807.188	29071
807.33	29132
807.472	29086
807.614	29067
807.756	28965
807.898	28995
808.04	28790
808.182	28835
808.324	28934
808.465	29018
808.607	29124
808.749	29181
808.891	29353
809.033	29471
809.174	29539
809.316	29170
809.458	29254
809.6	29216
809.741	29337
809.883	29486
810.025	29661
810.166	29566
810.308	29547
810.45	29577
810.591	29512
810.733	29395
810.875	29204
811.016	29277
811.158	29216
811.299	29318
811.441	29512
811.582	29467
811.724	29303
811.865	29220
812.007	29349
812.148	29360
812.29	29387
812.431	29471
812.573	29520
812.714	29684
812.855	29809
812.997	29961
813.138	30038
813.279	30057
813.421	29912
813.562	29802
813.703	29570
813.845	29497
813.986	29303
814.127	29235
814.268	28927
814.41	29067
814.551	29037
814.692	28919
814.833	28949
814.974	28953
815.115	28961
815.256	28892
815.397	28911
815.539	28854
815.68	28854
815.821	28763
815.962	28881
816.103	28782
816.244	28592
816.385	28618
816.526	28599
816.666	28481
816.807	28238
816.948	28333
817.089	28481
817.23	28367
817.371	28348
817.512	28242
817.653	28344
817.793	28322
817.934	28196
818.075	28360
818.216	28352
818.356	28238
818.497	28162
818.638	27994
818.778	28143
818.919	28185
819.06	28192
819.2	28150
819.341	28314
819.481	28276
819.622	28523
819.762	28790
819.903	28698
820.043	28740
820.184	28303
820.324	28569
820.465	28516
820.605	28443
820.746	28428
820.886	28375
821.026	28398
821.167	28561
821.307	28344
821.447	28390
821.588	28280
821.728	28078
821.868	28006
822.008	27857
822.149	27774
822.289	27934
822.429	27629
822.569	27530
822.709	27473
822.849	27431
822.99	27329
823.13	27192
823.27	27226
823.41	27268
823.55	27138
823.69	27176
823.83	27119
823.97	27093
824.11	26823
824.25	26883
824.389	27051
824.529	27154
824.669	26956
824.809	27039
824.949	27043
825.089	27074
825.228	27074
825.368	26834
825.508	26925
825.648	26781
825.787	26830
825.927	26967
826.067	26899
826.206	26792
826.346	26982
826.485	27009
826.625	26880
826.765	26960
826.904	26788
827.044	26788
827.183	26651
827.323	26415
827.462	26602
827.601	26545
827.741	26438
827.88	26587
828.02	26492
828.159	26644
828.298	26575
828.437	26644
828.577	26533
828.716	26678
828.855	26328
828.994	26256
829.134	26252
829.273	26233
829.412	26298
829.551	26237
829.69	26309
829.829	26347
829.968	26263
830.107	26195
830.246	26286
830.385	26237
830.524	26168
830.663	26062
830.802	25913
830.941	25928
831.08	25940
831.219	25928
831.357	25982
831.496	26069
831.635	25963
831.774	25852
831.913	25769
832.051	25655
832.19	25635
832.329	25620
832.467	25601
832.606	25445
832.744	25453
832.883	25506
833.022	25510
833.16	25628
833.299	25605
833.437	25525
833.576	25609
833.714	25590
833.852	25700
833.991	25712
834.129	25700
834.267	25734
834.406	25556
834.544	25689
834.682	25578
834.821	25559
834.959	25719
835.097	25571
835.235	25662
835.373	25525
835.511	25460
835.65	25499
835.788	25476
835.926	25339
836.064	25255
836.202	25285
836.34	25358
836.478	25609
836.615	25552
836.753	25384
836.891	25548
837.029	25415
837.167	25308
837.305	25282
837.443	25282
837.58	25141
837.718	25175
837.856	25289
837.993	25183
838.131	25164
838.269	25202
838.406	25118
838.544	25012
838.681	24958
838.819	24852
838.956	24730
839.094	24753
839.231	24821
839.369	24825
839.506	25118
839.643	24878
839.781	24715
839.918	24661
840.055	24631
840.193	24730
840.33	24616
840.467	24593
840.604	24722
840.742	24840
840.879	24342
841.016	24486
841.153	24525
841.29	24635
841.427	24574
841.564	24669
841.701	24585
841.838	24570
841.975	24445
842.112	24517
842.249	24475
842.385	24509
842.522	24544
842.659	24426
842.796	24334
842.933	24403
843.069	24365
843.206	24365
843.343	24403
843.479	24346
843.616	24330
843.752	24079
843.889	24216
844.025	24163
844.162	24209
844.298	24323
844.435	24148
844.571	24049
844.708	24197
844.844	24266
844.98	24311
845.117	24224
845.253	24053
845.389	24098
845.525	24098
845.661	23999
845.798	23855
845.934	23961
846.07	23710
846.206	23870
846.342	24095
846.478	23843
846.614	23779
846.75	23649
846.886	23577
847.022	23600
847.158	23573
847.294	23668
847.429	23783
847.565	23604
847.701	23901
847.837	23326
847.972	23322
848.108	23410
848.244	23315
848.379	23200
848.515	23105
848.65	23246
848.786	23124
848.921	23159
849.057	23372
849.192	23273
849.328	23277
849.463	23113
849.598	23117
849.734	23117
849.869	23060
850.004	23033
850.14	22911
850.275	22957
850.41	22908
850.545	22839
850.68	22900
850.815	22980
850.95	22866
851.085	23143
851.22	23056
851.355	22991
851.49	23022
851.625	22949
851.76	22858
851.895	22763
852.03	22850
852.165	22877
852.299	22961
852.434	23105
852.569	23056
852.703	22923
852.838	22923
852.973	23151
853.107	23048
853.242	22809
853.376	22778
853.511	22778
853.645	22710
853.78	22873
853.914	22812
854.048	22653
854.183	22702
854.317	22782
854.451	22984
854.585	22752
854.72	22675
854.854	22908
854.988	22797
855.122	22748
855.256	22683
855.39	22759
855.524	22847
855.658	22854
855.792	22763
855.926	22797
856.06	22729
856.194	22774
856.327	22790
856.461	22637
856.595	22656
856.729	22694
856.862	22809
856.996	22908
857.13	22687
857.263	22953
857.397	22847
857.53	22729
857.664	22782
857.797	22797
857.931	22752
858.064	22767
858.197	22858
858.331	22759
858.464	22748
858.597	22748
858.731	22733
858.864	22721
858.997	22733
859.13	22778
859.263	22767
859.396	22752
859.529	22786
859.662	22607
859.795	22736
859.928	22786
860.061	22927
860.194	22877
860.327	22820
860.46	22759
860.592	22911
860.725	22896
860.858	22885
860.99	22763
861.123	22615
861.256	22637
861.388	22816
861.521	23318
861.653	22626
861.786	22557
861.918	22615
862.05	22698
862.183	22717
862.315	22767
862.447	22752
862.58	22637
862.712	22516
862.844	22478
862.976	22523
863.108	22516
863.24	22683
863.372	22409
863.504	22531
863.636	22538
863.768	22436
863.9	22440
864.032	22421
864.164	22493
864.296	22618
864.428	22542
864.559	22573
864.691	22611
864.823	22588
864.954	22478
865.086	22360
865.217	22466
865.349	22268
865.48	22375
865.612	22333
865.743	22348
865.875	22352
866.006	22379
866.137	22322
866.269	22348
866.4	22223
866.531	22204
866.662	22284
866.793	22261
866.924	22223
867.055	22211
867.186	22299
867.317	22188
867.448	22177
867.579	22124
867.71	22204
867.841	22234
867.972	22295
868.103	22295
868.233	22318
868.364	22287
868.495	22272
868.625	22455
868.756	22592
868.886	22535
869.017	22516
869.147	22535
869.278	22630
869.408	22527
869.539	22607
869.669	22596
869.799	22523
869.929	22596
870.06	22626
870.19	22820
870.32	22824
870.45	22858
870.58	22915
870.71	22911
870.84	22930
870.97	22961
871.1	22843
871.23	23025
871.36	23208
871.489	22847
871.619	23147
871.749	22995
871.879	23193
872.008	23117
872.138	23010
872.267	23022
872.397	22949
872.526	23029
872.656	22984
872.785	22972
872.915	23231
873.044	23181
873.173	23166
873.303	23166
873.432	23261
873.561	23258
873.69	23212
873.819	23124
873.948	23162
874.077	23200
874.206	23159
874.335	23060
874.464	23204
874.593	23315
874.722	23345
874.851	23315
874.979	23398
875.108	23406
875.237	23311
875.365	23254
875.494	23212
875.623	23322
875.751	23162
875.88	23360
876.008	23360
876.136	23623
876.265	23676
876.393	23741
876.521	23756
876.65	23904
876.778	23726
876.906	23691
877.034	23638
877.162	23665
877.29	23592
877.418	23653
877.546	23680
877.674	23539
877.802	23573
877.93	23604
878.058	23638
878.185	23558
878.313	23710
878.441	23699
878.568	23383
878.696	23627
878.824	23676
878.951	23794
879.079	23809
879.206	23863
879.333	23855
879.461	23733
879.588	23714
879.715	23984
879.842	24011
879.97	23775
880.097	23501
880.224	23364
880.351	23604
880.478	23463
880.605	23406
880.732	23452
880.859	23764
880.986	23566
881.112	23577
881.239	23436
881.366	23277
881.493	23223
881.619	23098
881.746	23052
881.872	23033
881.999	23079
882.125	22930
882.252	23121
882.378	23064
882.505	23083
882.631	22946
882.757	22691
882.883	22675
883.01	22675
883.136	22653
883.262	22603
883.388	22481
883.514	22809
883.64	22694
883.766	22653
883.892	22512
884.018	22637
884.143	22634
884.269	22721
884.395	22413
884.52	22363
884.646	22386
884.772	22344
884.897	22230
885.023	22341
885.148	22489
885.274	22462
885.399	22417
885.524	22299
885.65	22478
885.775	22352
885.9	22230
886.025	22440
886.15	22451
886.275	22352
886.4	22276
886.525	22405
886.65	22284
886.775	22223
886.9	22470
887.025	22607
887.149	22341
887.274	22169
887.399	22196
887.523	21960
887.648	22013
887.773	21983
887.897	22131
888.021	22204
888.146	22078
888.27	22128
888.395	21953
888.519	22147
888.643	21975
888.767	22025
888.891	21949
889.015	21869
889.139	22036
889.263	21972
889.387	22010
889.511	22116
889.635	22040
889.759	22017
889.883	21884
890.006	21831
890.13	21968
890.254	21835
890.377	21888
890.501	21625
890.624	21671
890.748	21724
890.871	21618
890.995	21542
891.118	21488
891.241	21485
891.364	21526
891.488	21583
891.611	21530
891.734	21336
891.857	21496
891.98	21519
892.103	21458
892.226	21435
892.349	21431
892.471	21329
892.594	21351
892.717	21363
892.839	21367
892.962	21363
893.085	21279
893.207	21340
893.33	21184
893.452	21313
893.575	21340
893.697	21389
893.819	21454
893.941	21469
894.064	21488
894.186	21275
894.308	21176
894.43	21408
894.552	21496
894.674	21351
894.796	21344
894.918	21245
895.04	21245
895.161	21515
895.283	21374
895.405	21344
895.526	21214
895.648	21283
895.769	21302
895.891	21401
896.012	21515
896.134	21313
896.255	21264
896.376	21287
896.498	21382
896.619	21237
896.74	21157
896.861	21344
896.982	21504
897.103	21709
897.224	21469
897.345	21492
897.466	21401
897.587	21435
897.708	21622
897.828	21549
897.949	21424
898.07	21450
898.19	21469
898.311	21614
898.431	21393
898.552	21587
898.672	21519
898.792	21564
898.913	21443
899.033	21336
899.153	21367
899.273	21264
899.393	21317
899.513	21275
899.633	21268
899.753	21211
899.873	21154
899.993	21252
900.113	21195
900.232	21226
900.352	21112
900.472	20960
900.591	20902
900.711	20963
900.83	20933
900.95	21150
901.069	21005
901.189	20823
901.308	20648
901.427	20568
901.546	20560
901.665	20556
901.784	20450
901.904	20431
902.023	20339
902.141	20126
902.26	20039
902.379	20317
902.498	20005
902.617	20069
902.735	20043
902.854	20084
902.973	20054
903.091	19875
903.21	19769
903.328	19826
903.446	19445
903.565	19552
903.683	19453
903.801	19301
903.919	19392
904.038	19388
904.156	19324
904.274	19365
904.392	19148
904.51	19164
904.627	19251
904.745	19312
904.863	19244
904.981	19061
905.098	18905
905.216	18966
905.334	18958
905.451	18878
905.569	18954
905.686	18939
905.803	18863
905.921	18681
906.038	18677
906.155	18798
906.272	18749
906.389	18616
906.506	18429
906.623	18460
906.74	18426
906.857	18308
906.974	18426
907.091	18536
907.208	18475
907.324	18559
907.441	18266
907.557	18289
907.674	18201
907.79	17969
907.907	18133
908.023	18209
908.139	18091
908.256	18197
908.372	18007
908.488	17908
908.604	17870
908.72	17889
908.836	17866
908.952	17836
909.068	17908
909.184	18011
909.3	17939
909.415	17866
909.531	17855
909.647	17691
909.762	17547
909.878	17562
909.993	17516
910.108	17539
910.224	17547
910.339	17459
910.454	17482
910.57	17250
910.685	17277
910.8	17535
910.915	17535
911.03	17349
911.145	17193
911.259	17136
911.374	17189
911.489	17041
911.604	16984
911.718	16790
911.833	16930
911.947	16816
912.062	16835
912.176	16816
912.291	16934
912.405	16862
912.519	17029
912.633	17132
912.748	16938
912.862	16919
912.976	16759
913.09	16603
913.204	16672
913.318	16683
913.431	16721
913.545	16850
913.659	16786
913.772	16622
913.886	16584
914	16519
914.113	16584
914.226	16561
914.34	16512
914.453	16306
914.566	16558
914.68	16363
914.793	16341
914.906	16120
915.019	15991
915.132	16090
915.245	16048
915.358	16158
915.47	15983
915.583	16010
915.696	16090
915.809	16097
915.921	16158
916.034	15941
916.146	15899
916.259	15945
916.371	15987
916.483	16002
916.595	15812
916.708	15793
916.82	15861
916.932	15804
917.044	15785
917.156	15869
917.268	15660
917.38	15709
917.491	15652
917.603	15652
917.715	15709
917.826	15770
917.938	15671
918.049	15534
918.161	15644
918.272	15743
918.384	15728
918.495	15568
918.606	15416
918.717	15370
918.828	15420
918.939	15500
919.05	15310
919.161	15367
919.272	15180
919.383	15173
919.494	15401
919.604	15580
919.715	15355
919.826	15321
919.936	15279
920.047	15378
920.157	15313
920.267	15526
920.378	15378
920.488	15351
920.598	15500
920.708	15625
920.818	15450
920.928	15469
921.038	15622
921.148	15610
921.258	15374
921.368	15157
921.477	15062
921.587	14986
921.697	14986
921.806	15001
921.916	14906
922.025	14773
922.134	14739
922.244	14632
922.353	14724
922.462	14568
922.571	14507
922.68	14313
922.789	14237
922.898	14343
923.007	14210
923.116	14355
923.224	14301
923.333	14298
923.442	14240
923.55	14180
923.659	14202
923.767	14225
923.876	14065
923.984	14214
924.092	14027
924.201	14031
924.309	14096
924.417	14103
924.525	13963
924.633	13814
924.741	14872
924.849	13761
924.956	13833
925.064	13757
925.172	13563
925.279	13746
925.387	13719
925.494	13616
925.602	13833
925.709	13791
925.816	13620
925.924	13734
926.031	13712
926.138	13647
926.245	13677
926.352	13655
926.459	13837
926.566	13655
926.673	13605
926.779	13449
926.886	13403
926.993	13377
927.099	13228
927.206	13183
927.312	13141
927.419	13289
927.525	13206
927.631	13255
927.737	13126
927.843	13129
927.95	13034
928.056	13057
928.162	13038
928.267	13133
928.373	13719
928.479	13160
928.585	12840
928.69	12996
928.796	13095
928.901	12897
929.007	12764
929.112	12913
929.218	12829
929.323	12798
929.428	12749
929.533	12840
929.638	12719
929.743	12684
929.848	12817
929.953	12703
930.058	12627
930.163	12323
930.267	12418
930.372	12589
930.477	12426
930.581	12646
930.685	12433
930.79	12296
930.894	12361
930.998	12201
931.103	12414
931.207	12053
931.311	11984
931.415	11790
931.519	11764
931.623	11684
