Data from test_V78500241_3541.txt Node
Date: Fri Mar 25 16:06:19 CST 2022
User: usil
Spectrometer: V785-0024
Trigger mode: 0
Integration Time (sec): 4.000000E-1
Scans to average: 1
Nonlinearity correction enabled: false
Boxcar width: 0
Storing dark spectrum: false
XAxis mode: Wavelengths
Number of Pixels in Spectrum: 1024
>>>>>Begin Spectral Data<<<<<
801.071	29136
801.214	28923
801.356	28866
801.499	28698
801.641	28485
801.783	28466
801.926	28607
802.068	28542
802.211	28557
802.353	28470
802.496	28333
802.638	28371
802.78	28242
802.923	28261
803.065	28185
803.208	28177
803.35	28226
803.492	28394
803.635	28401
803.777	28322
803.919	28371
804.061	28740
804.204	28588
804.346	28474
804.488	28348
804.63	28409
804.773	28325
804.915	28683
805.057	28706
805.199	28557
805.341	28573
805.483	28687
805.626	28580
805.768	28500
805.91	28668
806.052	28687
806.194	28618
806.336	28721
806.478	28774
806.62	28847
806.762	28767
806.904	28984
807.046	29265
807.188	29102
807.33	29265
807.472	29261
807.614	29204
807.756	29098
807.898	29083
808.04	28972
808.182	28972
808.324	28987
808.465	29052
808.607	29322
808.749	29467
808.891	29600
809.033	29558
809.174	29455
809.316	29471
809.458	29330
809.6	29242
809.741	29463
809.883	29665
810.025	29710
810.166	29661
810.308	29531
810.45	29707
810.591	29638
810.733	29471
810.875	29406
811.016	29296
811.158	29303
811.299	29482
811.441	29570
811.582	29642
811.724	29497
811.865	29406
812.007	29501
812.148	29360
812.29	29501
812.431	29630
812.573	29824
812.714	29878
812.855	29961
812.997	29954
813.138	30216
813.279	30079
813.421	29969
813.562	29969
813.703	29771
813.845	29600
813.986	29440
814.127	29296
814.268	29140
814.41	29132
814.551	29090
814.692	29174
814.833	29105
814.974	29261
815.115	29200
815.256	28942
815.397	29003
815.539	29086
815.68	28911
815.821	28942
815.962	29014
816.103	28923
816.244	28919
816.385	28812
816.526	28641
816.666	28523
816.807	28409
816.948	28523
817.089	28672
817.23	28611
817.371	28409
817.512	28451
817.653	28367
817.793	28428
817.934	28303
818.075	28481
818.216	28398
818.356	28478
818.497	28436
818.638	28276
818.778	28200
818.919	28211
819.06	28287
819.2	28371
819.341	28432
819.481	28550
819.622	28580
819.762	28759
819.903	28812
820.043	28618
820.184	28580
820.324	28554
820.465	28592
820.605	28660
820.746	28516
820.886	28447
821.026	28466
821.167	28538
821.307	28599
821.447	28413
821.588	28542
821.728	28246
821.868	28230
822.008	27926
822.149	27960
822.289	27998
822.429	27583
822.569	27599
822.709	27728
822.849	27481
822.99	27564
823.13	27572
823.27	27458
823.41	27131
823.55	27138
823.69	27233
823.83	27420
823.97	27268
824.11	27081
824.25	26975
824.389	27180
824.529	27077
824.669	27165
824.809	27256
824.949	27359
825.089	27176
825.228	27176
825.368	26925
825.508	26937
825.648	26834
825.787	26910
825.927	27028
826.067	26998
826.206	26967
826.346	27089
826.485	27116
826.625	26864
826.765	27142
826.904	26990
827.044	26712
827.183	26746
827.323	26674
827.462	26853
827.601	26697
827.741	26674
827.88	26773
828.02	26727
828.159	26602
828.298	26720
828.437	26739
828.577	26678
828.716	26735
828.855	26598
828.994	26324
829.134	26427
829.273	26298
829.412	26408
829.551	26332
829.69	26393
829.829	26381
829.968	26579
830.107	26400
830.246	26393
830.385	26385
830.524	26404
830.663	26233
830.802	26180
830.941	26054
831.08	26008
831.219	26050
831.357	26077
831.496	26256
831.635	25875
831.774	26001
831.913	25974
832.051	25666
832.19	25761
832.329	25811
832.467	25780
832.606	25594
832.744	25548
832.883	25685
833.022	25651
833.16	25628
833.299	25753
833.437	25597
833.576	25772
833.714	25795
833.852	25731
833.991	25841
834.129	25765
834.267	25887
834.406	25700
834.544	25826
834.682	25712
834.821	25693
834.959	25822
835.097	25594
835.235	25772
835.373	25719
835.511	25643
835.65	25521
835.788	25658
835.926	25479
836.064	25312
836.202	25396
836.34	25548
836.478	25655
836.615	25472
836.753	25533
836.891	25518
837.029	25537
837.167	25708
837.305	25396
837.443	25487
837.58	25381
837.718	25499
837.856	25457
837.993	25343
838.131	25278
838.269	25346
838.406	25148
838.544	25118
838.681	25129
838.819	24916
838.956	24867
839.094	24825
839.231	24844
839.369	25042
839.506	25247
839.643	25107
839.781	24856
839.918	24779
840.055	24863
840.193	24806
840.33	24688
840.467	24753
840.604	24779
840.742	25046
840.879	24517
841.016	24719
841.153	24654
841.29	24798
841.427	24703
841.564	24764
841.701	24722
841.838	24753
841.975	24616
842.112	24711
842.249	24525
842.385	24380
842.522	24719
842.659	24585
842.796	24418
842.933	24486
843.069	24517
843.206	24479
843.343	24502
843.479	24521
843.616	24547
843.752	24273
843.889	24308
844.025	24380
844.162	24258
844.298	24338
844.435	24205
844.571	24346
844.708	24258
844.844	24407
844.98	24315
845.117	24490
845.253	24334
845.389	24072
845.525	24163
845.661	24205
845.798	24011
845.934	24049
846.07	24026
846.206	23935
846.342	24152
846.478	23935
846.614	23722
846.75	23638
846.886	23756
847.022	23805
847.158	23832
847.294	23695
847.429	23703
847.565	23718
847.701	23885
847.837	23505
847.972	23429
848.108	23478
848.244	23512
848.379	23398
848.515	23299
848.65	23311
848.786	23455
848.921	23299
849.057	23391
849.192	23398
849.328	23318
849.463	23421
849.598	23239
849.734	23181
849.869	23067
850.004	23056
850.14	23185
850.275	23136
850.41	23052
850.545	23064
850.68	23098
850.815	23044
850.95	23098
851.085	23227
851.22	23250
851.355	23231
851.49	23083
851.625	23124
851.76	23086
851.895	22995
852.03	23014
852.165	23098
852.299	23193
852.434	23193
852.569	23029
852.703	23033
852.838	23212
852.973	23094
853.107	23151
853.242	23048
853.376	22946
853.511	22733
853.645	22946
853.78	22942
853.914	22858
854.048	22831
854.183	22953
854.317	22957
854.451	23064
854.585	22972
854.72	22919
854.854	22949
854.988	22908
855.122	22892
855.256	22767
855.39	22896
855.524	23064
855.658	22953
855.792	22938
855.926	22915
856.06	22858
856.194	22961
856.327	22965
856.461	22862
856.595	22786
856.729	22877
856.862	23056
856.996	22881
857.13	23041
857.263	23086
857.397	23044
857.53	22889
857.664	22995
857.797	22949
857.931	23060
858.064	23022
858.197	23025
858.331	22881
858.464	22850
858.597	22847
858.731	22839
858.864	22866
858.997	22938
859.13	22843
859.263	22908
859.396	23022
859.529	22976
859.662	22820
859.795	22801
859.928	22999
860.061	23098
860.194	23132
860.327	23041
860.46	22938
860.592	22972
860.725	22968
860.858	23006
860.99	22949
861.123	22854
861.256	22927
861.388	22847
861.521	23798
861.653	22843
861.786	22740
861.918	22653
862.05	22843
862.183	22934
862.315	22953
862.447	23033
862.58	22934
862.712	22649
862.844	22554
862.976	22702
863.108	22527
863.24	23140
863.372	22527
863.504	22596
863.636	22641
863.768	22580
863.9	22497
864.032	22493
864.164	22584
864.296	22588
864.428	22588
864.559	22637
864.691	22740
864.823	22729
864.954	22584
865.086	22615
865.217	22493
865.349	22394
865.48	22535
865.612	22504
865.743	22580
865.875	22470
866.006	22459
866.137	22409
866.269	22462
866.4	22485
866.531	22523
866.662	22394
866.793	22440
866.924	22485
867.055	22508
867.186	22485
867.317	22466
867.448	22356
867.579	22348
867.71	22314
867.841	22253
867.972	22531
868.103	22382
868.233	22413
868.364	22432
868.495	22451
868.625	22774
868.756	22782
868.886	22607
869.017	22793
869.147	22778
869.278	22740
869.408	22653
869.539	22649
869.669	22801
869.799	22744
869.929	22778
870.06	22672
870.19	22987
870.32	23079
870.45	23052
870.58	23003
870.71	23094
870.84	23151
870.97	23067
871.1	23075
871.23	23216
871.36	23162
871.489	23246
871.619	23250
871.749	23307
871.879	23463
872.008	23398
872.138	23174
872.267	23311
872.397	23113
872.526	23003
872.656	23174
872.785	23098
872.915	23292
873.044	23406
873.173	23189
873.303	23345
873.432	23288
873.561	23284
873.69	23261
873.819	23277
873.948	23440
874.077	23353
874.206	23242
874.335	23261
874.464	23349
874.593	23535
874.722	23486
874.851	23551
874.979	23589
875.108	23436
875.237	23486
875.365	23391
875.494	23467
875.623	23566
875.751	23467
875.88	23436
876.008	23554
876.136	23630
876.265	23931
876.393	23992
876.521	23935
876.65	23923
876.778	23813
876.906	23897
877.034	23843
877.162	23824
877.29	23680
877.418	23874
877.546	23828
877.674	23817
877.802	23733
877.93	23786
878.058	23703
878.185	23657
878.313	23756
878.441	23741
878.568	23592
878.696	23722
878.824	23927
878.951	23832
879.079	24049
879.206	24186
879.333	23950
879.461	23771
879.588	24018
879.715	23977
879.842	24197
879.97	23798
880.097	23695
880.224	23543
880.351	23691
880.478	23672
880.605	23524
880.732	23737
880.859	23847
880.986	23562
881.112	23665
881.239	23467
881.366	23406
881.493	23151
881.619	23204
881.746	23349
881.872	23242
881.999	23189
882.125	23056
882.252	23132
882.378	23140
882.505	23254
882.631	23037
882.757	22965
882.883	23113
883.01	22949
883.136	22850
883.262	22755
883.388	22767
883.514	22858
883.64	22869
883.766	22721
883.892	22531
884.018	22713
884.143	22835
884.269	22843
884.395	22611
884.52	22386
884.646	22497
884.772	22462
884.897	22478
885.023	22569
885.148	22561
885.274	22580
885.399	22459
885.524	22462
885.65	22542
885.775	22527
885.9	22432
886.025	22500
886.15	22554
886.275	22451
886.4	22436
886.525	22409
886.65	22405
886.775	22386
886.9	22546
887.025	22717
887.149	22481
887.274	22314
887.399	22238
887.523	22234
887.648	22185
887.773	22162
887.897	22291
888.021	22261
888.146	22242
888.27	22314
888.395	22306
888.519	22253
888.643	22310
888.767	22333
888.891	22234
889.015	22135
889.139	22059
889.263	21994
889.387	21918
889.511	22249
889.635	22090
889.759	21994
889.883	22070
890.006	22086
890.13	22074
890.254	21918
890.377	21873
890.501	21831
890.624	21812
890.748	21812
890.871	21671
890.995	21473
891.118	21454
891.241	21580
891.364	21553
891.488	21827
891.611	21557
891.734	21542
891.857	21622
891.98	21736
892.103	21610
892.226	21641
892.349	21504
892.471	21180
892.594	21477
892.717	21519
892.839	21450
892.962	21447
893.085	21466
893.207	21367
893.33	21291
893.452	21435
893.575	21545
893.697	21439
893.819	21629
893.941	21705
894.064	21572
894.186	21462
894.308	21389
894.43	21625
894.552	21660
894.674	21542
894.796	21340
894.918	21511
895.04	21283
895.161	21416
895.283	21504
895.405	21405
895.526	21462
895.648	21447
895.769	21469
895.891	21515
896.012	21580
896.134	21473
896.255	21420
896.376	21287
896.498	21363
896.619	21515
896.74	21435
896.861	21458
896.982	21762
897.103	21827
897.224	21568
897.345	21625
897.466	21583
897.587	21663
897.708	21743
897.828	21557
897.949	21606
898.07	21401
898.19	21431
898.311	21629
898.431	21587
898.552	21561
898.672	21797
898.792	21698
898.913	21603
899.033	21435
899.153	21412
899.273	21382
899.393	21351
899.513	21340
899.633	21359
899.753	21306
899.873	21378
899.993	21336
900.113	21180
900.232	21313
900.352	21245
900.472	21252
900.591	21058
900.711	21138
900.83	21085
900.95	21218
901.069	21214
901.189	20948
901.308	20773
901.427	20800
901.546	20678
901.665	20746
901.784	20716
901.904	20655
902.023	20427
902.141	20374
902.26	20100
902.379	20263
902.498	20126
902.617	20130
902.735	20149
902.854	20153
902.973	20054
903.091	19894
903.21	19868
903.328	19849
903.446	19723
903.565	19609
903.683	19628
903.801	19563
903.919	19495
904.038	19548
904.156	19381
904.274	19449
904.392	19419
904.51	19400
904.627	19297
904.745	19499
904.863	19419
904.981	19373
905.098	19061
905.216	19118
905.334	19095
905.451	18989
905.569	18985
905.686	19122
905.803	18943
905.921	18810
906.038	18916
906.155	18791
906.272	18707
906.389	18791
906.506	18536
906.623	18551
906.74	18589
906.857	18498
906.974	18437
907.091	18525
907.208	18703
907.324	18517
907.441	18464
907.557	18262
907.674	18350
907.79	18243
907.907	18220
908.023	18262
908.139	18334
908.256	18228
908.372	18201
908.488	18178
908.604	17992
908.72	17912
908.836	18019
908.952	17980
909.068	17901
909.184	18079
909.3	17935
909.415	18064
909.531	18079
909.647	17665
909.762	17748
909.878	17585
909.993	17737
910.108	17714
910.224	17619
910.339	17528
910.454	17467
910.57	17474
910.685	17429
910.8	17649
910.915	17551
911.03	17547
911.145	17326
911.259	17250
911.374	17277
911.489	17208
911.604	17098
911.718	17006
911.833	17064
911.947	16877
912.062	16843
912.176	16892
912.291	17064
912.405	16953
912.519	17064
912.633	17098
912.748	17018
912.862	16976
912.976	16839
913.09	16653
913.204	16816
913.318	16820
913.431	16927
913.545	16782
913.659	16938
913.772	16660
913.886	16516
914	16660
914.113	16717
914.226	16668
914.34	16554
914.453	16443
914.566	16630
914.68	16508
914.793	16386
914.906	16223
915.019	16185
915.132	16078
915.245	16067
915.358	16116
915.47	16173
915.583	16101
915.696	16204
915.809	16265
915.921	16226
916.034	15987
916.146	15972
916.259	15968
916.371	16055
916.483	16082
916.595	15998
916.708	15972
916.82	15926
916.932	15915
917.044	15949
917.156	15865
917.268	15751
917.38	15728
917.491	15850
917.603	15736
917.715	15842
917.826	15804
917.938	15572
918.049	15610
918.161	15698
918.272	15850
918.384	15850
918.495	15644
918.606	15648
918.717	15389
918.828	15481
918.939	15595
919.05	15405
919.161	15477
919.272	15249
919.383	15351
919.494	15542
919.604	15667
919.715	15549
919.826	15424
919.936	15454
920.047	15515
920.157	15416
920.267	15618
920.378	15450
920.488	15329
920.598	15538
920.708	15698
920.818	15557
920.928	15542
921.038	15682
921.148	15641
921.258	15408
921.368	15332
921.477	15180
921.587	15097
921.697	15058
921.806	15066
921.916	15085
922.025	14880
922.134	14705
922.244	14712
922.353	14887
922.462	14560
922.571	14556
922.68	14499
922.789	14393
922.898	14488
923.007	14385
923.116	14336
923.224	14454
923.333	14396
923.442	14320
923.55	14320
923.659	14328
923.767	14393
923.876	14202
923.984	14210
924.092	14142
924.201	14180
924.309	14126
924.417	14157
924.525	14062
924.633	14046
924.741	14963
924.849	13967
924.956	14088
925.064	13818
925.172	13784
925.279	13814
925.387	13746
925.494	13795
925.602	13803
925.709	13849
925.816	13696
925.924	13727
926.031	13849
926.138	13681
926.245	13807
926.352	13662
926.459	13791
926.566	13814
926.673	13586
926.779	13521
926.886	13499
926.993	13426
927.099	13304
927.206	13251
927.312	13266
927.419	13388
927.525	13301
927.631	13297
927.737	13217
927.843	13168
927.95	13046
928.056	13107
928.162	13149
928.267	13175
928.373	13799
928.479	13107
928.585	12973
928.69	13133
928.796	13076
928.901	13008
929.007	12829
929.112	12985
929.218	12890
929.323	12817
929.428	12783
929.533	13027
929.638	12741
929.743	12844
929.848	12802
929.953	12745
930.058	12700
930.163	12426
930.267	12479
930.372	12616
930.477	12353
930.581	12677
930.685	12559
930.79	12380
930.894	12403
930.998	12422
931.103	12525
931.207	12140
931.311	12049
931.415	11874
931.519	11821
931.623	11752
