Data from test_V78500241_942.txt Node
Date: Fri Mar 25 15:48:19 CST 2022
User: usil
Spectrometer: V785-0024
Trigger mode: 0
Integration Time (sec): 4.000000E-1
Scans to average: 1
Nonlinearity correction enabled: false
Boxcar width: 0
Storing dark spectrum: false
XAxis mode: Wavelengths
Number of Pixels in Spectrum: 1024
>>>>>Begin Spectral Data<<<<<
801.071	28755
801.214	28554
801.356	28367
801.499	28303
801.641	28215
801.783	28257
801.926	28382
802.068	28325
802.211	28207
802.353	27949
802.496	27762
802.638	27869
802.78	27705
802.923	27736
803.065	27861
803.208	27930
803.35	27842
803.492	27987
803.635	28154
803.777	27835
803.919	28093
804.061	28219
804.204	28207
804.346	28070
804.488	27907
804.63	28086
804.773	27911
804.915	28173
805.057	28211
805.199	28055
805.341	28150
805.483	28249
805.626	28139
805.768	28051
805.91	28154
806.052	28306
806.194	28185
806.336	28371
806.478	28314
806.62	28234
806.762	28367
806.904	28618
807.046	28763
807.188	28535
807.33	28641
807.472	28713
807.614	28538
807.756	28698
807.898	28481
808.04	28375
808.182	28497
808.324	28641
808.465	28637
808.607	28782
808.749	28896
808.891	29117
809.033	29117
809.174	28961
809.316	28911
809.458	28881
809.6	28888
809.741	28976
809.883	29102
810.025	29181
810.166	29322
810.308	29250
810.45	29231
810.591	29185
810.733	28927
810.875	29121
811.016	28824
811.158	28820
811.299	29147
811.441	29037
811.582	29220
811.724	29079
811.865	28976
812.007	28911
812.148	29010
812.29	29029
812.431	29151
812.573	29372
812.714	29524
812.855	29516
812.997	29611
813.138	29756
813.279	29699
813.421	29551
813.562	29589
813.703	29425
813.845	29227
813.986	29018
814.127	28877
814.268	28702
814.41	28759
814.551	28668
814.692	28843
814.833	28577
814.974	28679
815.115	28763
815.256	28493
815.397	28462
815.539	28504
815.68	28443
815.821	28394
815.962	28561
816.103	28443
816.244	28291
816.385	28474
816.526	28158
816.666	28162
816.807	28006
816.948	28021
817.089	28169
817.23	28017
817.371	28025
817.512	27983
817.653	27926
817.793	27945
817.934	27934
818.075	27892
818.216	27941
818.356	27854
818.497	27869
818.638	27812
818.778	27781
818.919	27717
819.06	27732
819.2	27812
819.341	27968
819.481	27998
819.622	28219
819.762	28207
819.903	28200
820.043	28234
820.184	28128
820.324	28166
820.465	28169
820.605	28101
820.746	27987
820.886	27975
821.026	28154
821.167	28010
821.307	28147
821.447	28010
821.588	27876
821.728	27835
821.868	27705
822.008	27443
822.149	27530
822.289	27435
822.429	27169
822.569	27188
822.709	26960
822.849	26918
822.99	26921
823.13	26883
823.27	26979
823.41	26876
823.55	26701
823.69	26655
823.83	26868
823.97	26819
824.11	26655
824.25	26625
824.389	26708
824.529	26613
824.669	26697
824.809	26701
824.949	26773
825.089	26796
825.228	26716
825.368	26590
825.508	26552
825.648	26598
825.787	26404
825.927	26419
826.067	26492
826.206	26564
826.346	26499
826.485	26621
826.625	26545
826.765	26522
826.904	26419
827.044	26176
827.183	26355
827.323	26252
827.462	26210
827.601	26282
827.741	26263
827.88	26199
828.02	26046
828.159	26122
828.298	26256
828.437	26256
828.577	26142
828.716	26309
828.855	26054
828.994	26115
829.134	25894
829.273	25989
829.412	25814
829.551	25913
829.69	25940
829.829	25932
829.968	26168
830.107	25944
830.246	25951
830.385	25917
830.524	25784
830.663	25708
830.802	25666
830.941	25769
831.08	25613
831.219	25491
831.357	25590
831.496	25700
831.635	25426
831.774	25419
831.913	25388
832.051	25270
832.19	25141
832.329	25381
832.467	25179
832.606	25289
832.744	25232
832.883	25171
833.022	25122
833.16	25251
833.299	25095
833.437	25206
833.576	25282
833.714	25209
833.852	25304
833.991	25297
834.129	25362
834.267	25403
834.406	25198
834.544	25343
834.682	25221
834.821	25088
834.959	25449
835.097	25107
835.235	25194
835.373	25289
835.511	25152
835.65	25076
835.788	25156
835.926	25072
836.064	24863
836.202	24817
836.34	24992
836.478	25190
836.615	25114
836.753	25061
836.891	25099
837.029	25133
837.167	24989
837.305	25057
837.443	24920
837.58	24848
837.718	24943
837.856	24886
837.993	24776
838.131	24894
838.269	24700
838.406	24654
838.544	24787
838.681	24559
838.819	24616
838.956	24357
839.094	24342
839.231	24441
839.369	24513
839.506	24631
839.643	24627
839.781	24342
839.918	24209
840.055	24414
840.193	24254
840.33	24308
840.467	24277
840.604	24342
840.742	24521
840.879	24174
841.016	24296
841.153	24209
841.29	24486
841.427	24209
841.564	24254
841.701	24289
841.838	24197
841.975	24060
842.112	24353
842.249	24114
842.385	24053
842.522	24262
842.659	24133
842.796	23977
842.933	23931
843.069	23866
843.206	23889
843.343	24098
843.479	23965
843.616	23992
843.752	23805
843.889	23824
844.025	24057
844.162	23805
844.298	23863
844.435	23882
844.571	23893
844.708	23863
844.844	23931
844.98	23961
845.117	23870
845.253	23745
845.389	23707
845.525	23726
845.661	23634
845.798	23524
845.934	23615
846.07	23452
846.206	23436
846.342	23551
846.478	23440
846.614	23242
846.75	23117
846.886	23231
847.022	23349
847.158	23159
847.294	23223
847.429	23299
847.565	23307
847.701	23558
847.837	23067
847.972	22957
848.108	23075
848.244	23048
848.379	22835
848.515	22904
848.65	22774
848.786	22843
848.921	22889
849.057	22976
849.192	23029
849.328	22927
849.463	22854
849.598	22698
849.734	22858
849.869	22752
850.004	22611
850.14	22653
850.275	22664
850.41	22542
850.545	22432
850.68	22436
850.815	22702
850.95	22557
851.085	22763
851.22	22668
851.355	22656
851.49	22580
851.625	22527
851.76	22618
851.895	22459
852.03	22478
852.165	22607
852.299	22653
852.434	22565
852.569	22618
852.703	22630
852.838	22618
852.973	22927
853.107	22725
853.242	22580
853.376	22455
853.511	22360
853.645	22455
853.78	22546
853.914	22363
854.048	22493
854.183	22443
854.317	22451
854.451	22687
854.585	22500
854.72	22481
854.854	22474
854.988	22360
855.122	22314
855.256	22188
855.39	22402
855.524	22493
855.658	22440
855.792	22398
855.926	22356
856.06	22557
856.194	22535
856.327	22409
856.461	22314
856.595	22382
856.729	22295
856.862	22500
856.996	22481
857.13	22485
857.263	22512
857.397	22382
857.53	22436
857.664	22618
857.797	22557
857.931	22531
858.064	22523
858.197	22497
858.331	22447
858.464	22390
858.597	22386
858.731	22318
858.864	22405
858.997	22344
859.13	22299
859.263	22348
859.396	22615
859.529	22402
859.662	22341
859.795	22333
859.928	22367
860.061	22432
860.194	22424
860.327	22405
860.46	22344
860.592	22478
860.725	22542
860.858	22584
860.99	22432
861.123	22367
861.256	22360
861.388	22398
861.521	23033
861.653	22226
861.786	22253
861.918	22105
862.05	22223
862.183	22417
862.315	22428
862.447	22398
862.58	22299
862.712	22055
862.844	22086
862.976	22284
863.108	22226
863.24	22466
863.372	22051
863.504	22059
863.636	22040
863.768	22223
863.9	22086
864.032	22090
864.164	22036
864.296	22131
864.428	22268
864.559	22169
864.691	22124
864.823	22211
864.954	22048
865.086	22082
865.217	21979
865.349	21911
865.48	22013
865.612	22002
865.743	22055
865.875	21903
866.006	22013
866.137	22055
866.269	21991
866.4	21930
866.531	21994
866.662	21899
866.793	21918
866.924	21979
867.055	22032
867.186	21869
867.317	21816
867.448	21854
867.579	21888
867.71	21857
867.841	21827
867.972	21953
868.103	21854
868.233	21892
868.364	21888
868.495	22013
868.625	22002
868.756	22257
868.886	22013
869.017	22128
869.147	22215
869.278	22192
869.408	22318
869.539	22090
869.669	22367
869.799	22128
869.929	22287
870.06	22230
870.19	22500
870.32	22516
870.45	22550
870.58	22622
870.71	22569
870.84	22664
870.97	22523
871.1	22516
871.23	22752
871.36	22653
871.489	22691
871.619	22752
871.749	22694
871.879	22771
872.008	22976
872.138	22736
872.267	22763
872.397	22645
872.526	22641
872.656	22554
872.785	22451
872.915	22733
873.044	22797
873.173	22786
873.303	22752
873.432	22862
873.561	22828
873.69	22797
873.819	22790
873.948	22702
874.077	22626
874.206	22733
874.335	22797
874.464	22889
874.593	23029
874.722	23041
874.851	23155
874.979	22980
875.108	22972
875.237	22942
875.365	22805
875.494	23014
875.623	23052
875.751	22850
875.88	22972
876.008	23117
876.136	23166
876.265	23391
876.393	23436
876.521	23349
876.65	23292
876.778	23459
876.906	23220
877.034	23212
877.162	23459
877.29	23242
877.418	23140
877.546	23414
877.674	23307
877.802	23356
877.93	23322
878.058	23273
878.185	23113
878.313	23216
878.441	23299
878.568	23037
878.696	23269
878.824	23406
878.951	23417
879.079	23493
879.206	23566
879.333	23406
879.461	23372
879.588	23417
879.715	23482
879.842	23577
879.97	23360
880.097	23121
880.224	23166
880.351	23174
880.478	23189
880.605	23083
880.732	23193
880.859	23227
880.986	23098
881.112	23105
881.239	22927
881.366	22778
881.493	22828
881.619	22812
881.746	22771
881.872	22774
881.999	22687
882.125	22615
882.252	22748
882.378	22736
882.505	22778
882.631	22596
882.757	22390
882.883	22470
883.01	22306
883.136	22322
883.262	22249
883.388	22242
883.514	22360
883.64	22474
883.766	22299
883.892	22177
884.018	22322
884.143	22242
884.269	22344
884.395	22090
884.52	21880
884.646	22032
884.772	21899
884.897	21857
885.023	21937
885.148	22013
885.274	22162
885.399	22177
885.524	22036
885.65	22105
885.775	22059
885.9	22002
886.025	22048
886.15	22177
886.275	21903
886.4	21956
886.525	21941
886.65	21926
886.775	21941
886.9	22188
887.025	22097
887.149	21968
887.274	21800
887.399	21663
887.523	21778
887.648	21690
887.773	21698
887.897	21808
888.021	21873
888.146	21755
888.27	21869
888.395	21709
888.519	21724
888.643	21785
888.767	21781
888.891	21648
889.015	21526
889.139	21519
889.263	21500
889.387	21538
889.511	21827
889.635	21728
889.759	21412
889.883	21458
890.006	21549
890.13	21679
890.254	21389
890.377	21443
890.501	21306
890.624	21241
890.748	21351
890.871	21203
890.995	21104
891.118	21070
891.241	21005
891.364	21123
891.488	21298
891.611	21116
891.734	21077
891.857	21203
891.98	21138
892.103	21119
892.226	21089
892.349	21093
892.471	20963
892.594	21100
892.717	21005
892.839	20963
892.962	21028
893.085	21066
893.207	20979
893.33	21001
893.452	20971
893.575	21146
893.697	21028
893.819	21157
893.941	21268
894.064	21154
894.186	20910
894.308	20921
894.43	21055
894.552	21119
894.674	21093
894.796	20838
894.918	20990
895.04	20902
895.161	21047
895.283	20910
895.405	20872
895.526	21020
895.648	21047
895.769	21047
895.891	21005
896.012	21062
896.134	21119
896.255	20906
896.376	20971
896.498	20906
896.619	20986
896.74	20906
896.861	21081
896.982	21359
897.103	21393
897.224	21268
897.345	21298
897.466	21150
897.587	21188
897.708	21401
897.828	21237
897.949	21135
898.07	21036
898.19	21070
898.311	21268
898.431	21096
898.552	21081
898.672	21203
898.792	21268
898.913	21131
899.033	20979
899.153	20963
899.273	20792
899.393	20864
899.513	20982
899.633	20815
899.753	20967
899.873	20967
899.993	20864
900.113	20796
900.232	20914
900.352	20902
900.472	20849
900.591	20689
900.711	20716
900.83	20511
900.95	20667
901.069	20682
901.189	20579
901.308	20324
901.427	20278
901.546	20336
901.665	20225
901.784	20294
901.904	20103
902.023	20016
902.141	19849
902.26	19788
902.379	19868
902.498	19696
902.617	19693
902.735	19788
902.854	19742
902.973	19582
903.091	19343
903.21	19381
903.328	19354
903.446	19320
903.565	19236
903.683	19156
903.801	19065
903.919	19168
904.038	19137
904.156	19042
904.274	19034
904.392	18939
904.51	18817
904.627	18924
904.745	18943
904.863	18954
904.981	18814
905.098	18684
905.216	18585
905.334	18593
905.451	18722
905.569	18521
905.686	18726
905.803	18589
905.921	18460
906.038	18391
906.155	18372
906.272	18338
906.389	18334
906.506	18251
906.623	18209
906.74	18213
906.857	18022
906.974	18068
907.091	18152
907.208	18285
907.324	18148
907.441	18022
907.557	17859
907.674	17927
907.79	17878
907.907	17847
908.023	17950
908.139	17870
908.256	17745
908.372	17817
908.488	17832
908.604	17615
908.72	17638
908.836	17558
908.952	17532
909.068	17676
909.184	17714
909.3	17604
909.415	17554
909.531	17490
909.647	17280
909.762	17356
909.878	17269
909.993	17330
910.108	17223
910.224	17181
910.339	17261
910.454	17105
910.57	17067
910.685	17143
910.8	17322
910.915	17231
911.03	17010
911.145	17010
911.259	16835
911.374	16858
911.489	16835
911.604	16820
911.718	16550
911.833	16694
911.947	16546
912.062	16291
912.176	16622
912.291	16573
912.405	16599
912.519	16729
912.633	16694
912.748	16512
912.862	16634
912.976	16371
913.09	16329
913.204	16333
913.318	16459
913.431	16402
913.545	16493
913.659	16550
913.772	16432
913.886	16154
914	16173
914.113	16291
914.226	16356
914.34	16246
914.453	16169
914.566	16169
914.68	16116
914.793	16093
914.906	15869
915.019	15774
915.132	15797
915.245	15793
915.358	15873
915.47	15835
915.583	15793
915.696	15793
915.809	15903
915.921	15960
916.034	15720
916.146	15641
916.259	15701
916.371	15732
916.483	15682
916.595	15675
916.708	15625
916.82	15663
916.932	15656
917.044	15656
917.156	15504
917.268	15473
917.38	15469
917.491	15420
917.603	15439
917.715	15492
917.826	15492
917.938	15363
918.049	15237
918.161	15355
918.272	15466
918.384	15549
918.495	15279
918.606	15176
918.717	15085
918.828	15104
918.939	15241
919.05	15085
919.161	15081
919.272	14979
919.383	15001
919.494	15165
919.604	15272
919.715	15119
919.826	14960
919.936	15214
920.047	15142
920.157	15119
920.267	15336
920.378	15161
920.488	15013
920.598	15313
920.708	15378
920.818	15252
920.928	15173
921.038	15374
921.148	15325
921.258	15112
921.368	14872
921.477	14906
921.587	14781
921.697	14712
921.806	14796
921.916	14621
922.025	14404
922.134	14503
922.244	14400
922.353	14492
922.462	14450
922.571	14237
922.68	14107
922.789	14103
922.898	14100
923.007	14065
923.116	14103
923.224	14077
923.333	14046
923.442	13906
923.55	13902
923.659	13993
923.767	14024
923.876	13784
923.984	13898
924.092	13772
924.201	13852
924.309	13925
924.417	13715
924.525	13731
924.633	13837
924.741	14667
924.849	13548
924.956	13689
925.064	13571
925.172	13438
925.279	13468
925.387	13624
925.494	13491
925.602	13594
925.709	13514
925.816	13419
925.924	13381
926.031	13521
926.138	13460
926.245	13362
926.352	13293
926.459	13502
926.566	13464
926.673	13331
926.779	13232
926.886	13217
926.993	13145
927.099	13091
927.206	12996
927.312	12970
927.419	13069
927.525	13042
927.631	13042
927.737	12966
927.843	12886
927.95	12859
928.056	12882
928.162	12821
928.267	12954
928.373	13415
928.479	12844
928.585	12650
928.69	12859
928.796	12840
928.901	12665
929.007	12570
929.112	12745
929.218	12623
929.323	12544
929.428	12559
929.533	12696
929.638	12525
929.743	12506
929.848	12559
929.953	12521
930.058	12429
930.163	12205
930.267	12262
930.372	12418
930.477	12190
930.581	12441
930.685	12342
930.79	12129
930.894	12076
930.998	12110
931.103	12266
931.207	11840
931.311	11874
931.415	11707
931.519	11482
931.623	11482
