Data from test_V78500241_1503.txt Node
Date: Fri Mar 25 15:52:12 CST 2022
User: usil
Spectrometer: V785-0024
Trigger mode: 0
Integration Time (sec): 4.000000E-1
Scans to average: 1
Nonlinearity correction enabled: false
Boxcar width: 0
Storing dark spectrum: false
XAxis mode: Wavelengths
Number of Pixels in Spectrum: 1024
>>>>>Begin Spectral Data<<<<<
801.071	27797
801.214	27880
801.356	27568
801.499	27549
801.641	27416
801.783	27389
801.926	27507
802.068	27374
802.211	27359
802.353	27336
802.496	27100
802.638	27032
802.78	27100
802.923	27096
803.065	26967
803.208	26986
803.35	26979
803.492	27184
803.635	27256
803.777	27169
803.919	27188
804.061	27652
804.204	27348
804.346	27207
804.488	27131
804.63	27154
804.773	27165
804.915	27389
805.057	27378
805.199	27249
805.341	27317
805.483	27450
805.626	27511
805.768	27336
805.91	27603
806.052	27580
806.194	27287
806.336	27625
806.478	27587
806.62	27393
806.762	27542
806.904	27812
807.046	27812
807.188	27846
807.33	27781
807.472	27907
807.614	27812
807.756	27759
807.898	27614
808.04	27808
808.182	27663
808.324	27766
808.465	27884
808.607	27945
808.749	27949
808.891	28086
809.033	28177
809.174	28181
809.316	27926
809.458	28181
809.6	28051
809.741	28204
809.883	28287
810.025	28272
810.166	28337
810.308	28341
810.45	28257
810.591	28223
810.733	28120
810.875	28021
811.016	27964
811.158	27949
811.299	28124
811.441	28303
811.582	28215
811.724	28131
811.865	28093
812.007	28029
812.148	28147
812.29	28040
812.431	28371
812.573	28303
812.714	28390
812.855	28649
812.997	28622
813.138	28881
813.279	28748
813.421	28386
813.562	28592
813.703	28238
813.845	28188
813.986	28059
814.127	27918
814.268	27720
814.41	27854
814.551	27686
814.692	27869
814.833	27637
814.974	27717
815.115	27865
815.256	27625
815.397	27622
815.539	27443
815.68	27466
815.821	27389
815.962	27481
816.103	27534
816.244	27519
816.385	27378
816.526	27420
816.666	27146
816.807	27047
816.948	27039
817.089	27161
817.23	27119
817.371	27142
817.512	26906
817.653	27036
817.793	27074
817.934	27055
818.075	27146
818.216	27112
818.356	26883
818.497	26853
818.638	26754
818.778	26705
818.919	26746
819.06	26906
819.2	26826
819.341	27013
819.481	27077
819.622	27161
819.762	27249
819.903	27287
820.043	27138
820.184	27157
820.324	27138
820.465	27188
820.605	27241
820.746	27108
820.886	27032
821.026	27062
821.167	27077
821.307	27249
821.447	27096
821.588	26948
821.728	26864
821.868	26644
822.008	26583
822.149	26564
822.289	26389
822.429	26358
822.569	26161
822.709	26180
822.849	26054
822.99	25974
823.13	26012
823.27	25830
823.41	25655
823.55	25750
823.69	25887
823.83	25864
823.97	25723
824.11	25597
824.25	25738
824.389	25518
824.529	25738
824.669	25609
824.809	25963
824.949	25830
825.089	25681
825.228	25715
825.368	25620
825.508	25502
825.648	25460
825.787	25544
825.927	25571
826.067	25586
826.206	25434
826.346	25575
826.485	25575
826.625	25415
826.765	25616
826.904	25693
827.044	25316
827.183	25225
827.323	25225
827.462	25126
827.601	25388
827.741	25080
827.88	25285
828.02	25069
828.159	25278
828.298	25331
828.437	25274
828.577	25126
828.716	25362
828.855	25031
828.994	24859
829.134	24939
829.273	25046
829.412	24867
829.551	24928
829.69	25004
829.829	25038
829.968	25141
830.107	25076
830.246	24951
830.385	24787
830.524	24791
830.663	24726
830.802	24612
830.941	24578
831.08	24597
831.219	24479
831.357	24623
831.496	24700
831.635	24410
831.774	24391
831.913	24361
832.051	24422
832.19	24205
832.329	24308
832.467	24095
832.606	24220
832.744	24022
832.883	24285
833.022	24114
833.16	24273
833.299	24296
833.437	24338
833.576	24289
833.714	24277
833.852	24357
833.991	24171
834.129	24353
834.267	24361
834.406	24277
834.544	24292
834.682	24285
834.821	24258
834.959	24502
835.097	24220
835.235	24361
835.373	24262
835.511	24289
835.65	24190
835.788	24129
835.926	23992
836.064	23824
836.202	23954
836.34	24064
836.478	24148
836.615	24224
836.753	24064
836.891	24213
837.029	24091
837.167	24026
837.305	23980
837.443	23961
837.58	23901
837.718	23954
837.856	23988
837.993	23824
838.131	23935
838.269	23805
838.406	23870
838.544	23745
838.681	23592
838.819	23589
838.956	23463
839.094	23337
839.231	23505
839.369	23577
839.506	23775
839.643	23703
839.781	23452
839.918	23368
840.055	23307
840.193	23318
840.33	23387
840.467	23353
840.604	23421
840.742	23619
840.879	23216
841.016	23368
841.153	23159
841.29	23417
841.427	23326
841.564	23318
841.701	23239
841.838	23181
841.975	23174
842.112	23170
842.249	23113
842.385	23143
842.522	23459
842.659	23178
842.796	23121
842.933	23018
843.069	22930
843.206	23086
843.343	23079
843.479	22995
843.616	23022
843.752	22911
843.889	22889
844.025	22980
844.162	22790
844.298	23044
844.435	22854
844.571	22736
844.708	22904
844.844	23037
844.98	23029
845.117	22938
845.253	22790
845.389	22698
845.525	22653
845.661	22641
845.798	22596
845.934	22694
846.07	22550
846.206	22687
846.342	22702
846.478	22550
846.614	22344
846.75	22303
846.886	22367
847.022	22497
847.158	22318
847.294	22325
847.429	22234
847.565	22356
847.701	22527
847.837	21953
847.972	22029
848.108	22082
848.244	22067
848.379	22036
848.515	21998
848.65	21907
848.786	21922
848.921	21983
849.057	22002
849.192	22044
849.328	21930
849.463	21945
849.598	21854
849.734	21819
849.869	21663
850.004	21720
850.14	21720
850.275	21633
850.41	21694
850.545	21698
850.68	21587
850.815	21637
850.95	21720
851.085	21892
851.22	21854
851.355	21701
851.49	21625
851.625	21561
851.76	21629
851.895	21694
852.03	21523
852.165	21698
852.299	21652
852.434	21857
852.569	21675
852.703	21690
852.838	21732
852.973	21766
853.107	21770
853.242	21576
853.376	21530
853.511	21393
853.645	21408
853.78	21682
853.914	21564
854.048	21397
854.183	21443
854.317	21557
854.451	21599
854.585	21466
854.72	21466
854.854	21606
854.988	21481
855.122	21561
855.256	21443
855.39	21473
855.524	21469
855.658	21435
855.792	21523
855.926	21515
856.06	21553
856.194	21545
856.327	21370
856.461	21405
856.595	21473
856.729	21477
856.862	21610
856.996	21340
857.13	21622
857.263	21583
857.397	21618
857.53	21603
857.664	21568
857.797	21595
857.931	21679
858.064	21454
858.197	21629
858.331	21599
858.464	21462
858.597	21424
858.731	21485
858.864	21610
858.997	21458
859.13	21538
859.263	21481
859.396	21542
859.529	21496
859.662	21462
859.795	21447
859.928	21454
860.061	21481
860.194	21599
860.327	21622
860.46	21542
860.592	21542
860.725	21633
860.858	21660
860.99	21431
861.123	21443
861.256	21412
861.388	21504
861.521	22032
861.653	21389
861.786	21264
861.918	21363
862.05	21298
862.183	21469
862.315	21370
862.447	21500
862.58	21389
862.712	21272
862.844	21169
862.976	21268
863.108	21211
863.24	21728
863.372	21154
863.504	21222
863.636	21237
863.768	21176
863.9	21230
864.032	21081
864.164	21188
864.296	21287
864.428	21313
864.559	21256
864.691	21192
864.823	21142
864.954	21241
865.086	21146
865.217	21093
865.349	21093
865.48	21142
865.612	21157
865.743	21192
865.875	21112
866.006	21176
866.137	21131
866.269	21112
866.4	21154
866.531	21017
866.662	20918
866.793	20952
866.924	21009
867.055	21066
867.186	21062
867.317	21119
867.448	20902
867.579	21070
867.71	20902
867.841	20994
867.972	21100
868.103	20998
868.233	21036
868.364	20986
868.495	21066
868.625	21165
868.756	21321
868.886	21123
869.017	21344
869.147	21454
869.278	21386
869.408	21424
869.539	21325
869.669	21294
869.799	21283
869.929	21344
870.06	21420
870.19	21610
870.32	21557
870.45	21587
870.58	21739
870.71	21781
870.84	21804
870.97	21633
871.1	21671
871.23	21762
871.36	21736
871.489	21781
871.619	21785
871.749	21907
871.879	21838
872.008	21964
872.138	21850
872.267	21812
872.397	21770
872.526	21743
872.656	21679
872.785	21739
872.915	21888
873.044	21983
873.173	21816
873.303	21911
873.432	21968
873.561	21915
873.69	21968
873.819	21949
873.948	21926
874.077	21861
874.206	21873
874.335	21892
874.464	22006
874.593	22223
874.722	22082
874.851	22078
874.979	22192
875.108	22166
875.237	22158
875.365	22029
875.494	22143
875.623	22074
875.751	22135
875.88	22226
876.008	22196
876.136	22261
876.265	22557
876.393	22626
876.521	22694
876.65	22664
876.778	22478
876.906	22459
877.034	22337
877.162	22341
877.29	22459
877.418	22440
877.546	22516
877.674	22455
877.802	22504
877.93	22462
878.058	22341
878.185	22360
878.313	22382
878.441	22428
878.568	22249
878.696	22481
878.824	22504
878.951	22493
879.079	22607
879.206	22790
879.333	22664
879.461	22508
879.588	22599
879.715	22706
879.842	22717
879.97	22512
880.097	22253
880.224	22169
880.351	22382
880.478	22436
880.605	22246
880.732	22147
880.859	22474
880.986	22230
881.112	22371
881.239	22272
881.366	21994
881.493	21964
881.619	21937
881.746	21838
881.872	21884
881.999	21895
882.125	21873
882.252	21743
882.378	21766
882.505	22078
882.631	21717
882.757	21633
882.883	21610
883.01	21625
883.136	21412
883.262	21462
883.388	21416
883.514	21633
883.64	21644
883.766	21397
883.892	21344
884.018	21302
884.143	21523
884.269	21576
884.395	21184
884.52	21195
884.646	21203
884.772	21207
884.897	21116
885.023	21233
885.148	21279
885.274	21424
885.399	21344
885.524	21184
885.65	21260
885.775	21207
885.9	21199
886.025	21230
886.15	21230
886.275	21192
886.4	21093
886.525	21131
886.65	21169
886.775	21081
886.9	21291
887.025	21344
887.149	21085
887.274	20944
887.399	21036
887.523	20956
887.648	20883
887.773	20887
887.897	20960
888.021	21009
888.146	20979
888.27	21032
888.395	21096
888.519	20994
888.643	21062
888.767	21028
888.891	20918
889.015	20872
889.139	20872
889.263	20785
889.387	20880
889.511	21001
889.635	20868
889.759	20853
889.883	20762
890.006	20777
890.13	20906
890.254	20495
890.377	20583
890.501	20571
890.624	20446
890.748	20602
890.871	20457
890.995	20336
891.118	20366
891.241	20317
891.364	20271
891.488	20442
891.611	20355
891.734	20355
891.857	20362
891.98	20298
892.103	20389
892.226	20332
892.349	20320
892.471	20035
892.594	20240
892.717	20294
892.839	20180
892.962	20290
893.085	20336
893.207	20145
893.33	20149
893.452	20214
893.575	20275
893.697	20191
893.819	20317
893.941	20412
894.064	20366
894.186	20168
894.308	20183
894.43	20336
894.552	20423
894.674	20271
894.796	20233
894.918	20153
895.04	20100
895.161	20374
895.283	20195
895.405	20046
895.526	20221
895.648	20244
895.769	20214
895.891	20218
896.012	20419
896.134	20355
896.255	20298
896.376	20145
896.498	20290
896.619	20294
896.74	20267
896.861	20218
896.982	20511
897.103	20514
897.224	20594
897.345	20450
897.466	20450
897.587	20438
897.708	20651
897.828	20575
897.949	20423
898.07	20370
898.19	20412
898.311	20590
898.431	20385
898.552	20457
898.672	20473
898.792	20381
898.913	20457
899.033	20336
899.153	20259
899.273	20240
899.393	20176
899.513	20214
899.633	20282
899.753	20183
899.873	20290
899.993	20259
900.113	20107
900.232	20103
900.352	20210
900.472	20016
900.591	19932
900.711	19940
900.83	19887
900.95	20062
901.069	20081
901.189	19875
901.308	19700
901.427	19499
901.546	19544
901.665	19521
901.784	19651
901.904	19537
902.023	19415
902.141	19152
902.26	19160
902.379	19126
902.498	19217
902.617	19069
902.735	19088
902.854	19065
902.973	19000
903.091	18722
903.21	18684
903.328	18734
903.446	18589
903.565	18532
903.683	18498
903.801	18456
903.919	18509
904.038	18441
904.156	18380
904.274	18445
904.392	18281
904.51	18292
904.627	18266
904.745	18372
904.863	18376
904.981	18026
905.098	17992
905.216	17984
905.334	18125
905.451	18026
905.569	17992
905.686	18072
905.803	17984
905.921	17737
906.038	17802
906.155	17729
906.272	17634
906.389	17771
906.506	17570
906.623	17566
906.74	17623
906.857	17459
906.974	17493
907.091	17661
907.208	17653
907.324	17661
907.441	17455
907.557	17315
907.674	17189
907.79	17143
907.907	17178
908.023	17170
908.139	17212
908.256	17105
908.372	17067
908.488	17159
908.604	16953
908.72	16915
908.836	16987
908.952	16858
909.068	16938
909.184	17109
909.3	16900
909.415	17075
909.531	16946
909.647	16713
909.762	16626
909.878	16641
909.993	16679
910.108	16683
910.224	16660
910.339	16637
910.454	16489
910.57	16489
910.685	16417
910.8	16675
910.915	16687
911.03	16478
911.145	16314
911.259	16128
911.374	16348
911.489	16112
911.604	16154
911.718	16032
911.833	15934
911.947	15846
912.062	15751
912.176	15998
912.291	16090
912.405	15888
912.519	16223
912.633	16071
912.748	15994
912.862	15918
912.976	15736
913.09	15724
913.204	15591
913.318	15812
913.431	15956
913.545	15903
913.659	15869
913.772	15720
913.886	15679
914	15644
914.113	15595
914.226	15698
914.34	15637
914.453	15492
914.566	15663
914.68	15469
914.793	15450
914.906	15268
915.019	15230
915.132	15146
915.245	15195
915.358	15188
915.47	15131
915.583	15222
915.696	15195
915.809	15302
915.921	15374
916.034	15131
916.146	15093
916.259	15066
916.371	15203
916.483	15188
916.595	15055
916.708	14979
916.82	15070
916.932	14975
917.044	14967
917.156	14880
917.268	14819
917.38	14929
917.491	14788
917.603	14876
917.715	14941
917.826	14944
917.938	14689
918.049	14689
918.161	14902
918.272	14918
918.384	14967
918.495	14769
918.606	14796
918.717	14583
918.828	14693
918.939	14743
919.05	14507
919.161	14564
919.272	14454
919.383	14530
919.494	14659
919.604	14811
919.715	14610
919.826	14507
919.936	14499
920.047	14746
920.157	14644
920.267	14781
920.378	14590
920.488	14564
920.598	14724
920.708	14876
920.818	14701
920.928	14765
921.038	14815
921.148	14807
921.258	14575
921.368	14454
921.477	14301
921.587	14332
921.697	14210
921.806	14347
921.916	14191
922.025	14058
922.134	13967
922.244	13913
922.353	14107
922.462	13849
922.571	13799
922.68	13643
922.789	13578
922.898	13662
923.007	13480
923.116	13704
923.224	13594
923.333	13540
923.442	13483
923.55	13400
923.659	13464
923.767	13544
923.876	13312
923.984	13460
924.092	13270
924.201	13285
924.309	13308
924.417	13339
924.525	13247
924.633	13282
924.741	14229
924.849	13031
924.956	13198
925.064	13012
925.172	13004
925.279	12985
925.387	13057
925.494	13099
925.602	13152
925.709	13031
925.816	12973
925.924	12962
926.031	13069
926.138	12886
926.245	12951
926.352	12817
926.459	12958
926.566	13015
926.673	12848
926.779	12795
926.886	12753
926.993	12604
927.099	12677
927.206	12559
927.312	12563
927.419	12608
927.525	12662
927.631	12612
927.737	12418
927.843	12467
927.95	12410
928.056	12441
928.162	12376
928.267	12361
928.373	13053
928.479	12452
928.585	12273
928.69	12346
928.796	12300
928.901	12258
929.007	12049
929.112	12350
929.218	12190
929.323	12182
929.428	12076
929.533	12247
929.638	12041
929.743	12076
929.848	12079
929.953	12087
930.058	11961
930.163	11813
930.267	11767
930.372	11973
930.477	11756
930.581	11882
930.685	11912
930.79	11767
930.894	11684
930.998	11668
931.103	11775
931.207	11429
931.311	11383
931.415	11277
931.519	11113
931.623	11025
