Data from test_V78500241_1785.txt Node
Date: Fri Mar 25 15:54:09 CST 2022
User: usil
Spectrometer: V785-0024
Trigger mode: 0
Integration Time (sec): 4.000000E-1
Scans to average: 1
Nonlinearity correction enabled: false
Boxcar width: 0
Storing dark spectrum: false
XAxis mode: Wavelengths
Number of Pixels in Spectrum: 1024
>>>>>Begin Spectral Data<<<<<
801.071	28615
801.214	28527
801.356	28204
801.499	28200
801.641	28196
801.783	28173
801.926	28344
802.068	28135
802.211	28082
802.353	27983
802.496	27747
802.638	27804
802.78	27804
802.923	27701
803.065	27755
803.208	27618
803.35	27808
803.492	27934
803.635	28097
803.777	27808
803.919	28040
804.061	28352
804.204	28109
804.346	28021
804.488	27903
804.63	27987
804.773	28029
804.915	28097
805.057	28173
805.199	28048
805.341	28105
805.483	28204
805.626	28249
805.768	28166
805.91	28249
806.052	28219
806.194	28280
806.336	28455
806.478	28131
806.62	28246
806.762	28150
806.904	28580
807.046	28721
807.188	28634
807.33	28774
807.472	28748
807.614	28603
807.756	28698
807.898	28504
808.04	28443
808.182	28546
808.324	28542
808.465	28588
808.607	28755
808.749	28972
808.891	28972
809.033	28908
809.174	28850
809.316	28812
809.458	28866
809.6	28805
809.741	29044
809.883	29018
810.025	29208
810.166	29166
810.308	29102
810.45	29033
810.591	29083
810.733	28866
810.875	28877
811.016	28850
811.158	28866
811.299	28915
811.441	29090
811.582	29151
811.724	28938
811.865	28839
812.007	28911
812.148	28809
812.29	28888
812.431	29109
812.573	29117
812.714	29235
812.855	29326
812.997	29410
813.138	29573
813.279	29516
813.421	29288
813.562	29558
813.703	29086
813.845	29064
813.986	28881
814.127	28630
814.268	28588
814.41	28649
814.551	28752
814.692	28679
814.833	28580
814.974	28634
815.115	28622
815.256	28398
815.397	28432
815.539	28436
815.68	28306
815.821	28485
815.962	28401
816.103	28322
816.244	28284
816.385	28249
816.526	28025
816.666	27953
816.807	27895
816.948	28021
817.089	27926
817.23	28074
817.371	27945
817.512	27937
817.653	27724
817.793	27838
817.934	27808
818.075	27835
818.216	27979
818.356	27835
818.497	27789
818.638	27564
818.778	27614
818.919	27679
819.06	27766
819.2	27789
819.341	27854
819.481	27873
819.622	28135
819.762	28257
819.903	28196
820.043	28166
820.184	28070
820.324	28040
820.465	28131
820.605	28021
820.746	27762
820.886	27861
821.026	28097
821.167	27960
821.307	28048
821.447	27945
821.588	27717
821.728	27633
821.868	27492
822.008	27397
822.149	27416
822.289	27363
822.429	27051
822.569	26910
822.709	27119
822.849	26960
822.99	26887
823.13	26929
823.27	26743
823.41	26663
823.55	26617
823.69	26773
823.83	26716
823.97	26617
824.11	26537
824.25	26545
824.389	26450
824.529	26636
824.669	26476
824.809	26754
824.949	26571
825.089	26564
825.228	26583
825.368	26362
825.508	26446
825.648	26412
825.787	26514
825.927	26419
826.067	26476
826.206	26221
826.346	26446
826.485	26328
826.625	26347
826.765	26396
826.904	26434
827.044	26259
827.183	26138
827.323	26092
827.462	26149
827.601	26275
827.741	26069
827.88	26206
828.02	25841
828.159	26077
828.298	26088
828.437	26259
828.577	26043
828.716	26138
828.855	25959
828.994	25788
829.134	25860
829.273	25963
829.412	25700
829.551	25769
829.69	25837
829.829	25788
829.968	25963
830.107	25921
830.246	25818
830.385	25696
830.524	25658
830.663	25495
830.802	25544
830.941	25263
831.08	25438
831.219	25601
831.357	25460
831.496	25632
831.635	25377
831.774	25346
831.913	25388
832.051	25217
832.19	25152
832.329	25263
832.467	25175
832.606	25038
832.744	25023
832.883	24962
833.022	24924
833.16	25122
833.299	25198
833.437	25145
833.576	25133
833.714	25088
833.852	25247
833.991	25110
834.129	25168
834.267	25266
834.406	25225
834.544	25190
834.682	25069
834.821	25164
834.959	25324
835.097	25133
835.235	25213
835.373	25171
835.511	25042
835.65	24935
835.788	24992
835.926	24856
836.064	24802
836.202	24867
836.34	25015
836.478	25034
836.615	24947
836.753	25034
836.891	25023
837.029	24989
837.167	24928
837.305	24859
837.443	24856
837.58	24757
837.718	24970
837.856	24882
837.993	24817
838.131	24935
838.269	24646
838.406	24700
838.544	24544
838.681	24441
838.819	24429
838.956	24270
839.094	24239
839.231	24361
839.369	24338
839.506	24650
839.643	24407
839.781	24228
839.918	24106
840.055	24220
840.193	24140
840.33	24121
840.467	24194
840.604	24178
840.742	24346
840.879	24034
841.016	24064
841.153	24045
841.29	24209
841.427	24163
841.564	24148
841.701	24125
841.838	24011
841.975	24140
842.112	24049
842.249	24011
842.385	23946
842.522	24163
842.659	23931
842.796	23851
842.933	23885
843.069	23977
843.206	23828
843.343	23973
843.479	23870
843.616	23920
843.752	23866
843.889	23615
844.025	23870
844.162	23699
844.298	23878
844.435	23634
844.571	23608
844.708	23802
844.844	23813
844.98	23802
845.117	23783
845.253	23611
845.389	23395
845.525	23596
845.661	23627
845.798	23585
845.934	23577
846.07	23303
846.206	23547
846.342	23493
846.478	23387
846.614	23307
846.75	23159
846.886	23094
847.022	23223
847.158	23151
847.294	23022
847.429	23147
847.565	23014
847.701	23433
847.837	22946
847.972	22858
848.108	22934
848.244	23022
848.379	22824
848.515	22729
848.65	22744
848.786	22949
848.921	22782
849.057	22812
849.192	22706
849.328	22793
849.463	22930
849.598	22565
849.734	22634
849.869	22679
850.004	22542
850.14	22519
850.275	22527
850.41	22428
850.545	22527
850.68	22531
850.815	22557
850.95	22516
851.085	22744
851.22	22717
851.355	22546
851.49	22455
851.625	22497
851.76	22386
851.895	22546
852.03	22409
852.165	22485
852.299	22554
852.434	22546
852.569	22584
852.703	22592
852.838	22550
852.973	22656
853.107	22596
853.242	22443
853.376	22348
853.511	22177
853.645	22257
853.78	22455
853.914	22356
854.048	22325
854.183	22398
854.317	22356
854.451	22481
854.585	22352
854.72	22299
854.854	22436
854.988	22265
855.122	22344
855.256	22185
855.39	22295
855.524	22516
855.658	22379
855.792	22386
855.926	22295
856.06	22413
856.194	22352
856.327	22150
856.461	22348
856.595	22295
856.729	22348
856.862	22577
856.996	22409
857.13	22436
857.263	22440
857.397	22508
857.53	22371
857.664	22341
857.797	22360
857.931	22519
858.064	22325
858.197	22447
858.331	22291
858.464	22287
858.597	22215
858.731	22363
858.864	22306
858.997	22257
859.13	22333
859.263	22360
859.396	22481
859.529	22329
859.662	22257
859.795	22196
859.928	22352
860.061	22443
860.194	22516
860.327	22402
860.46	22257
860.592	22379
860.725	22523
860.858	22428
860.99	22413
861.123	22200
861.256	22246
861.388	22303
861.521	23102
861.653	22249
861.786	22185
861.918	22196
862.05	22287
862.183	22238
862.315	22360
862.447	22333
862.58	22226
862.712	22025
862.844	22154
862.976	22116
863.108	22067
863.24	22527
863.372	22048
863.504	22002
863.636	22010
863.768	22082
863.9	21994
864.032	21876
864.164	22059
864.296	22029
864.428	22150
864.559	22055
864.691	22158
864.823	22109
864.954	22059
865.086	22013
865.217	21983
865.349	21724
865.48	21854
865.612	21854
865.743	22082
865.875	22051
866.006	21789
866.137	21972
866.269	21968
866.4	21800
866.531	21960
866.662	21816
866.793	21812
866.924	21964
867.055	21926
867.186	21865
867.317	21827
867.448	21800
867.579	21755
867.71	21717
867.841	21800
867.972	21861
868.103	21842
868.233	21949
868.364	21907
868.495	21983
868.625	22070
868.756	22234
868.886	22063
869.017	22070
869.147	22249
869.278	22166
869.408	22139
869.539	22082
869.669	22204
869.799	22158
869.929	22143
870.06	22329
870.19	22512
870.32	22348
870.45	22493
870.58	22455
870.71	22607
870.84	22698
870.97	22432
871.1	22371
871.23	22660
871.36	22561
871.489	22580
871.619	22691
871.749	22691
871.879	22645
872.008	22752
872.138	22645
872.267	22729
872.397	22542
872.526	22436
872.656	22611
872.785	22394
872.915	22797
873.044	22790
873.173	22733
873.303	22828
873.432	22672
873.561	22850
873.69	22725
873.819	22664
873.948	22698
874.077	22713
874.206	22637
874.335	22801
874.464	22649
874.593	22911
874.722	22862
874.851	23037
874.979	22896
875.108	22850
875.237	22927
875.365	22828
875.494	22797
875.623	22866
875.751	22908
875.88	22980
876.008	23056
876.136	23060
876.265	23258
876.393	23277
876.521	23315
876.65	23448
876.778	23254
876.906	23204
877.034	23242
877.162	23277
877.29	23242
877.418	23299
877.546	23284
877.674	23269
877.802	23227
877.93	23288
878.058	23208
878.185	23140
878.313	23109
878.441	23246
878.568	23178
878.696	23121
878.824	23246
878.951	23311
879.079	23391
879.206	23471
879.333	23436
879.461	23208
879.588	23387
879.715	23368
879.842	23585
879.97	23284
880.097	23113
880.224	23060
880.351	23071
880.478	23056
880.605	23041
880.732	23128
880.859	23189
880.986	23170
881.112	23166
881.239	22976
881.366	22866
881.493	22733
881.619	22603
881.746	22641
881.872	22717
881.999	22615
882.125	22523
882.252	22660
882.378	22596
882.505	22683
882.631	22478
882.757	22417
882.883	22310
883.01	22322
883.136	22299
883.262	22223
883.388	22169
883.514	22246
883.64	22303
883.766	22211
883.892	21949
884.018	22017
884.143	22211
884.269	22432
884.395	21972
884.52	21991
884.646	21949
884.772	21945
884.897	21816
885.023	21975
885.148	22116
885.274	22139
885.399	21994
885.524	21861
885.65	21892
885.775	21994
885.9	21819
886.025	22120
886.15	22074
886.275	21918
886.4	21842
886.525	22017
886.65	21956
886.775	21960
886.9	22002
887.025	22226
887.149	21945
887.274	21743
887.399	21694
887.523	21713
887.648	21542
887.773	21591
887.897	21694
888.021	21743
888.146	21690
888.27	21865
888.395	21915
888.519	21854
888.643	21816
888.767	21759
888.891	21625
889.015	21428
889.139	21648
889.263	21526
889.387	21549
889.511	21732
889.635	21633
889.759	21466
889.883	21492
890.006	21504
890.13	21549
890.254	21363
890.377	21389
890.501	21294
890.624	21245
890.748	21294
890.871	21195
890.995	21199
891.118	20956
891.241	21150
891.364	21096
891.488	21313
891.611	21074
891.734	21093
891.857	21116
891.98	21020
892.103	21096
892.226	21058
892.349	20929
892.471	20887
892.594	20941
892.717	21017
892.839	20864
892.962	20918
893.085	20994
893.207	20902
893.33	20796
893.452	20743
893.575	20963
893.697	20883
893.819	21230
893.941	21108
894.064	20963
894.186	20925
894.308	20842
894.43	21100
894.552	21028
894.674	21055
894.796	20785
894.918	20838
895.04	20712
895.161	20975
895.283	20933
895.405	20872
895.526	20880
895.648	20823
895.769	20937
895.891	20902
896.012	20952
896.134	21100
896.255	20880
896.376	20918
896.498	21032
896.619	21001
896.74	20937
896.861	20994
896.982	21294
897.103	21329
897.224	21199
897.345	21032
897.466	21192
897.587	21157
897.708	21233
897.828	21211
897.949	21081
898.07	20956
898.19	21013
898.311	21211
898.431	21161
898.552	21180
898.672	21176
898.792	21199
898.913	21020
899.033	21013
899.153	20895
899.273	20849
899.393	20845
899.513	20944
899.633	20815
899.753	20838
899.873	20785
899.993	20773
900.113	20895
900.232	20925
900.352	20727
900.472	20743
900.591	20533
900.711	20594
900.83	20648
900.95	20750
901.069	20758
901.189	20438
901.308	20271
901.427	20199
901.546	20157
901.665	20233
901.784	20210
901.904	20027
902.023	20050
902.141	19742
902.26	19647
902.379	19849
902.498	19712
902.617	19689
902.735	19776
902.854	19674
902.973	19647
903.091	19502
903.21	19445
903.328	19430
903.446	19263
903.565	19251
903.683	19168
903.801	19019
903.919	19148
904.038	19118
904.156	18932
904.274	19015
904.392	18928
904.51	18901
904.627	18837
904.745	18924
904.863	19050
904.981	18703
905.098	18635
905.216	18631
905.334	18719
905.451	18627
905.569	18589
905.686	18696
905.803	18620
905.921	18380
906.038	18563
906.155	18384
906.272	18350
906.389	18311
906.506	18178
906.623	18117
906.74	18190
906.857	17999
906.974	18064
907.091	18163
907.208	18266
907.324	18197
907.441	17961
907.557	17832
907.674	17805
907.79	17794
907.907	17893
908.023	17927
908.139	17741
908.256	17790
908.372	17901
908.488	17676
908.604	17592
908.72	17619
908.836	17600
908.952	17395
909.068	17577
909.184	17535
909.3	17444
909.415	17547
909.531	17497
909.647	17227
909.762	17250
909.878	17197
909.993	17223
910.108	17242
910.224	17212
910.339	17140
910.454	17064
910.57	17014
910.685	16961
910.8	17208
910.915	17162
911.03	17041
911.145	16900
911.259	16797
911.374	16710
911.489	16763
911.604	16713
911.718	16538
911.833	16603
911.947	16538
912.062	16478
912.176	16618
912.291	16687
912.405	16607
912.519	16740
912.633	16725
912.748	16580
912.862	16527
912.976	16428
913.09	16211
913.204	16375
913.318	16432
913.431	16325
913.545	16402
913.659	16470
913.772	16325
913.886	16192
914	16166
914.113	16265
914.226	16261
914.34	16215
914.453	16093
914.566	16166
914.68	16048
914.793	16006
914.906	15846
915.019	15709
915.132	15618
915.245	15679
915.358	15762
915.47	15808
915.583	15713
915.696	15789
915.809	15903
915.921	15816
916.034	15690
916.146	15606
916.259	15633
916.371	15759
916.483	15671
916.595	15641
916.708	15603
916.82	15584
916.932	15618
917.044	15519
917.156	15462
917.268	15359
917.38	15492
917.491	15214
917.603	15466
917.715	15458
917.826	15507
917.938	15287
918.049	15245
918.161	15237
918.272	15408
918.384	15370
918.495	15370
918.606	15199
918.717	15093
918.828	15138
918.939	15142
919.05	15047
919.161	15077
919.272	14807
919.383	14941
919.494	15108
919.604	15416
919.715	15192
919.826	14982
919.936	15203
920.047	15135
920.157	15157
920.267	15287
920.378	15123
920.488	15062
920.598	15214
920.708	15454
920.818	15195
920.928	15138
921.038	15340
921.148	15298
921.258	14982
921.368	14883
921.477	14796
921.587	14754
921.697	14587
921.806	14800
921.916	14579
922.025	14492
922.134	14457
922.244	14423
922.353	14370
922.462	14271
922.571	14282
922.68	14168
922.789	14096
922.898	14126
923.007	14043
923.116	14107
923.224	14065
923.333	14016
923.442	13818
923.55	13989
923.659	13955
923.767	13898
923.876	13967
923.984	13940
924.092	13803
924.201	13811
924.309	13852
924.417	13879
924.525	13818
924.633	13666
924.741	14499
924.849	13521
924.956	13662
925.064	13506
925.172	13377
925.279	13373
925.387	13472
925.494	13396
925.602	13670
925.709	13540
925.816	13343
925.924	13381
926.031	13556
926.138	13308
926.245	13491
926.352	13365
926.459	13384
926.566	13525
926.673	13301
926.779	13137
926.886	13179
926.993	13012
927.099	13000
927.206	12935
927.312	13000
927.419	13076
927.525	13004
927.631	13019
927.737	12837
927.843	12825
927.95	12707
928.056	12753
928.162	12848
928.267	12856
928.373	13434
928.479	12844
928.585	12635
928.69	12760
928.796	12825
928.901	12734
929.007	12574
929.112	12700
929.218	12547
929.323	12441
929.428	12608
929.533	12692
929.638	12494
929.743	12475
929.848	12525
929.953	12494
930.058	12407
930.163	12224
930.267	12235
930.372	12289
930.477	12163
930.581	12433
930.685	12308
930.79	12064
930.894	12091
930.998	11984
931.103	12178
931.207	11809
931.311	11714
931.415	11608
931.519	11444
931.623	11414
