Data from test_V78500241_3039.txt Node
Date: Fri Mar 25 16:02:51 CST 2022
User: usil
Spectrometer: V785-0024
Trigger mode: 0
Integration Time (sec): 4.000000E-1
Scans to average: 1
Nonlinearity correction enabled: false
Boxcar width: 0
Storing dark spectrum: false
XAxis mode: Wavelengths
Number of Pixels in Spectrum: 1024
>>>>>Begin Spectral Data<<<<<
801.071	28809
801.214	28710
801.356	28546
801.499	28535
801.641	28432
801.783	28413
801.926	28344
802.068	28344
802.211	28310
802.353	28215
802.496	28253
802.638	27998
802.78	28109
802.923	28013
803.065	27998
803.208	27983
803.35	28093
803.492	28204
803.635	28295
803.777	28166
803.919	28322
804.061	28713
804.204	28363
804.346	28344
804.488	28421
804.63	28325
804.773	28272
804.915	28386
805.057	28542
805.199	28295
805.341	28523
805.483	28500
805.626	28466
805.768	28421
805.91	28516
806.052	28569
806.194	28478
806.336	28752
806.478	28440
806.62	28569
806.762	28645
806.904	28622
807.046	29029
807.188	28965
807.33	28934
807.472	29022
807.614	28942
807.756	28999
807.898	28854
808.04	28744
808.182	28694
808.324	28672
808.465	28919
808.607	29117
808.749	29364
808.891	29341
809.033	29166
809.174	29140
809.316	29250
809.458	29162
809.6	29197
809.741	29140
809.883	29345
810.025	29425
810.166	29471
810.308	29566
810.45	29379
810.591	29406
810.733	29140
810.875	29185
811.016	29189
811.158	29159
811.299	29421
811.441	29239
811.582	29391
811.724	29273
811.865	29227
812.007	29277
812.148	29151
812.29	29307
812.431	29490
812.573	29649
812.714	29543
812.855	29695
812.997	29794
813.138	29828
813.279	29786
813.421	29684
813.562	29581
813.703	29589
813.845	29535
813.986	29102
814.127	29136
814.268	28854
814.41	28923
814.551	28938
814.692	29086
814.833	28835
814.974	28831
815.115	29033
815.256	28896
815.397	28835
815.539	28790
815.68	28767
815.821	28634
815.962	28786
816.103	28736
816.244	28485
816.385	28523
816.526	28588
816.666	28367
816.807	28097
816.948	28246
817.089	28204
817.23	28257
817.371	28238
817.512	28348
817.653	28299
817.793	28177
817.934	28242
818.075	28284
818.216	28200
818.356	28234
818.497	28166
818.638	28032
818.778	27998
818.919	28002
819.06	28116
819.2	28090
819.341	28299
819.481	28284
819.622	28535
819.762	28653
819.903	28462
820.043	28421
820.184	28375
820.324	28451
820.465	28443
820.605	28360
820.746	28352
820.886	28207
821.026	28234
821.167	28230
821.307	28489
821.447	28333
821.588	28192
821.728	27998
821.868	27922
822.008	27675
822.149	27717
822.289	27675
822.429	27427
822.569	27416
822.709	27424
822.849	27329
822.99	27226
823.13	27237
823.27	27150
823.41	27184
823.55	26944
823.69	27055
823.83	26963
823.97	26921
824.11	26899
824.25	26849
824.389	26804
824.529	26925
824.669	26750
824.809	27013
824.949	26982
825.089	27051
825.228	26918
825.368	26686
825.508	26773
825.648	26807
825.787	26727
825.927	26849
826.067	26861
826.206	26686
826.346	26845
826.485	26826
826.625	26781
826.765	26990
826.904	26735
827.044	26556
827.183	26533
827.323	26446
827.462	26552
827.601	26552
827.741	26358
827.88	26453
828.02	26377
828.159	26427
828.298	26564
828.437	26617
828.577	26385
828.716	26465
828.855	26393
828.994	26271
829.134	26248
829.273	26305
829.412	26221
829.551	26092
829.69	26176
829.829	26202
829.968	26301
830.107	26442
830.246	26161
830.385	26100
830.524	26088
830.663	26024
830.802	25811
830.941	25731
831.08	25791
831.219	25837
831.357	25917
831.496	26046
831.635	25814
831.774	25761
831.913	25674
832.051	25753
832.19	25590
832.329	25590
832.467	25487
832.606	25392
832.744	25381
832.883	25396
833.022	25518
833.16	25495
833.299	25533
833.437	25537
833.576	25472
833.714	25537
833.852	25658
833.991	25605
834.129	25567
834.267	25590
834.406	25544
834.544	25495
834.682	25457
834.821	25514
834.959	25590
835.097	25415
835.235	25537
835.373	25514
835.511	25514
835.65	25381
835.788	25419
835.926	25168
836.064	25152
836.202	25183
836.34	25384
836.478	25419
836.615	25327
836.753	25430
836.891	25483
837.029	25403
837.167	25304
837.305	25236
837.443	25266
837.58	25187
837.718	25270
837.856	25251
837.993	25126
838.131	25141
838.269	25141
838.406	25065
838.544	25012
838.681	24951
838.819	24776
838.956	24547
839.094	24593
839.231	24745
839.369	24814
839.506	25027
839.643	24928
839.781	24768
839.918	24525
840.055	24650
840.193	24547
840.33	24570
840.467	24582
840.604	24658
840.742	24821
840.879	24403
841.016	24422
841.153	24513
841.29	24627
841.427	24475
841.564	24578
841.701	24498
841.838	24502
841.975	24399
842.112	24308
842.249	24304
842.385	24365
842.522	24471
842.659	24483
842.796	24285
842.933	24315
843.069	24357
843.206	24300
843.343	24247
843.479	24258
843.616	24384
843.752	24110
843.889	24140
844.025	24220
844.162	24041
844.298	24209
844.435	24034
844.571	24144
844.708	24114
844.844	24258
844.98	24205
845.117	24330
845.253	24098
845.389	23999
845.525	24091
845.661	24041
845.798	23779
845.934	23901
846.07	23707
846.206	23961
846.342	23950
846.478	23790
846.614	23596
846.75	23467
846.886	23459
847.022	23600
847.158	23573
847.294	23589
847.429	23646
847.565	23474
847.701	23741
847.837	23227
847.972	23208
848.108	23303
848.244	23425
848.379	23223
848.515	23170
848.65	23079
848.786	23143
848.921	23079
849.057	23147
849.192	23273
849.328	23212
849.463	23094
849.598	23140
849.734	22915
849.869	22946
850.004	22771
850.14	22957
850.275	22877
850.41	22797
850.545	22809
850.68	22843
850.815	22843
850.95	22919
851.085	23018
851.22	23044
851.355	22911
851.49	22892
851.625	22900
851.76	22915
851.895	22854
852.03	22816
852.165	22820
852.299	22934
852.434	22991
852.569	22923
852.703	22927
852.838	22976
852.973	22908
853.107	23037
853.242	22892
853.376	22694
853.511	22694
853.645	22691
853.78	22854
853.914	22717
854.048	22637
854.183	22626
854.317	22740
854.451	22961
854.585	22641
854.72	22672
854.854	22866
854.988	22637
855.122	22733
855.256	22535
855.39	22687
855.524	22767
855.658	22713
855.792	22721
855.926	22721
856.06	22668
856.194	22786
856.327	22782
856.461	22531
856.595	22622
856.729	22721
856.862	22824
856.996	22641
857.13	22782
857.263	22869
857.397	22763
857.53	22767
857.664	22843
857.797	22847
857.931	22752
858.064	22831
858.197	22721
858.331	22683
858.464	22679
858.597	22713
858.731	22668
858.864	22611
858.997	22653
859.13	22653
859.263	22656
859.396	22793
859.529	22733
859.662	22630
859.795	22778
859.928	22752
860.061	22862
860.194	22896
860.327	22721
860.46	22622
860.592	22854
860.725	22911
860.858	22828
860.99	22641
861.123	22733
861.256	22618
861.388	22721
861.521	23349
861.653	22645
861.786	22599
861.918	22698
862.05	22607
862.183	22531
862.315	22577
862.447	22717
862.58	22622
862.712	22421
862.844	22333
862.976	22459
863.108	22447
863.24	22858
863.372	22299
863.504	22504
863.636	22325
863.768	22409
863.9	22287
864.032	22348
864.164	22325
864.296	22459
864.428	22500
864.559	22447
864.691	22459
864.823	22440
864.954	22337
865.086	22447
865.217	22276
865.349	22192
865.48	22234
865.612	22276
865.743	22424
865.875	22291
866.006	22223
866.137	22162
866.269	22303
866.4	22253
866.531	22234
866.662	22173
866.793	22238
866.924	22181
867.055	22162
867.186	22310
867.317	22253
867.448	22097
867.579	22177
867.71	22188
867.841	22150
867.972	22192
868.103	22295
868.233	22207
868.364	22196
868.495	22405
868.625	22405
868.756	22557
868.886	22325
869.017	22550
869.147	22550
869.278	22508
869.408	22481
869.539	22417
869.669	22386
869.799	22424
869.929	22519
870.06	22580
870.19	22892
870.32	22793
870.45	22771
870.58	22786
870.71	22984
870.84	22961
870.97	22908
871.1	22828
871.23	22980
871.36	23029
871.489	22965
871.619	22942
871.749	23193
871.879	23071
872.008	23128
872.138	23162
872.267	23006
872.397	22889
872.526	22919
872.656	22839
872.785	22976
872.915	23048
873.044	23147
873.173	22991
873.303	23033
873.432	23105
873.561	23094
873.69	23132
873.819	23056
873.948	23071
874.077	23090
874.206	23037
874.335	23067
874.464	23227
874.593	23311
874.722	23204
874.851	23356
874.979	23258
875.108	23261
875.237	23246
875.365	23178
875.494	23280
875.623	23208
875.751	23242
875.88	23292
876.008	23429
876.136	23577
876.265	23764
876.393	23817
876.521	23824
876.65	23729
876.778	23695
876.906	23581
877.034	23646
877.162	23646
877.29	23672
877.418	23649
877.546	23604
877.674	23562
877.802	23608
877.93	23608
878.058	23672
878.185	23455
878.313	23463
878.441	23596
878.568	23448
878.696	23551
878.824	23562
878.951	23539
879.079	23805
879.206	23935
879.333	23779
879.461	23684
879.588	23737
879.715	23855
879.842	23771
879.97	23592
880.097	23444
880.224	23341
880.351	23497
880.478	23497
880.605	23440
880.732	23387
880.859	23551
880.986	23448
881.112	23402
881.239	23239
881.366	23200
881.493	23079
881.619	23037
881.746	23159
881.872	23052
881.999	23025
882.125	22927
882.252	23014
882.378	22892
882.505	23121
882.631	22790
882.757	22736
882.883	22744
883.01	22561
883.136	22725
883.262	22478
883.388	22516
883.514	22656
883.64	22721
883.766	22577
883.892	22451
884.018	22443
884.143	22561
884.269	22622
884.395	22382
884.52	22131
884.646	22226
884.772	22287
884.897	22230
885.023	22375
885.148	22386
885.274	22421
885.399	22333
885.524	22329
885.65	22413
885.775	22303
885.9	22337
886.025	22481
886.15	22451
886.275	22318
886.4	22238
886.525	22188
886.65	22246
886.775	22181
886.9	22386
887.025	22478
887.149	22280
887.274	22086
887.399	22032
887.523	22010
887.648	21972
887.773	21964
887.897	22013
888.021	22135
888.146	22093
888.27	22070
888.395	22215
888.519	22162
888.643	22013
888.767	22112
888.891	21865
889.015	21812
889.139	21854
889.263	21884
889.387	21968
889.511	22044
889.635	21926
889.759	21808
889.883	21827
890.006	21808
890.13	21930
890.254	21816
890.377	21736
890.501	21622
890.624	21462
890.748	21648
890.871	21492
890.995	21367
891.118	21370
891.241	21462
891.364	21344
891.488	21568
891.611	21405
891.734	21408
891.857	21477
891.98	21416
892.103	21412
892.226	21496
892.349	21336
892.471	21233
892.594	21389
892.717	21355
892.839	21214
892.962	21264
893.085	21306
893.207	21348
893.33	21146
893.452	21199
893.575	21203
893.697	21218
893.819	21367
893.941	21481
894.064	21393
894.186	21127
894.308	21245
894.43	21386
894.552	21431
894.674	21393
894.796	21157
894.918	21226
895.04	21226
895.161	21188
895.283	21260
895.405	21264
895.526	21195
895.648	21195
895.769	21272
895.891	21329
896.012	21298
896.134	21370
896.255	21291
896.376	21233
896.498	21241
896.619	21317
896.74	21233
896.861	21272
896.982	21523
897.103	21728
897.224	21485
897.345	21492
897.466	21329
897.587	21462
897.708	21492
897.828	21511
897.949	21306
898.07	21146
898.19	21447
898.311	21504
898.431	21473
898.552	21401
898.672	21382
898.792	21599
898.913	21344
899.033	21226
899.153	21256
899.273	21123
899.393	21188
899.513	21199
899.633	21142
899.753	21165
899.873	21154
899.993	21237
900.113	21055
900.232	21169
900.352	21009
900.472	20906
900.591	20910
900.711	20887
900.83	20994
900.95	21001
901.069	20952
901.189	20815
901.308	20697
901.427	20537
901.546	20457
901.665	20571
901.784	20480
901.904	20366
902.023	20309
902.141	20081
902.26	20145
902.379	20142
902.498	20039
902.617	20084
902.735	19967
902.854	19913
902.973	19883
903.091	19693
903.21	19639
903.328	19643
903.446	19613
903.565	19472
903.683	19449
903.801	19438
903.919	19407
904.038	19476
904.156	19270
904.274	19282
904.392	19190
904.51	19263
904.627	19118
904.745	19301
904.863	19217
904.981	19072
905.098	18913
905.216	18928
905.334	18909
905.451	18939
905.569	18817
905.686	18924
905.803	18875
905.921	18795
906.038	18734
906.155	18741
906.272	18464
906.389	18604
906.506	18429
906.623	18445
906.74	18475
906.857	18319
906.974	18353
907.091	18486
907.208	18517
907.324	18437
907.441	18323
907.557	18194
907.674	18148
907.79	18068
907.907	17973
908.023	18155
908.139	18114
908.256	18076
908.372	18083
908.488	18068
908.604	17847
908.72	17870
908.836	17901
908.952	17718
909.068	17996
909.184	17840
909.3	17851
909.415	17942
909.531	17710
909.647	17627
909.762	17524
909.878	17528
909.993	17482
910.108	17505
910.224	17425
910.339	17395
910.454	17330
910.57	17318
910.685	17242
910.8	17539
910.915	17467
911.03	17345
911.145	17098
911.259	17064
911.374	17098
911.489	17064
911.604	17060
911.718	16812
911.833	16812
911.947	16801
912.062	16653
912.176	16771
912.291	16862
912.405	16793
912.519	16949
912.633	17132
912.748	16866
912.862	16759
912.976	16729
913.09	16504
913.204	16694
913.318	16656
913.431	16763
913.545	16664
913.659	16683
913.772	16550
913.886	16481
914	16573
914.113	16634
914.226	16561
914.34	16535
914.453	16295
914.566	16462
914.68	16280
914.793	16284
914.906	16044
915.019	16048
915.132	16025
915.245	15998
915.358	16010
915.47	15975
915.583	15953
915.696	16010
915.809	16131
915.921	16120
916.034	15880
916.146	15926
916.259	15854
916.371	15987
916.483	16055
916.595	15842
916.708	15804
916.82	15747
916.932	15747
917.044	15816
917.156	15743
917.268	15671
917.38	15652
917.491	15682
917.603	15622
917.715	15743
917.826	15747
917.938	15572
918.049	15496
918.161	15572
918.272	15774
918.384	15629
918.495	15485
918.606	15386
918.717	15321
918.828	15382
918.939	15401
919.05	15298
919.161	15275
919.272	15230
919.383	15184
919.494	15389
919.604	15545
919.715	15481
919.826	15218
919.936	15268
920.047	15386
920.157	15344
920.267	15564
920.378	15268
920.488	15203
920.598	15428
920.708	15644
920.818	15336
920.928	15469
921.038	15648
921.148	15530
921.258	15268
921.368	15195
921.477	15077
921.587	15089
921.697	14861
921.806	15062
921.916	14929
922.025	14792
922.134	14693
922.244	14610
922.353	14571
922.462	14461
922.571	14575
922.68	14389
922.789	14267
922.898	14313
923.007	14275
923.116	14396
923.224	14355
923.333	14301
923.442	14206
923.55	14180
923.659	14092
923.767	14202
923.876	14107
923.984	14183
924.092	14043
924.201	14084
924.309	13982
924.417	14046
924.525	14031
924.633	13970
924.741	14735
924.849	13700
924.956	13860
925.064	13757
925.172	13655
925.279	13689
925.387	13738
925.494	13628
925.602	13780
925.709	13689
925.816	13559
925.924	13514
926.031	13689
926.138	13609
926.245	13761
926.352	13575
926.459	13658
926.566	13651
926.673	13506
926.779	13430
926.886	13438
926.993	13274
927.099	13187
927.206	13114
927.312	13190
927.419	13304
927.525	13228
927.631	13183
927.737	13126
927.843	12996
927.95	13000
928.056	13008
928.162	13046
928.267	13034
928.373	13666
928.479	13000
928.585	12894
928.69	12981
928.796	12958
928.901	12958
929.007	12700
929.112	12867
929.218	12814
929.323	12806
929.428	12726
929.533	12875
929.638	12658
929.743	12719
929.848	12783
929.953	12738
930.058	12547
930.163	12365
930.267	12403
930.372	12547
930.477	12365
930.581	12623
930.685	12448
930.79	12292
930.894	12258
930.998	12300
931.103	12315
931.207	12091
931.311	11920
931.415	11779
931.519	11691
931.623	11688
