Data from test_V78500241_2233.txt Node
Date: Fri Mar 25 15:57:16 CST 2022
User: usil
Spectrometer: V785-0024
Trigger mode: 0
Integration Time (sec): 4.000000E-1
Scans to average: 1
Nonlinearity correction enabled: false
Boxcar width: 0
Storing dark spectrum: false
XAxis mode: Wavelengths
Number of Pixels in Spectrum: 1024
>>>>>Begin Spectral Data<<<<<
801.071	29159
801.214	29189
801.356	28881
801.499	28915
801.641	28710
801.783	28786
801.926	28801
802.068	28698
802.211	28687
802.353	28694
802.496	28573
802.638	28500
802.78	28436
802.923	28554
803.065	28405
803.208	28466
803.35	28466
803.492	28702
803.635	28679
803.777	28672
803.919	28504
804.061	28972
804.204	28843
804.346	28675
804.488	28637
804.63	28786
804.773	28649
804.915	28824
805.057	28824
805.199	28790
805.341	28938
805.483	28900
805.626	28888
805.768	28767
805.91	28892
806.052	29037
806.194	28885
806.336	29136
806.478	29075
806.62	28873
806.762	29033
806.904	29467
807.046	29478
807.188	29273
807.33	29433
807.472	29425
807.614	29326
807.756	29326
807.898	29242
808.04	29166
808.182	29098
808.324	29303
808.465	29337
808.607	29360
808.749	29680
808.891	29703
809.033	29748
809.174	29733
809.316	29695
809.458	29573
809.6	29642
809.741	29646
809.883	29741
810.025	29847
810.166	30034
810.308	29916
810.45	29847
810.591	29901
810.733	29790
810.875	29741
811.016	29562
811.158	29520
811.299	29585
811.441	29813
811.582	29904
811.724	29520
811.865	29767
812.007	29741
812.148	29524
812.29	29756
812.431	29920
812.573	29874
812.714	30076
812.855	30114
812.997	30174
813.138	30464
813.279	30213
813.421	30129
813.562	30220
813.703	30007
813.845	29878
813.986	29543
814.127	29448
814.268	29391
814.41	29524
814.551	29250
814.692	29364
814.833	29307
814.974	29372
815.115	29337
815.256	29261
815.397	29421
815.539	29356
815.68	29102
815.821	29159
815.962	29147
816.103	29136
816.244	29041
816.385	28991
816.526	28809
816.666	28847
816.807	28713
816.948	28828
817.089	28763
817.23	28588
817.371	28725
817.512	28721
817.653	28577
817.793	28729
817.934	28786
818.075	28713
818.216	28706
818.356	28645
818.497	28561
818.638	28508
818.778	28485
818.919	28356
819.06	28523
819.2	28634
819.341	28740
819.481	28778
819.622	28900
819.762	29048
819.903	29003
820.043	28946
820.184	28843
820.324	28850
820.465	28854
820.605	28809
820.746	28824
820.886	28668
821.026	28854
821.167	28782
821.307	28976
821.447	28828
821.588	28805
821.728	28504
821.868	28246
822.008	28166
822.149	28169
822.289	28090
822.429	28013
822.569	27785
822.709	27949
822.849	27717
822.99	27759
823.13	27789
823.27	27675
823.41	27523
823.55	27492
823.69	27496
823.83	27477
823.97	27572
824.11	27272
824.25	27237
824.389	27317
824.529	27519
824.669	27310
824.809	27553
824.949	27424
825.089	27485
825.228	27431
825.368	27195
825.508	27150
825.648	27348
825.787	27275
825.927	27355
826.067	27161
826.206	27176
826.346	27291
826.485	27332
826.625	27351
826.765	27370
826.904	27252
827.044	27077
827.183	26971
827.323	26975
827.462	27028
827.601	26880
827.741	27020
827.88	27112
828.02	26743
828.159	26815
828.298	26887
828.437	26990
828.577	26823
828.716	26986
828.855	26948
828.994	26640
829.134	26674
829.273	26720
829.412	26648
829.551	26492
829.69	26579
829.829	26651
829.968	26758
830.107	26807
830.246	26648
830.385	26541
830.524	26522
830.663	26549
830.802	26453
830.941	26309
831.08	26172
831.219	26393
831.357	26313
831.496	26480
831.635	26195
831.774	26134
831.913	26153
832.051	26103
832.19	26058
832.329	26088
832.467	25928
832.606	25841
832.744	25852
832.883	25871
833.022	25932
833.16	25940
833.299	25978
833.437	25989
833.576	25982
833.714	26043
833.852	26024
833.991	25951
834.129	26043
834.267	25951
834.406	25982
834.544	26115
834.682	26016
834.821	25898
834.959	26088
835.097	25955
835.235	26149
835.373	25894
835.511	25894
835.65	25837
835.788	25791
835.926	25696
836.064	25582
836.202	25677
836.34	25826
836.478	25890
836.615	25674
836.753	25772
836.891	25731
837.029	25575
837.167	25662
837.305	25788
837.443	25624
837.58	25647
837.718	25632
837.856	25647
837.993	25472
838.131	25575
838.269	25514
838.406	25567
838.544	25457
838.681	25308
838.819	25076
838.956	25129
839.094	25080
839.231	25187
839.369	25190
839.506	25419
839.643	25354
839.781	25069
839.918	25061
840.055	25076
840.193	25133
840.33	24916
840.467	24977
840.604	25194
840.742	25183
840.879	24814
841.016	24951
841.153	24772
841.29	24973
841.427	24882
841.564	24882
841.701	25046
841.838	24856
841.975	24817
842.112	24817
842.249	24859
842.385	24730
842.522	25008
842.659	24856
842.796	24760
842.933	24722
843.069	24551
843.206	24711
843.343	24703
843.479	24829
843.616	24696
843.752	24528
843.889	24441
844.025	24684
844.162	24395
844.298	24509
844.435	24551
844.571	24437
844.708	24445
844.844	24631
844.98	24593
845.117	24608
845.253	24445
845.389	24350
845.525	24422
845.661	24346
845.798	24171
845.934	24232
846.07	24182
846.206	24144
846.342	24399
846.478	24190
846.614	24007
846.75	23714
846.886	24034
847.022	24022
847.158	23855
847.294	23950
847.429	23980
847.565	23859
847.701	24045
847.837	23699
847.972	23531
848.108	23786
848.244	23726
848.379	23452
848.515	23570
848.65	23433
848.786	23452
848.921	23452
849.057	23566
849.192	23414
849.328	23672
849.463	23520
849.598	23376
849.734	23455
849.869	23311
850.004	23299
850.14	23402
850.275	23372
850.41	23178
850.545	23315
850.68	23178
850.815	23261
850.95	23227
851.085	23440
851.22	23265
851.355	23200
851.49	23280
851.625	23261
851.76	23395
851.895	23166
852.03	23284
852.165	23292
852.299	23280
852.434	23284
852.569	23478
852.703	23307
852.838	23315
852.973	23490
853.107	23383
853.242	23239
853.376	23147
853.511	22995
853.645	23064
853.78	23147
853.914	23098
854.048	22930
854.183	23029
854.317	23143
854.451	23315
854.585	23147
854.72	23231
854.854	23064
854.988	23071
855.122	23090
855.256	23052
855.39	23041
855.524	23098
855.658	23109
855.792	23117
855.926	23326
856.06	23079
856.194	23258
856.327	23102
856.461	22946
856.595	23075
856.729	23132
856.862	23185
856.996	23193
857.13	23258
857.263	23105
857.397	23132
857.53	23113
857.664	23140
857.797	23147
857.931	23231
858.064	23178
858.197	23204
858.331	23010
858.464	22927
858.597	23052
858.731	23037
858.864	23109
858.997	23041
859.13	23037
859.263	23056
859.396	23090
859.529	23079
859.662	23086
859.795	22972
859.928	23048
860.061	23296
860.194	23280
860.327	23117
860.46	23052
860.592	23284
860.725	23140
860.858	23132
860.99	23102
861.123	23204
861.256	23025
861.388	23067
861.521	23775
861.653	22824
861.786	22824
861.918	22949
862.05	22839
862.183	23064
862.315	23181
862.447	23056
862.58	23083
862.712	22847
862.844	22694
862.976	22809
863.108	23033
863.24	23185
863.372	22729
863.504	22812
863.636	22729
863.768	22820
863.9	22831
864.032	22672
864.164	22729
864.296	22831
864.428	22782
864.559	22805
864.691	22790
864.823	22805
864.954	22767
865.086	22774
865.217	22771
865.349	22702
865.48	22694
865.612	22736
865.743	22854
865.875	22740
866.006	22592
866.137	22668
866.269	22649
866.4	22641
866.531	22615
866.662	22512
866.793	22596
866.924	22596
867.055	22637
867.186	22569
867.317	22565
867.448	22516
867.579	22489
867.71	22538
867.841	22493
867.972	22649
868.103	22569
868.233	22523
868.364	22679
868.495	22592
868.625	22740
868.756	22904
868.886	22710
869.017	22847
869.147	22957
869.278	22930
869.408	22869
869.539	22812
869.669	22908
869.799	22862
869.929	22816
870.06	22885
870.19	23113
870.32	23140
870.45	23174
870.58	23239
870.71	23360
870.84	23353
870.97	23227
871.1	23261
871.23	23410
871.36	23379
871.489	23307
871.619	23558
871.749	23356
871.879	23581
872.008	23512
872.138	23280
872.267	23341
872.397	23448
872.526	23223
872.656	23204
872.785	23155
872.915	23459
873.044	23459
873.173	23356
873.303	23425
873.432	23486
873.561	23661
873.69	23452
873.819	23463
873.948	23467
874.077	23490
874.206	23387
874.335	23414
874.464	23653
874.593	23687
874.722	23680
874.851	23604
874.979	23619
875.108	23718
875.237	23714
875.365	23448
875.494	23596
875.623	23710
875.751	23684
875.88	23676
876.008	23699
876.136	23843
876.265	24030
876.393	24129
876.521	24167
876.65	24045
876.778	24083
876.906	23874
877.034	23958
877.162	24041
877.29	23942
877.418	23996
877.546	23931
877.674	24022
877.802	23980
877.93	23984
878.058	23874
878.185	23882
878.313	23878
878.441	23969
878.568	23714
878.696	23901
878.824	23961
878.951	24022
879.079	24110
879.206	24292
879.333	24106
879.461	23973
879.588	24102
879.715	24247
879.842	24270
879.97	23996
880.097	23889
880.224	23684
880.351	23821
880.478	23718
880.605	23824
880.732	23859
880.859	23965
880.986	23809
881.112	23916
881.239	23638
881.366	23611
881.493	23482
881.619	23307
881.746	23307
881.872	23379
881.999	23318
882.125	23459
882.252	23326
882.378	23383
882.505	23444
882.631	23239
882.757	22995
882.883	23239
883.01	22942
883.136	22965
883.262	22976
883.388	22896
883.514	22949
883.64	22934
883.766	22850
883.892	22797
884.018	22812
884.143	22862
884.269	23044
884.395	22748
884.52	22653
884.646	22641
884.772	22649
884.897	22451
885.023	22672
885.148	22816
885.274	22645
885.399	22653
885.524	22656
885.65	22527
885.775	22664
885.9	22664
886.025	22611
886.15	22767
886.275	22618
886.4	22565
886.525	22607
886.65	22596
886.775	22470
886.9	22767
887.025	22793
887.149	22481
887.274	22474
887.399	22287
887.523	22485
887.648	22394
887.773	22287
887.897	22390
888.021	22466
888.146	22360
888.27	22398
888.395	22516
888.519	22481
888.643	22550
888.767	22493
888.891	22230
889.015	22230
889.139	22150
889.263	22139
889.387	22253
889.511	22432
889.635	22303
889.759	22093
889.883	22238
890.006	22246
890.13	22379
890.254	22051
890.377	22120
890.501	21861
890.624	21907
890.748	21972
890.871	21926
890.995	21755
891.118	21671
891.241	21717
891.364	21873
891.488	21854
891.611	21873
891.734	21656
891.857	21774
891.98	21698
892.103	21736
892.226	21633
892.349	21675
892.471	21538
892.594	21564
892.717	21644
892.839	21656
892.962	21523
893.085	21663
893.207	21576
893.33	21553
893.452	21595
893.575	21698
893.697	21557
893.819	21831
893.941	21739
894.064	21717
894.186	21614
894.308	21481
894.43	21660
894.552	21648
894.674	21663
894.796	21435
894.918	21481
895.04	21568
895.161	21599
895.283	21595
895.405	21405
895.526	21553
895.648	21443
895.769	21504
895.891	21492
896.012	21686
896.134	21652
896.255	21557
896.376	21534
896.498	21519
896.619	21675
896.74	21622
896.861	21728
896.982	21816
897.103	21880
897.224	21915
897.345	21774
897.466	21618
897.587	21789
897.708	21846
897.828	21770
897.949	21656
898.07	21587
898.19	21629
898.311	21686
898.431	21641
898.552	21747
898.672	21835
898.792	21736
898.913	21751
899.033	21656
899.153	21572
899.273	21386
899.393	21458
899.513	21549
899.633	21511
899.753	21511
899.873	21492
899.993	21443
900.113	21420
900.232	21412
900.352	21317
900.472	21336
900.591	21222
900.711	21180
900.83	21207
900.95	21260
901.069	21329
901.189	21089
901.308	20933
901.427	20788
901.546	20819
901.665	20868
901.784	20868
901.904	20575
902.023	20590
902.141	20465
902.26	20377
902.379	20396
902.498	20313
902.617	20206
902.735	20320
902.854	20271
902.973	20328
903.091	19967
903.21	19887
903.328	20035
903.446	19814
903.565	19738
903.683	19757
903.801	19647
903.919	19620
904.038	19651
904.156	19411
904.274	19476
904.392	19468
904.51	19441
904.627	19419
904.745	19483
904.863	19552
904.981	19274
905.098	19194
905.216	19202
905.334	19183
905.451	19259
905.569	19099
905.686	19194
905.803	19198
905.921	18947
906.038	19107
906.155	19004
906.272	18890
906.389	19027
906.506	18620
906.623	18730
906.74	18597
906.857	18631
906.974	18620
907.091	18798
907.208	18806
907.324	18734
907.441	18555
907.557	18483
907.674	18448
907.79	18346
907.907	18285
908.023	18429
908.139	18365
908.256	18327
908.372	18338
908.488	18213
908.604	18117
908.72	18076
908.836	18152
908.952	17999
909.068	18079
909.184	18186
909.3	18159
909.415	18049
909.531	18045
909.647	17920
909.762	17764
909.878	17809
909.993	17729
910.108	17703
910.224	17676
910.339	17805
910.454	17657
910.57	17524
910.685	17520
910.8	17786
910.915	17665
911.03	17638
911.145	17440
911.259	17379
911.374	17353
911.489	17364
911.604	17353
911.718	16987
911.833	17128
911.947	17086
912.062	16847
912.176	17048
912.291	17132
912.405	17113
912.519	17299
912.633	17231
912.748	17121
912.862	17079
912.976	16999
913.09	16797
913.204	16824
913.318	16873
913.431	17006
913.545	17045
913.659	17067
913.772	16824
913.886	16816
914	16717
914.113	16809
914.226	16771
914.34	16736
914.453	16546
914.566	16694
914.68	16516
914.793	16363
914.906	16291
915.019	16318
915.132	16291
915.245	16276
915.358	16257
915.47	16249
915.583	16246
915.696	16318
915.809	16363
915.921	16344
916.034	16131
916.146	16139
916.259	16169
916.371	16226
916.483	16215
916.595	16059
916.708	16067
916.82	16074
916.932	16044
917.044	16036
917.156	16036
917.268	15804
917.38	15838
917.491	15934
917.603	15808
917.715	16021
917.826	15953
917.938	15804
918.049	15686
918.161	15827
918.272	15964
918.384	15861
918.495	15671
918.606	15606
918.717	15587
918.828	15736
918.939	15667
919.05	15496
919.161	15629
919.272	15302
919.383	15420
919.494	15622
919.604	15884
919.715	15507
919.826	15473
919.936	15519
920.047	15576
920.157	15538
920.267	15747
920.378	15629
920.488	15473
920.598	15641
920.708	15869
920.818	15618
920.928	15675
921.038	15789
921.148	15797
921.258	15485
921.368	15538
921.477	15294
921.587	15287
921.697	15074
921.806	15302
921.916	15131
922.025	14944
922.134	14887
922.244	14838
922.353	14899
922.462	14861
922.571	14746
922.68	14651
922.789	14522
922.898	14461
923.007	14514
923.116	14511
923.224	14522
923.333	14522
923.442	14355
923.55	14343
923.659	14328
923.767	14374
923.876	14339
923.984	14366
924.092	14233
924.201	14309
924.309	14202
924.417	14206
924.525	14138
924.633	14149
924.741	15001
924.849	13944
924.956	14077
925.064	13963
925.172	13814
925.279	13788
925.387	13860
925.494	13875
925.602	13947
925.709	13871
925.816	13750
925.924	13875
926.031	13845
926.138	13769
926.245	13875
926.352	13689
926.459	13921
926.566	13982
926.673	13731
926.779	13601
926.886	13590
926.993	13468
927.099	13480
927.206	13373
927.312	13350
927.419	13407
927.525	13354
927.631	13472
927.737	13320
927.843	13228
927.95	13171
928.056	13274
928.162	13236
928.267	13285
928.373	13890
928.479	13225
928.585	13027
928.69	13179
928.796	13206
928.901	13053
929.007	13004
929.112	13050
929.218	12924
929.323	12897
929.428	12935
929.533	12966
929.638	12852
929.743	12764
929.848	12993
929.953	12791
930.058	12745
930.163	12642
930.267	12570
930.372	12650
930.477	12525
930.581	12783
930.685	12684
930.79	12498
930.894	12517
930.998	12426
931.103	12623
931.207	12220
931.311	12133
931.415	12026
931.519	11813
931.623	11703
