Data from test_V78500241_658.txt Node
Date: Fri Mar 25 15:46:21 CST 2022
User: usil
Spectrometer: V785-0024
Trigger mode: 0
Integration Time (sec): 4.000000E-1
Scans to average: 1
Nonlinearity correction enabled: false
Boxcar width: 0
Storing dark spectrum: false
XAxis mode: Wavelengths
Number of Pixels in Spectrum: 1024
>>>>>Begin Spectral Data<<<<<
801.071	26606
801.214	26503
801.356	26221
801.499	26126
801.641	25986
801.783	25997
801.926	26107
802.068	26100
802.211	26031
802.353	25951
802.496	25655
802.638	25601
802.78	25468
802.923	25594
803.065	25586
803.208	25559
803.35	25525
803.492	25772
803.635	25670
803.777	25677
803.919	25814
804.061	26050
804.204	25845
804.346	25670
804.488	25624
804.63	25674
804.773	25586
804.915	25799
805.057	25830
805.199	25689
805.341	25909
805.483	25799
805.626	25799
805.768	25685
805.91	25734
806.052	25887
806.194	25780
806.336	26039
806.478	25894
806.62	25791
806.762	25944
806.904	26218
807.046	26434
807.188	26366
807.33	26111
807.472	26263
807.614	26039
807.756	26142
807.898	26081
808.04	25970
808.182	26088
808.324	26016
808.465	26054
808.607	26164
808.749	26351
808.891	26530
809.033	26632
809.174	26427
809.316	26404
809.458	26431
809.6	26404
809.741	26556
809.883	26518
810.025	26651
810.166	26765
810.308	26613
810.45	26644
810.591	26686
810.733	26431
810.875	26385
811.016	26240
811.158	26313
811.299	26522
811.441	26514
811.582	26530
811.724	26393
811.865	26317
812.007	26145
812.148	26275
812.29	26427
812.431	26541
812.573	26629
812.714	26811
812.855	26876
812.997	26937
813.138	27100
813.279	26933
813.421	26861
813.562	26971
813.703	26743
813.845	26465
813.986	26412
814.127	26065
814.268	26233
814.41	26122
814.551	26062
814.692	26100
814.833	25951
814.974	25940
815.115	26077
815.256	25955
815.397	25868
815.539	25902
815.68	25871
815.821	25856
815.962	25738
816.103	25909
816.244	25769
816.385	25628
816.526	25628
816.666	25384
816.807	25400
816.948	25346
817.089	25369
817.23	25232
817.371	25240
817.512	25282
817.653	25350
817.793	25202
817.934	25194
818.075	25160
818.216	25327
818.356	25304
818.497	25175
818.638	25031
818.778	25019
818.919	24981
819.06	25046
819.2	25133
819.341	25266
819.481	25198
819.622	25358
819.762	25628
819.903	25586
820.043	25472
820.184	25388
820.324	25438
820.465	25419
820.605	25449
820.746	25327
820.886	25346
821.026	25217
821.167	25278
821.307	25343
821.447	25350
821.588	25164
821.728	24977
821.868	24928
822.008	24650
822.149	24719
822.289	24757
822.429	24391
822.569	24384
822.709	24346
822.849	24235
822.99	24266
823.13	24174
823.27	24091
823.41	24174
823.55	23965
823.69	23954
823.83	24003
823.97	23931
824.11	23767
824.25	23786
824.389	23752
824.529	23923
824.669	23752
824.809	23965
824.949	23885
825.089	23942
825.228	23752
825.368	23767
825.508	23741
825.648	23722
825.787	23748
825.927	23809
826.067	23512
826.206	23668
826.346	23729
826.485	23828
826.625	23623
826.765	23798
826.904	23630
827.044	23471
827.183	23402
827.323	23330
827.462	23356
827.601	23482
827.741	23345
827.88	23258
828.02	23242
828.159	23376
828.298	23436
828.437	23482
828.577	23292
828.716	23398
828.855	23261
828.994	23086
829.134	23147
829.273	23147
829.412	23159
829.551	22980
829.69	23064
829.829	23200
829.968	23075
830.107	23090
830.246	23071
830.385	23025
830.524	22968
830.663	22953
830.802	22786
830.941	22736
831.08	22736
831.219	22710
831.357	22710
831.496	22862
831.635	22683
831.774	22653
831.913	22531
832.051	22470
832.19	22424
832.329	22519
832.467	22287
832.606	22318
832.744	22398
832.883	22322
833.022	22299
833.16	22466
833.299	22360
833.437	22325
833.576	22432
833.714	22314
833.852	22557
833.991	22596
834.129	22398
834.267	22413
834.406	22443
834.544	22405
834.682	22421
834.821	22428
834.959	22550
835.097	22386
835.235	22428
835.373	22436
835.511	22375
835.65	22409
835.788	22246
835.926	22185
836.064	22086
836.202	22120
836.34	22223
836.478	22402
836.615	22284
836.753	22394
836.891	22295
837.029	22398
837.167	22173
837.305	22082
837.443	22291
837.58	22139
837.718	22322
837.856	22063
837.993	21998
838.131	22093
838.269	21930
838.406	22029
838.544	21975
838.681	21827
838.819	21736
838.956	21549
839.094	21450
839.231	21736
839.369	21720
839.506	22021
839.643	21812
839.781	21557
839.918	21496
840.055	21530
840.193	21473
840.33	21530
840.467	21667
840.604	21629
840.742	21842
840.879	21397
841.016	21485
841.153	21439
841.29	21705
841.427	21660
841.564	21561
841.701	21572
841.838	21576
841.975	21370
842.112	21473
842.249	21283
842.385	21348
842.522	21603
842.659	21488
842.796	21256
842.933	21241
843.069	21283
843.206	21245
843.343	21245
843.479	21412
843.616	21389
843.752	21001
843.889	21013
844.025	21218
844.162	21047
844.298	21180
844.435	21051
844.571	20929
844.708	21150
844.844	21237
844.98	21199
845.117	21294
845.253	20960
845.389	20876
845.525	20986
845.661	20956
845.798	20853
845.934	20804
846.07	20701
846.206	20933
846.342	20899
846.478	20743
846.614	20560
846.75	20537
846.886	20522
847.022	20648
847.158	20545
847.294	20594
847.429	20495
847.565	20541
847.701	20758
847.837	20366
847.972	20358
848.108	20328
848.244	20393
848.379	20199
848.515	19989
848.65	20298
848.786	20077
848.921	20259
849.057	20282
849.192	20180
849.328	20081
849.463	20161
849.598	20039
849.734	20069
849.869	19944
850.004	19909
850.14	19875
850.275	19868
850.41	19928
850.545	19757
850.68	19830
850.815	19856
850.95	19803
851.085	20199
851.22	20058
851.355	19928
851.49	19898
851.625	19921
851.76	19932
851.895	19818
852.03	19765
852.165	19860
852.299	19928
852.434	19993
852.569	20058
852.703	19932
852.838	19963
852.973	20027
853.107	20100
853.242	19875
853.376	19746
853.511	19704
853.645	19662
853.78	19814
853.914	19662
854.048	19731
854.183	19727
854.317	19799
854.451	19978
854.585	19753
854.72	19685
854.854	19852
854.988	19681
855.122	19769
855.256	19655
855.39	19719
855.524	19940
855.658	19708
855.792	19765
855.926	19616
856.06	19769
856.194	19704
856.327	19761
856.461	19613
856.595	19662
856.729	19689
856.862	19814
856.996	19677
857.13	19670
857.263	19925
857.397	19822
857.53	19757
857.664	19852
857.797	19788
857.931	19772
858.064	19696
858.197	19811
858.331	19845
858.464	19643
858.597	19563
858.731	19712
858.864	19662
858.997	19677
859.13	19776
859.263	19769
859.396	19864
859.529	19674
859.662	19772
859.795	19746
859.928	19791
860.061	19902
860.194	19925
860.327	19742
860.46	19674
860.592	19856
860.725	19822
860.858	19849
860.99	19883
861.123	19723
861.256	19613
861.388	19685
861.521	20396
861.653	19556
861.786	19533
861.918	19525
862.05	19613
862.183	19616
862.315	19651
862.447	19852
862.58	19746
862.712	19521
862.844	19499
862.976	19643
863.108	19578
863.24	19868
863.372	19460
863.504	19540
863.636	19468
863.768	19567
863.9	19487
864.032	19445
864.164	19480
864.296	19609
864.428	19635
864.559	19586
864.691	19544
864.823	19525
864.954	19491
865.086	19400
865.217	19525
865.349	19358
865.48	19464
865.612	19483
865.743	19658
865.875	19419
866.006	19419
866.137	19407
866.269	19468
866.4	19434
866.531	19434
866.662	19392
866.793	19304
866.924	19392
867.055	19415
867.186	19331
867.317	19304
867.448	19324
867.579	19343
867.71	19320
867.841	19270
867.972	19365
868.103	19381
868.233	19468
868.364	19377
868.495	19434
868.625	19590
868.756	19635
868.886	19632
869.017	19651
869.147	19666
869.278	19791
869.408	19559
869.539	19586
869.669	19799
869.799	19727
869.929	19738
870.06	19666
870.19	19951
870.32	19902
870.45	19947
870.58	20043
870.71	19997
870.84	20069
870.97	20043
871.1	19978
871.23	20100
871.36	20206
871.489	20111
871.619	20062
871.749	20180
871.879	20237
872.008	20400
872.138	20256
872.267	20183
872.397	20012
872.526	20035
872.656	20043
872.785	20031
872.915	20244
873.044	20305
873.173	20267
873.303	20225
873.432	20275
873.561	20336
873.69	20233
873.819	20275
873.948	20347
874.077	20256
874.206	20214
874.335	20286
874.464	20290
874.593	20495
874.722	20454
874.851	20499
874.979	20571
875.108	20537
875.237	20431
875.365	20309
875.494	20476
875.623	20488
875.751	20503
875.88	20431
876.008	20678
876.136	20667
876.265	20864
876.393	20998
876.521	20971
876.65	20872
876.778	20804
876.906	20842
877.034	20701
877.162	20834
877.29	20819
877.418	20750
877.546	20826
877.674	20937
877.802	20792
877.93	20960
878.058	20705
878.185	20678
878.313	20849
878.441	20876
878.568	20663
878.696	20663
878.824	20864
878.951	20849
879.079	20975
879.206	21070
879.333	21024
879.461	20804
879.588	21013
879.715	21066
879.842	21131
879.97	20933
880.097	20689
880.224	20598
880.351	20689
880.478	20739
880.605	20727
880.732	20663
880.859	20849
880.986	20648
881.112	20575
881.239	20587
881.366	20362
881.493	20328
881.619	20214
881.746	20336
881.872	20233
881.999	20286
882.125	20221
882.252	20358
882.378	20362
882.505	20294
882.631	20221
882.757	19986
882.883	20062
883.01	20012
883.136	20016
883.262	19845
883.388	19791
883.514	19928
883.64	20024
883.766	19898
883.892	19856
884.018	19765
884.143	19951
884.269	20031
884.395	19822
884.52	19693
884.646	19666
884.772	19601
884.897	19464
885.023	19693
885.148	19731
885.274	19826
885.399	19723
885.524	19708
885.65	19635
885.775	19727
885.9	19540
886.025	19742
886.15	19662
886.275	19734
886.4	19514
886.525	19502
886.65	19578
886.775	19544
886.9	19746
887.025	19826
887.149	19624
887.274	19537
887.399	19460
887.523	19384
887.648	19354
887.773	19304
887.897	19597
888.021	19426
888.146	19350
888.27	19613
888.395	19426
888.519	19533
888.643	19499
888.767	19457
888.891	19415
889.015	19316
889.139	19251
889.263	19168
889.387	19308
889.511	19495
889.635	19251
889.759	19251
889.883	19247
890.006	19206
890.13	19373
890.254	19198
890.377	19137
890.501	19046
890.624	18993
890.748	19148
890.871	18875
890.995	18802
891.118	18726
891.241	18817
891.364	18871
891.488	18905
891.611	18852
891.734	18783
891.857	18901
891.98	18856
892.103	18913
892.226	18875
892.349	18852
892.471	18711
892.594	18829
892.717	18871
892.839	18749
892.962	18844
893.085	18875
893.207	18810
893.33	18631
893.452	18722
893.575	18817
893.697	18730
893.819	18867
893.941	18962
894.064	18905
894.186	18646
894.308	18715
894.43	18897
894.552	18901
894.674	18867
894.796	18661
894.918	18734
895.04	18798
895.161	18779
895.283	18829
895.405	18665
895.526	18753
895.648	18760
895.769	18916
895.891	18795
896.012	18791
896.134	18840
896.255	18772
896.376	18867
896.498	18814
896.619	18798
896.74	18844
896.861	18802
896.982	19183
897.103	19301
897.224	19141
897.345	19145
897.466	18962
897.587	19065
897.708	19156
897.828	19141
897.949	19034
898.07	18878
898.19	19031
898.311	19198
898.431	18989
898.552	18981
898.672	19046
898.792	19126
898.913	19133
899.033	18909
899.153	19004
899.273	18871
899.393	18928
899.513	18878
899.633	18886
899.753	18947
899.873	18757
899.993	18779
900.113	18886
900.232	18814
900.352	18768
900.472	18646
900.591	18601
900.711	18669
900.83	18608
900.95	18677
901.069	18810
901.189	18540
901.308	18281
901.427	18235
901.546	18201
901.665	18311
901.784	18273
901.904	18129
902.023	18041
902.141	17741
902.26	17779
902.379	17931
902.498	17779
902.617	17786
902.735	17843
902.854	17638
902.973	17634
903.091	17493
903.21	17459
903.328	17417
903.446	17353
903.565	17193
903.683	17326
903.801	17162
903.919	17200
904.038	17231
904.156	17060
904.274	17094
904.392	17155
904.51	17041
904.627	16991
904.745	17140
904.863	17102
904.981	16793
905.098	16824
905.216	16668
905.334	16790
905.451	16717
905.569	16733
905.686	16641
905.803	16786
905.921	16573
906.038	16675
906.155	16478
906.272	16405
906.389	16417
906.506	16291
906.623	16386
906.74	16341
906.857	16109
906.974	16253
907.091	16314
907.208	16344
907.324	16295
907.441	16128
907.557	16029
907.674	15930
907.79	15869
907.907	15949
908.023	15945
908.139	15964
908.256	15956
908.372	15876
908.488	15888
908.604	15641
908.72	15641
908.836	15709
908.952	15690
909.068	15705
909.184	15835
909.3	15739
909.415	15698
909.531	15720
909.647	15431
909.762	15386
909.878	15428
909.993	15370
910.108	15389
910.224	15256
910.339	15363
910.454	15260
910.57	15207
910.685	15123
910.8	15435
910.915	15370
911.03	15176
911.145	15100
911.259	15039
911.374	15112
911.489	14941
911.604	14952
911.718	14819
911.833	14914
911.947	14701
912.062	14602
912.176	14788
912.291	14872
912.405	14838
912.519	14929
912.633	14967
912.748	14807
912.862	14811
912.976	14507
913.09	14484
913.204	14613
913.318	14640
913.431	14670
913.545	14746
913.659	14667
913.772	14579
913.886	14469
914	14438
914.113	14526
914.226	14537
914.34	14461
914.453	14210
914.566	14469
914.68	14252
914.793	14317
914.906	14069
915.019	14043
915.132	13986
915.245	14024
915.358	14077
915.47	14100
915.583	14115
915.696	14081
915.809	14202
915.921	14195
916.034	14024
916.146	13951
916.259	14031
916.371	13997
916.483	14107
916.595	13780
916.708	13811
916.82	14024
916.932	13913
917.044	13818
917.156	13906
917.268	13826
917.38	13780
917.491	13670
917.603	13700
917.715	13879
917.826	13864
917.938	13723
918.049	13677
918.161	13719
918.272	13822
918.384	13894
918.495	13780
918.606	13647
918.717	13438
918.828	13620
918.939	13616
919.05	13403
919.161	13510
919.272	13384
919.383	13460
919.494	13586
919.604	13746
919.715	13544
919.826	13430
919.936	13518
920.047	13544
920.157	13537
920.267	13731
920.378	13537
920.488	13518
920.598	13765
920.708	13860
920.818	13715
920.928	13651
921.038	13913
921.148	13803
921.258	13483
921.368	13373
921.477	13255
921.587	13251
921.697	13228
921.806	13335
921.916	13103
922.025	12954
922.134	12989
922.244	12787
922.353	13012
922.462	12806
922.571	12772
922.68	12620
922.789	12654
922.898	12669
923.007	12517
923.116	12559
923.224	12563
923.333	12544
923.442	12525
923.55	12433
923.659	12490
923.767	12532
923.876	12448
923.984	12426
924.092	12422
924.201	12460
924.309	12422
924.417	12372
924.525	12376
924.633	12262
924.741	13046
924.849	12106
924.956	12289
925.064	12072
925.172	12019
925.279	12087
925.387	12110
925.494	12041
925.602	12197
925.709	12072
925.816	11980
925.924	12095
926.031	12087
926.138	12068
926.245	12049
926.352	11969
926.459	12159
926.566	12144
926.673	12003
926.779	11843
926.886	11847
926.993	11756
927.099	11710
927.206	11718
927.312	11592
927.419	11756
927.525	11748
927.631	11665
927.737	11630
927.843	11581
927.95	11474
928.056	11452
928.162	11524
928.267	11592
928.373	12266
928.479	11627
928.585	11391
928.69	11543
928.796	11573
928.901	11425
929.007	11334
929.112	11379
929.218	11322
929.323	11398
929.428	11258
929.533	11463
929.638	11208
929.743	11204
929.848	11376
929.953	11193
930.058	11216
930.163	11045
930.267	11052
930.372	11113
930.477	11003
930.581	11197
930.685	11025
930.79	10896
930.894	10953
930.998	10911
931.103	11033
931.207	10664
931.311	10592
931.415	10489
931.519	10363
931.623	10295
