Data from test_V78500241_2318.txt Node
Date: Fri Mar 25 15:57:51 CST 2022
User: usil
Spectrometer: V785-0024
Trigger mode: 0
Integration Time (sec): 4.000000E-1
Scans to average: 1
Nonlinearity correction enabled: false
Boxcar width: 0
Storing dark spectrum: false
XAxis mode: Wavelengths
Number of Pixels in Spectrum: 1024
>>>>>Begin Spectral Data<<<<<
801.071	28653
801.214	28653
801.356	28474
801.499	28497
801.641	28219
801.783	28158
801.926	28295
802.068	28276
802.211	28204
802.353	28306
802.496	28040
802.638	27960
802.78	27873
802.923	27964
803.065	27911
803.208	27827
803.35	27930
803.492	28093
803.635	28090
803.777	28105
803.919	28131
804.061	28329
804.204	28261
804.346	28154
804.488	28181
804.63	28348
804.773	28105
804.915	28242
805.057	28215
805.199	28291
805.341	28246
805.483	28401
805.626	28337
805.768	28234
805.91	28390
806.052	28360
806.194	28169
806.336	28527
806.478	28398
806.62	28405
806.762	28508
806.904	28752
807.046	28877
807.188	28805
807.33	28786
807.472	28885
807.614	28759
807.756	28721
807.898	28702
808.04	28580
808.182	28557
808.324	28771
808.465	28702
808.607	28934
808.749	29060
808.891	29037
809.033	29166
809.174	29128
809.316	29064
809.458	29181
809.6	29010
809.741	29071
809.883	29109
810.025	29155
810.166	29311
810.308	29273
810.45	29212
810.591	29102
810.733	29044
810.875	29041
811.016	28961
811.158	28942
811.299	29189
811.441	29189
811.582	29124
811.724	29025
811.865	28953
812.007	28972
812.148	29010
812.29	29056
812.431	29200
812.573	29326
812.714	29402
812.855	29611
812.997	29653
813.138	29752
813.279	29630
813.421	29581
813.562	29452
813.703	29334
813.845	29242
813.986	29037
814.127	28885
814.268	28710
814.41	28721
814.551	28797
814.692	28797
814.833	28622
814.974	28854
815.115	28706
815.256	28546
815.397	28561
815.539	28580
815.68	28443
815.821	28443
815.962	28603
816.103	28542
816.244	28436
816.385	28253
816.526	28379
816.666	28135
816.807	27968
816.948	28090
817.089	28185
817.23	28082
817.371	28120
817.512	28048
817.653	27987
817.793	28059
817.934	28181
818.075	28086
818.216	28116
818.356	27937
818.497	27945
818.638	27899
818.778	27808
818.919	27717
819.06	27880
819.2	28040
819.341	28143
819.481	28010
819.622	28192
819.762	28523
819.903	28337
820.043	28143
820.184	28169
820.324	28257
820.465	28413
820.605	28265
820.746	28188
820.886	28090
821.026	28116
821.167	28143
821.307	28215
821.447	28112
821.588	28032
821.728	27865
821.868	27720
822.008	27542
822.149	27614
822.289	27534
822.429	27226
822.569	27222
822.709	27214
822.849	27039
822.99	27100
823.13	27028
823.27	27123
823.41	26845
823.55	26819
823.69	26857
823.83	26857
823.97	26758
824.11	26518
824.25	26590
824.389	26693
824.529	26724
824.669	26712
824.809	26781
824.949	26701
825.089	26765
825.228	26830
825.368	26579
825.508	26579
825.648	26518
825.787	26655
825.927	26811
826.067	26507
826.206	26549
826.346	26552
826.485	26564
826.625	26579
826.765	26731
826.904	26636
827.044	26393
827.183	26328
827.323	26256
827.462	26328
827.601	26385
827.741	26191
827.88	26229
828.02	26005
828.159	26252
828.298	26218
828.437	26332
828.577	26237
828.716	26366
828.855	25986
828.994	26046
829.134	26012
829.273	25982
829.412	25898
829.551	25864
829.69	25989
829.829	25982
829.968	26058
830.107	25989
830.246	25986
830.385	25906
830.524	25833
830.663	25974
830.802	25635
830.941	25575
831.08	25556
831.219	25632
831.357	25708
831.496	25906
831.635	25552
831.774	25525
831.913	25411
832.051	25324
832.19	25373
832.329	25453
832.467	25274
832.606	25206
832.744	25194
832.883	25316
833.022	25156
833.16	25270
833.299	25354
833.437	25228
833.576	25415
833.714	25434
833.852	25403
833.991	25350
834.129	25354
834.267	25400
834.406	25327
834.544	25407
834.682	25320
834.821	25289
834.959	25472
835.097	25278
835.235	25308
835.373	25388
835.511	25240
835.65	25156
835.788	25072
835.926	25190
836.064	24935
836.202	25061
836.34	25213
836.478	25293
836.615	25129
836.753	25198
836.891	25133
837.029	25164
837.167	25031
837.305	24954
837.443	25031
837.58	24890
837.718	24985
837.856	24943
837.993	24924
838.131	24882
838.269	24894
838.406	24825
838.544	24844
838.681	24677
838.819	24620
838.956	24418
839.094	24327
839.231	24585
839.369	24532
839.506	24928
839.643	24631
839.781	24525
839.918	24422
840.055	24410
840.193	24460
840.33	24361
840.467	24369
840.604	24486
840.742	24559
840.879	24174
841.016	24315
841.153	24178
841.29	24380
841.427	24338
841.564	24437
841.701	24285
841.838	24273
841.975	24205
842.112	24163
842.249	24110
842.385	24018
842.522	24285
842.659	24182
842.796	24083
842.933	24163
843.069	24045
843.206	24064
843.343	24129
843.479	23920
843.616	24098
843.752	23878
843.889	23722
844.025	24022
844.162	23783
844.298	24003
844.435	23878
844.571	23942
844.708	23923
844.844	24129
844.98	23897
845.117	23973
845.253	23847
845.389	23790
845.525	23824
845.661	23722
845.798	23535
845.934	23600
846.07	23687
846.206	23703
846.342	23710
846.478	23520
846.614	23478
846.75	23345
846.886	23326
847.022	23307
847.158	23455
847.294	23318
847.429	23284
847.565	23261
847.701	23463
847.837	23151
847.972	23041
848.108	23162
848.244	23033
848.379	22843
848.515	22965
848.65	22858
848.786	22816
848.921	23018
849.057	22991
849.192	23132
849.328	22927
849.463	22854
849.598	22930
849.734	22824
849.869	22771
850.004	22687
850.14	22729
850.275	22763
850.41	22649
850.545	22649
850.68	22637
850.815	22698
850.95	22683
851.085	22816
851.22	22771
851.355	22698
851.49	22569
851.625	22546
851.76	22584
851.895	22527
852.03	22557
852.165	22603
852.299	22710
852.434	22774
852.569	22535
852.703	22531
852.838	22660
852.973	22885
853.107	22668
853.242	22542
853.376	22523
853.511	22375
853.645	22577
853.78	22554
853.914	22466
854.048	22470
854.183	22485
854.317	22474
854.451	22694
854.585	22489
854.72	22409
854.854	22565
854.988	22268
855.122	22443
855.256	22424
855.39	22447
855.524	22542
855.658	22519
855.792	22455
855.926	22436
856.06	22565
856.194	22599
856.327	22470
856.461	22447
856.595	22470
856.729	22497
856.862	22626
856.996	22554
857.13	22481
857.263	22649
857.397	22584
857.53	22440
857.664	22485
857.797	22550
857.931	22584
858.064	22596
858.197	22580
858.331	22394
858.464	22390
858.597	22402
858.731	22421
858.864	22417
858.997	22417
859.13	22584
859.263	22405
859.396	22694
859.529	22481
859.662	22512
859.795	22428
859.928	22489
860.061	22592
860.194	22656
860.327	22478
860.46	22634
860.592	22618
860.725	22672
860.858	22588
860.99	22538
861.123	22333
861.256	22443
861.388	22440
861.521	23159
861.653	22265
861.786	22272
861.918	22295
862.05	22333
862.183	22447
862.315	22386
862.447	22398
862.58	22348
862.712	22287
862.844	22101
862.976	22219
863.108	22211
863.24	22588
863.372	22109
863.504	22177
863.636	22116
863.768	22246
863.9	22143
864.032	22234
864.164	22055
864.296	22291
864.428	22329
864.559	22325
864.691	22265
864.823	22253
864.954	22226
865.086	22147
865.217	22082
865.349	21998
865.48	22036
865.612	22055
865.743	22166
865.875	22021
866.006	21983
866.137	22120
866.269	21987
866.4	22032
866.531	21983
866.662	21915
866.793	21968
866.924	21972
867.055	22044
867.186	21987
867.317	21987
867.448	21930
867.579	21934
867.71	21991
867.841	21964
867.972	22044
868.103	22025
868.233	21991
868.364	22048
868.495	22078
868.625	22211
868.756	22284
868.886	22082
869.017	22276
869.147	22379
869.278	22348
869.408	22276
869.539	22215
869.669	22166
869.799	22367
869.929	22238
870.06	22360
870.19	22504
870.32	22493
870.45	22527
870.58	22577
870.71	22702
870.84	22599
870.97	22618
871.1	22557
871.23	22828
871.36	22713
871.489	22771
871.619	22805
871.749	22889
871.879	22767
872.008	22877
872.138	22850
872.267	22847
872.397	22782
872.526	22653
872.656	22736
872.785	22637
872.915	22835
873.044	23025
873.173	22805
873.303	22961
873.432	22961
873.561	22938
873.69	22797
873.819	22862
873.948	22911
874.077	22866
874.206	22767
874.335	22847
874.464	22946
874.593	22946
874.722	23067
874.851	23124
874.979	23170
875.108	23136
875.237	23018
875.365	22919
875.494	23006
875.623	23117
875.751	23033
875.88	23006
876.008	23235
876.136	23364
876.265	23429
876.393	23585
876.521	23406
876.65	23463
876.778	23334
876.906	23448
877.034	23391
877.162	23383
877.29	23235
877.418	23303
877.546	23360
877.674	23368
877.802	23318
877.93	23391
878.058	23345
878.185	23250
878.313	23288
878.441	23349
878.568	23250
878.696	23235
878.824	23395
878.951	23448
879.079	23402
879.206	23745
879.333	23490
879.461	23551
879.588	23509
879.715	23566
879.842	23634
879.97	23448
880.097	23208
880.224	23159
880.351	23311
880.478	23235
880.605	23261
880.732	23185
880.859	23566
880.986	23227
881.112	23239
881.239	23132
881.366	23010
881.493	22816
881.619	22702
881.746	22767
881.872	22755
881.999	22816
882.125	22622
882.252	22793
882.378	22733
882.505	22816
882.631	22645
882.757	22626
882.883	22565
883.01	22440
883.136	22470
883.262	22428
883.388	22223
883.514	22455
883.64	22519
883.766	22325
883.892	22192
884.018	22207
884.143	22409
884.269	22409
884.395	22207
884.52	22147
884.646	22139
884.772	21968
884.897	22025
885.023	22082
885.148	22150
885.274	22375
885.399	22166
885.524	22070
885.65	22128
885.775	22131
885.9	22048
886.025	22196
886.15	22196
886.275	22067
886.4	22143
886.525	22086
886.65	21998
886.775	21831
886.9	22230
887.025	22329
887.149	22074
887.274	21876
887.399	21930
887.523	21903
887.648	21876
887.773	21717
887.897	21823
888.021	21804
888.146	21892
888.27	21937
888.395	21972
888.519	21812
888.643	21713
888.767	21960
888.891	21701
889.015	21648
889.139	21717
889.263	21568
889.387	21800
889.511	21880
889.635	21732
889.759	21603
889.883	21481
890.006	21603
890.13	21774
890.254	21580
890.377	21599
890.501	21408
890.624	21332
890.748	21332
890.871	21173
890.995	21127
891.118	21074
891.241	21233
891.364	21245
891.488	21245
891.611	21237
891.734	21230
891.857	21218
891.98	21298
892.103	21211
892.226	21268
892.349	21051
892.471	20845
892.594	21116
892.717	21085
892.839	21089
892.962	21150
893.085	21256
893.207	21081
893.33	20967
893.452	20979
893.575	21077
893.697	21112
893.819	21275
893.941	21230
894.064	21336
894.186	21081
894.308	20899
894.43	21116
894.552	21161
894.674	21165
894.796	20887
894.918	21028
895.04	21013
895.161	21207
895.283	21093
895.405	20941
895.526	21070
895.648	21028
895.769	21074
895.891	21123
896.012	21218
896.134	21051
896.255	21089
896.376	21074
896.498	20975
896.619	21077
896.74	21074
896.861	21123
896.982	21310
897.103	21530
897.224	21310
897.345	21146
897.466	21123
897.587	21386
897.708	21439
897.828	21211
897.949	21310
898.07	21017
898.19	21157
898.311	21298
898.431	21116
898.552	21264
898.672	21310
898.792	21184
898.913	21306
899.033	21127
899.153	21176
899.273	20982
899.393	21058
899.513	21024
899.633	20929
899.753	21020
899.873	20762
899.993	21039
900.113	20834
900.232	20883
900.352	20933
900.472	20819
900.591	20788
900.711	20720
900.83	20743
900.95	20796
901.069	20750
901.189	20594
901.308	20419
901.427	20328
901.546	20294
901.665	20248
901.784	20370
901.904	20221
902.023	20168
902.141	19925
902.26	19788
902.379	19890
902.498	19849
902.617	19807
902.735	19795
902.854	19731
902.973	19681
903.091	19521
903.21	19434
903.328	19487
903.446	19327
903.565	19350
903.683	19282
903.801	19152
903.919	19225
904.038	19190
904.156	19110
904.274	19069
904.392	18985
904.51	19053
904.627	19034
904.745	19027
904.863	19168
904.981	18814
905.098	18734
905.216	18654
905.334	18711
905.451	18646
905.569	18787
905.686	18791
905.803	18658
905.921	18509
906.038	18544
906.155	18445
906.272	18410
906.389	18445
906.506	18251
906.623	18300
906.74	18277
906.857	18125
906.974	18186
907.091	18247
907.208	18384
907.324	18311
907.441	18178
907.557	18064
907.674	18011
907.79	17840
907.907	17939
908.023	17840
908.139	17840
908.256	17901
908.372	17908
908.488	17870
908.604	17649
908.72	17619
908.836	17687
908.952	17608
909.068	17741
909.184	17798
909.3	17604
909.415	17592
909.531	17589
909.647	17452
909.762	17356
909.878	17258
909.993	17406
910.108	17307
910.224	17265
910.339	17242
910.454	17121
910.57	17090
910.685	17178
910.8	17414
910.915	17391
911.03	17159
911.145	17041
911.259	16911
911.374	16938
911.489	16866
911.604	16828
911.718	16710
911.833	16717
911.947	16611
912.062	16584
912.176	16649
912.291	16683
912.405	16713
912.519	16797
912.633	16805
912.748	16615
912.862	16744
912.976	16447
913.09	16325
913.204	16516
913.318	16474
913.431	16546
913.545	16531
913.659	16637
913.772	16440
913.886	16306
914	16238
914.113	16455
914.226	16424
914.34	16314
914.453	16219
914.566	16363
914.68	16067
914.793	16147
914.906	15941
915.019	15911
915.132	15854
915.245	15804
915.358	15789
915.47	15949
915.583	15797
915.696	15835
915.809	15949
915.921	16032
916.034	15812
916.146	15835
916.259	15755
916.371	15679
916.483	15755
916.595	15625
916.708	15557
916.82	15633
916.932	15736
917.044	15633
917.156	15599
917.268	15408
917.38	15523
917.491	15504
917.603	15469
917.715	15542
917.826	15671
917.938	15488
918.049	15313
918.161	15458
918.272	15580
918.384	15488
918.495	15363
918.606	15226
918.717	15161
918.828	15222
918.939	15211
919.05	15226
919.161	15230
919.272	15024
919.383	15013
919.494	15222
919.604	15393
919.715	15192
919.826	15089
919.936	15161
920.047	15169
920.157	15161
920.267	15401
920.378	15214
920.488	15093
920.598	15401
920.708	15389
920.818	15348
920.928	15306
921.038	15397
921.148	15416
921.258	14910
921.368	15104
921.477	14883
921.587	14910
921.697	14720
921.806	14830
921.916	14682
922.025	14602
922.134	14594
922.244	14488
922.353	14564
922.462	14381
922.571	14317
922.68	14199
922.789	14172
922.898	14134
923.007	14199
923.116	14161
923.224	14176
923.333	14077
923.442	14100
923.55	13906
923.659	13993
923.767	14092
923.876	13921
923.984	13955
924.092	13913
924.201	13955
924.309	13772
924.417	13860
924.525	13757
924.633	13784
924.741	14777
924.849	13677
924.956	13738
925.064	13624
925.172	13441
925.279	13521
925.387	13548
925.494	13556
925.602	13704
925.709	13518
925.816	13403
925.924	13502
926.031	13559
926.138	13495
926.245	13506
926.352	13400
926.459	13495
926.566	13510
926.673	13369
926.779	13327
926.886	13293
926.993	13137
927.099	13179
927.206	13027
927.312	13057
927.419	13114
927.525	13072
927.631	13183
927.737	12977
927.843	12943
927.95	12791
928.056	12939
928.162	12909
928.267	12867
928.373	13559
928.479	12928
928.585	12692
928.69	12909
928.796	12875
928.901	12711
929.007	12582
929.112	12776
929.218	12700
929.323	12650
929.428	12589
929.533	12597
929.638	12612
929.743	12593
929.848	12593
929.953	12525
930.058	12441
930.163	12224
930.267	12327
930.372	12410
930.477	12117
930.581	12399
930.685	12391
930.79	12194
930.894	12220
930.998	12110
931.103	12224
931.207	11923
931.311	11771
931.415	11695
931.519	11573
931.623	11611
