Data from test_V78500241_198.txt Node
Date: Fri Mar 25 15:43:10 CST 2022
User: usil
Spectrometer: V785-0024
Trigger mode: 0
Integration Time (sec): 4.000000E-1
Scans to average: 1
Nonlinearity correction enabled: false
Boxcar width: 0
Storing dark spectrum: false
XAxis mode: Wavelengths
Number of Pixels in Spectrum: 1024
>>>>>Begin Spectral Data<<<<<
801.071	29364
801.214	29265
801.356	29151
801.499	28919
801.641	28942
801.783	28923
801.926	29003
802.068	28786
802.211	28869
802.353	28847
802.496	28565
802.638	28584
802.78	28512
802.923	28493
803.065	28531
803.208	28360
803.35	28546
803.492	28554
803.635	28740
803.777	28573
803.919	28691
804.061	28938
804.204	28679
804.346	28546
804.488	28554
804.63	28557
804.773	28493
804.915	28592
805.057	28748
805.199	28691
805.341	28774
805.483	28675
805.626	28653
805.768	28710
805.91	28782
806.052	28736
806.194	28683
806.336	28816
806.478	28778
806.62	28694
806.762	28820
806.904	28930
807.046	29258
807.188	29044
807.33	29109
807.472	29204
807.614	29155
807.756	28946
807.898	28839
808.04	28809
808.182	28717
808.324	28900
808.465	29014
808.607	29064
808.749	29303
808.891	29417
809.033	29474
809.174	29467
809.316	29398
809.458	29410
809.6	29334
809.741	29341
809.883	29402
810.025	29440
810.166	29520
810.308	29414
810.45	29471
810.591	29505
810.733	29193
810.875	29242
811.016	29197
811.158	29143
811.299	29311
811.441	29341
811.582	29406
811.724	29185
811.865	29143
812.007	29162
812.148	29029
812.29	29200
812.431	29311
812.573	29589
812.714	29619
812.855	29707
812.997	29741
813.138	29954
813.279	29935
813.421	29665
813.562	29699
813.703	29459
813.845	29391
813.986	29181
814.127	29041
814.268	28858
814.41	28919
814.551	29014
814.692	29037
814.833	28877
814.974	28778
815.115	28824
815.256	28641
815.397	28679
815.539	28668
815.68	28523
815.821	28573
815.962	28634
816.103	28573
816.244	28443
816.385	28379
816.526	28322
816.666	28219
816.807	28093
816.948	28074
817.089	28147
817.23	28040
817.371	28063
817.512	28036
817.653	27998
817.793	27991
817.934	28169
818.075	28109
818.216	27934
818.356	27930
818.497	27876
818.638	27698
818.778	27770
818.919	27641
819.06	27701
819.2	27781
819.341	27857
819.481	27979
819.622	28002
819.762	28116
819.903	28128
820.043	28093
820.184	27975
820.324	28029
820.465	27998
820.605	28029
820.746	27972
820.886	27804
821.026	27975
821.167	27819
821.307	28090
821.447	27895
821.588	27717
821.728	27526
821.868	27477
822.008	27310
822.149	27332
822.289	27389
822.429	27051
822.569	27039
822.709	27100
822.849	26834
822.99	26864
823.13	26796
823.27	26811
823.41	26629
823.55	26579
823.69	26629
823.83	26533
823.97	26450
824.11	26351
824.25	26229
824.389	26374
824.529	26579
824.669	26461
824.809	26575
824.949	26320
825.089	26366
825.228	26503
825.368	26221
825.508	26278
825.648	26237
825.787	26210
825.927	26282
826.067	26248
826.206	26206
826.346	26195
826.485	26313
826.625	26195
826.765	26218
826.904	26180
827.044	25913
827.183	25928
827.323	25772
827.462	25883
827.601	25879
827.741	25909
827.88	25913
828.02	25769
828.159	25894
828.298	25803
828.437	25917
828.577	25822
828.716	25883
828.855	25864
828.994	25643
829.134	25590
829.273	25643
829.412	25464
829.551	25468
829.69	25586
829.829	25499
829.968	25647
830.107	25647
830.246	25556
830.385	25468
830.524	25285
830.663	25358
830.802	25114
830.941	25133
831.08	25076
831.219	25148
831.357	25236
831.496	25274
831.635	25076
831.774	24916
831.913	24966
832.051	24810
832.19	24825
832.329	24795
832.467	24814
832.606	24776
832.744	24646
832.883	24798
833.022	24681
833.16	24661
833.299	24749
833.437	24776
833.576	24760
833.714	24848
833.852	24741
833.991	24772
834.129	24817
834.267	24745
834.406	24844
834.544	24719
834.682	24852
834.821	24730
834.959	24935
835.097	24688
835.235	24791
835.373	24650
835.511	24688
835.65	24597
835.788	24544
835.926	24441
836.064	24308
836.202	24391
836.34	24563
836.478	24627
836.615	24536
836.753	24353
836.891	24563
837.029	24532
837.167	24578
837.305	24563
837.443	24391
837.58	24327
837.718	24365
837.856	24369
837.993	24330
838.131	24388
838.269	24308
838.406	24266
838.544	24133
838.681	24034
838.819	23973
838.956	23809
839.094	23668
839.231	23980
839.369	23870
839.506	24258
839.643	23980
839.781	23619
839.918	23733
840.055	23653
840.193	23687
840.33	23630
840.467	23615
840.604	23805
840.742	23980
840.879	23524
841.016	23676
841.153	23467
841.29	23687
841.427	23589
841.564	23684
841.701	23649
841.838	23581
841.975	23570
842.112	23653
842.249	23459
842.385	23425
842.522	23642
842.659	23421
842.796	23379
842.933	23318
843.069	23220
843.206	23341
843.343	23414
843.479	23311
843.616	23376
843.752	23178
843.889	23056
844.025	23212
844.162	23029
844.298	23174
844.435	23086
844.571	23094
844.708	23147
844.844	23136
844.98	23162
845.117	23181
845.253	23064
845.389	22946
845.525	22934
845.661	22911
845.798	22809
845.934	22748
846.07	22668
846.206	22790
846.342	22987
846.478	22793
846.614	22660
846.75	22459
846.886	22519
847.022	22618
847.158	22618
847.294	22519
847.429	22497
847.565	22519
847.701	22729
847.837	22325
847.972	22101
848.108	22265
848.244	22291
848.379	22150
848.515	22131
848.65	22044
848.786	22059
848.921	22097
849.057	22154
849.192	22116
849.328	22097
849.463	22093
849.598	22044
849.734	22006
849.869	21880
850.004	21793
850.14	21781
850.275	21797
850.41	21831
850.545	21793
850.68	21709
850.815	21732
850.95	21854
851.085	22010
851.22	21899
851.355	21751
851.49	21831
851.625	21713
851.76	21781
851.895	21603
852.03	21599
852.165	21747
852.299	21717
852.434	21785
852.569	21751
852.703	21747
852.838	21937
852.973	21895
853.107	21892
853.242	21770
853.376	21511
853.511	21572
853.645	21595
853.78	21698
853.914	21675
854.048	21545
854.183	21568
854.317	21625
854.451	21800
854.585	21504
854.72	21481
854.854	21759
854.988	21507
855.122	21641
855.256	21496
855.39	21591
855.524	21762
855.658	21622
855.792	21641
855.926	21686
856.06	21648
856.194	21793
856.327	21507
856.461	21435
856.595	21511
856.729	21458
856.862	21679
856.996	21549
857.13	21553
857.263	21682
857.397	21633
857.53	21507
857.664	21587
857.797	21686
857.931	21709
858.064	21485
858.197	21709
858.331	21572
858.464	21454
858.597	21466
858.731	21504
858.864	21310
858.997	21492
859.13	21526
859.263	21466
859.396	21515
859.529	21625
859.662	21428
859.795	21587
859.928	21591
860.061	21644
860.194	21724
860.327	21629
860.46	21443
860.592	21576
860.725	21690
860.858	21644
860.99	21583
861.123	21443
861.256	21370
861.388	21500
861.521	22196
861.653	21416
861.786	21321
861.918	21348
862.05	21355
862.183	21519
862.315	21454
862.447	21587
862.58	21435
862.712	21218
862.844	21211
862.976	21298
863.108	21325
863.24	21557
863.372	21161
863.504	21165
863.636	21131
863.768	21252
863.9	21173
864.032	21051
864.164	21138
864.296	21241
864.428	21272
864.559	21150
864.691	21306
864.823	21108
864.954	21188
865.086	21256
865.217	21138
865.349	21058
865.48	21112
865.612	21131
865.743	21188
865.875	21112
866.006	20994
866.137	20933
866.269	21192
866.4	21017
866.531	20895
866.662	20982
866.793	20975
866.924	21077
867.055	21028
867.186	21058
867.317	21081
867.448	20994
867.579	20918
867.71	20952
867.841	20982
867.972	21096
868.103	20944
868.233	20994
868.364	20967
868.495	21108
868.625	21077
868.756	21291
868.886	21207
869.017	21249
869.147	21435
869.278	21298
869.408	21332
869.539	21283
869.669	21336
869.799	21218
869.929	21275
870.06	21249
870.19	21481
870.32	21519
870.45	21618
870.58	21641
870.71	21637
870.84	21705
870.97	21458
871.1	21682
871.23	21869
871.36	21899
871.489	21724
871.619	21804
871.749	21766
871.879	21956
872.008	21994
872.138	21838
872.267	21781
872.397	21759
872.526	21656
872.656	21625
872.785	21717
872.915	21838
873.044	21983
873.173	21888
873.303	21968
873.432	21918
873.561	21930
873.69	21884
873.819	21778
873.948	21850
874.077	21922
874.206	21823
874.335	21926
874.464	21991
874.593	22143
874.722	21987
874.851	22177
874.979	22036
875.108	22177
875.237	22051
875.365	22032
875.494	22051
875.623	22067
875.751	22013
875.88	22017
876.008	22226
876.136	22207
876.265	22577
876.393	22577
876.521	22607
876.65	22660
876.778	22569
876.906	22394
877.034	22394
877.162	22462
877.29	22398
877.418	22436
877.546	22474
877.674	22455
877.802	22367
877.93	22432
878.058	22398
878.185	22310
878.313	22341
878.441	22360
878.568	22215
878.696	22371
878.824	22421
878.951	22390
879.079	22626
879.206	22812
879.333	22687
879.461	22440
879.588	22489
879.715	22592
879.842	22706
879.97	22516
880.097	22265
880.224	22204
880.351	22291
880.478	22276
880.605	22242
880.732	22173
880.859	22367
880.986	22367
881.112	22276
881.239	22051
881.366	22017
881.493	21873
881.619	21739
881.746	21861
881.872	21747
881.999	21903
882.125	21751
882.252	21869
882.378	21842
882.505	21888
882.631	21838
882.757	21625
882.883	21629
883.01	21515
883.136	21515
883.262	21500
883.388	21386
883.514	21534
883.64	21713
883.766	21504
883.892	21344
884.018	21359
884.143	21412
884.269	21641
884.395	21214
884.52	21081
884.646	21260
884.772	21237
884.897	21104
885.023	21268
885.148	21351
885.274	21321
885.399	21272
885.524	21074
885.65	21131
885.775	21154
885.9	21249
886.025	21211
886.15	21252
886.275	21070
886.4	21169
886.525	21169
886.65	21039
886.775	21112
886.9	21291
887.025	21367
887.149	21169
887.274	20956
887.399	20979
887.523	21024
887.648	20868
887.773	20727
887.897	21116
888.021	20956
888.146	20849
888.27	20979
888.395	21017
888.519	20933
888.643	20876
888.767	21001
888.891	20853
889.015	20777
889.139	20773
889.263	20670
889.387	20807
889.511	20994
889.635	20906
889.759	20636
889.883	20682
890.006	20731
890.13	20686
890.254	20655
890.377	20587
890.501	20594
890.624	20503
890.748	20522
890.871	20389
890.995	20301
891.118	20225
891.241	20324
891.364	20320
891.488	20423
891.611	20290
891.734	20286
891.857	20256
891.98	20256
892.103	20396
892.226	20347
892.349	20294
892.471	20138
892.594	20282
892.717	20191
892.839	20081
892.962	20244
893.085	20278
893.207	20092
893.33	20145
893.452	20168
893.575	20328
893.697	20164
893.819	20244
893.941	20332
894.064	20320
894.186	20225
894.308	20161
894.43	20282
894.552	20298
894.674	20210
894.796	20039
894.918	20115
895.04	20164
895.161	20259
895.283	20172
895.405	20206
895.526	20187
895.648	20218
895.769	20195
895.891	20267
896.012	20343
896.134	20343
896.255	20290
896.376	20180
896.498	20218
896.619	20240
896.74	20298
896.861	20282
896.982	20495
897.103	20724
897.224	20526
897.345	20488
897.466	20358
897.587	20423
897.708	20511
897.828	20461
897.949	20423
898.07	20199
898.19	20320
898.311	20514
898.431	20408
898.552	20461
898.672	20267
898.792	20419
898.913	20332
899.033	20119
899.153	20210
899.273	20035
899.393	20183
899.513	20157
899.633	20062
899.753	20062
899.873	20058
899.993	20161
900.113	20024
900.232	20153
900.352	20016
900.472	19982
900.591	19791
900.711	19978
900.83	19868
900.95	19974
901.069	19989
901.189	19780
901.308	19495
901.427	19468
901.546	19567
901.665	19529
901.784	19441
901.904	19236
902.023	19247
902.141	19000
902.26	18958
902.379	19084
902.498	19027
902.617	18932
902.735	19061
902.854	18977
902.973	18848
903.091	18772
903.21	18654
903.328	18639
903.446	18566
903.565	18490
903.683	18525
903.801	18429
903.919	18403
904.038	18426
904.156	18098
904.274	18243
904.392	18205
904.51	18220
904.627	18209
904.745	18273
904.863	18300
904.981	18053
905.098	17897
905.216	17927
905.334	17908
905.451	17866
905.569	17840
905.686	17897
905.803	17897
905.921	17695
906.038	17695
906.155	17707
906.272	17627
906.389	17520
906.506	17395
906.623	17433
906.74	17360
906.857	17303
906.974	17318
907.091	17459
907.208	17512
907.324	17414
907.441	17204
907.557	17128
907.674	17098
907.79	17056
907.907	17048
908.023	17098
908.139	17056
908.256	17022
908.372	16957
908.488	16946
908.604	16877
908.72	16683
908.836	16790
908.952	16801
909.068	16626
909.184	16850
909.3	16915
909.415	16771
909.531	16713
909.647	16474
909.762	16409
909.878	16375
909.993	16413
910.108	16447
910.224	16455
910.339	16352
910.454	16352
910.57	16158
910.685	16147
910.8	16409
910.915	16405
911.03	16325
911.145	16086
911.259	15991
911.374	16006
911.489	15842
911.604	15869
911.718	15827
911.833	15842
911.947	15747
912.062	15663
912.176	15926
912.291	15823
912.405	15812
912.519	15979
912.633	15998
912.748	15785
912.862	15755
912.976	15549
913.09	15481
913.204	15580
913.318	15603
913.431	15530
913.545	15682
913.659	15679
913.772	15496
913.886	15397
914	15329
914.113	15473
914.226	15629
914.34	15408
914.453	15340
914.566	15428
914.68	15291
914.793	15123
914.906	15032
915.019	14979
915.132	14941
915.245	15001
915.358	15024
915.47	14998
915.583	15032
915.696	15036
915.809	15127
915.921	15100
916.034	14952
916.146	14838
916.259	14941
916.371	14990
916.483	15024
916.595	14872
916.708	14899
916.82	14823
916.932	14826
917.044	14800
917.156	14716
917.268	14716
917.38	14693
917.491	14514
917.603	14648
917.715	14689
917.826	14724
917.938	14644
918.049	14533
918.161	14446
918.272	14807
918.384	14758
918.495	14533
918.606	14415
918.717	14309
918.828	14355
918.939	14427
919.05	14332
919.161	14412
919.272	14065
919.383	14195
919.494	14423
919.604	14552
919.715	14332
919.826	14229
919.936	14290
920.047	14366
920.157	14362
920.267	14511
920.378	14377
920.488	14259
920.598	14541
920.708	14610
920.818	14484
920.928	14427
921.038	14610
921.148	14499
921.258	14351
921.368	14153
921.477	14065
921.587	14065
921.697	13879
921.806	14073
921.916	13940
922.025	13833
922.134	13666
922.244	13753
922.353	13658
922.462	13544
922.571	13571
922.68	13377
922.789	13400
922.898	13320
923.007	13263
923.116	13358
923.224	13198
923.333	13209
923.442	13152
923.55	13156
923.659	13202
923.767	13171
923.876	13175
923.984	13190
924.092	13061
924.201	13171
924.309	13050
924.417	13126
924.525	13027
924.633	13057
924.741	13883
924.849	12806
924.956	13019
925.064	12871
925.172	12707
925.279	12791
925.387	12783
925.494	12852
925.602	12814
925.709	12817
925.816	12719
925.924	12681
926.031	12776
926.138	12658
926.245	12817
926.352	12646
926.459	12715
926.566	12787
926.673	12665
926.779	12574
926.886	12525
926.993	12395
927.099	12410
927.206	12266
927.312	12251
927.419	12315
927.525	12338
927.631	12323
927.737	12232
927.843	12213
927.95	12155
928.056	12133
928.162	12121
928.267	12171
928.373	12875
928.479	12273
928.585	11965
928.69	12125
928.796	12121
928.901	11996
929.007	11912
929.112	12068
929.218	12030
929.323	11935
929.428	11882
929.533	12079
929.638	11863
929.743	11882
929.848	11851
929.953	11878
930.058	11661
930.163	11562
930.267	11627
930.372	11741
930.477	11493
930.581	11737
930.685	11558
930.79	11448
930.894	11501
930.998	11516
931.103	11611
931.207	11239
931.311	11185
931.415	11052
931.519	10911
931.623	10774
