Data from test_V78500241_2363.txt Node
Date: Fri Mar 25 15:58:10 CST 2022
User: usil
Spectrometer: V785-0024
Trigger mode: 0
Integration Time (sec): 4.000000E-1
Scans to average: 1
Nonlinearity correction enabled: false
Boxcar width: 0
Storing dark spectrum: false
XAxis mode: Wavelengths
Number of Pixels in Spectrum: 1024
>>>>>Begin Spectral Data<<<<<
801.071	28938
801.214	28873
801.356	28702
801.499	28634
801.641	28538
801.783	28462
801.926	28478
802.068	28470
802.211	28363
802.353	28398
802.496	28135
802.638	28272
802.78	28188
802.923	28128
803.065	28063
803.208	28055
803.35	28097
803.492	28325
803.635	28390
803.777	28310
803.919	28470
804.061	28755
804.204	28561
804.346	28497
804.488	28417
804.63	28474
804.773	28322
804.915	28500
805.057	28561
805.199	28497
805.341	28508
805.483	28599
805.626	28455
805.768	28493
805.91	28504
806.052	28531
806.194	28462
806.336	28637
806.478	28637
806.62	28512
806.762	28797
806.904	28862
807.046	28980
807.188	29166
807.33	28896
807.472	29121
807.614	28995
807.756	28957
807.898	28729
808.04	28908
808.182	28786
808.324	28972
808.465	28927
808.607	29170
808.749	29193
808.891	29261
809.033	29398
809.174	29463
809.316	29326
809.458	29334
809.6	29315
809.741	29292
809.883	29406
810.025	29619
810.166	29505
810.308	29596
810.45	29535
810.591	29528
810.733	29463
810.875	29425
811.016	29105
811.158	29124
811.299	29288
811.441	29452
811.582	29406
811.724	29330
811.865	29140
812.007	29250
812.148	29261
812.29	29360
812.431	29501
812.573	29741
812.714	29813
812.855	29885
812.997	29847
813.138	29961
813.279	29931
813.421	29927
813.562	29699
813.703	29741
813.845	29455
813.986	29258
814.127	29113
814.268	28984
814.41	29105
814.551	28995
814.692	28995
814.833	28987
814.974	28930
815.115	29151
815.256	28904
815.397	28782
815.539	29025
815.68	28733
815.821	28877
815.962	28809
816.103	28942
816.244	28683
816.385	28569
816.526	28622
816.666	28344
816.807	28470
816.948	28474
817.089	28375
817.23	28325
817.371	28215
817.512	28238
817.653	28363
817.793	28154
817.934	28223
818.075	28272
818.216	28333
818.356	28219
818.497	28215
818.638	28158
818.778	28135
818.919	28158
819.06	28131
819.2	28310
819.341	28424
819.481	28390
819.622	28417
819.762	28733
819.903	28542
820.043	28527
820.184	28481
820.324	28428
820.465	28497
820.605	28504
820.746	28363
820.886	28242
821.026	28360
821.167	28500
821.307	28398
821.447	28344
821.588	28246
821.728	28139
821.868	27934
822.008	27800
822.149	27873
822.289	27797
822.429	27504
822.569	27583
822.709	27477
822.849	27310
822.99	27310
823.13	27256
823.27	27188
823.41	27108
823.55	27066
823.69	27081
823.83	27062
823.97	27100
824.11	27058
824.25	27013
824.389	26986
824.529	26990
824.669	26929
824.809	27089
824.949	26998
825.089	27036
825.228	27074
825.368	26834
825.508	26872
825.648	26785
825.787	26979
825.927	26979
826.067	26868
826.206	26872
826.346	26861
826.485	26937
826.625	26830
826.765	26986
826.904	26834
827.044	26609
827.183	26716
827.323	26503
827.462	26648
827.601	26720
827.741	26537
827.88	26606
828.02	26644
828.159	26670
828.298	26689
828.437	26484
828.577	26526
828.716	26465
828.855	26495
828.994	26248
829.134	26138
829.273	26290
829.412	26183
829.551	26214
829.69	26218
829.829	26237
829.968	26290
830.107	26286
830.246	26263
830.385	26199
830.524	26157
830.663	26054
830.802	25940
830.941	25894
831.08	25822
831.219	25917
831.357	25940
831.496	26225
831.635	25860
831.774	25765
831.913	25708
832.051	25639
832.19	25750
832.329	25556
832.467	25499
832.606	25620
832.744	25472
832.883	25552
833.022	25377
833.16	25438
833.299	25510
833.437	25571
833.576	25742
833.714	25518
833.852	25689
833.991	25594
834.129	25788
834.267	25731
834.406	25689
834.544	25651
834.682	25453
834.821	25445
834.959	25670
835.097	25609
835.235	25681
835.373	25479
835.511	25434
835.65	25438
835.788	25453
835.926	25331
836.064	25187
836.202	25274
836.34	25502
836.478	25518
836.615	25346
836.753	25434
836.891	25464
837.029	25510
837.167	25263
837.305	25221
837.443	25251
837.58	25209
837.718	25343
837.856	25285
837.993	25160
838.131	25289
838.269	24954
838.406	25129
838.544	24947
838.681	24863
838.819	24863
838.956	24658
839.094	24635
839.231	24894
839.369	24859
839.506	25107
839.643	24966
839.781	24749
839.918	24574
840.055	24707
840.193	24597
840.33	24597
840.467	24734
840.604	24684
840.742	24852
840.879	24445
841.016	24639
841.153	24456
841.29	24642
841.427	24513
841.564	24654
841.701	24483
841.838	24601
841.975	24414
842.112	24513
842.249	24479
842.385	24304
842.522	24574
842.659	24376
842.796	24422
842.933	24296
843.069	24296
843.206	24251
843.343	24403
843.479	24353
843.616	24483
843.752	24228
843.889	24102
844.025	24277
844.162	24064
844.298	24178
844.435	24114
844.571	24049
844.708	24194
844.844	24239
844.98	24178
845.117	24216
845.253	24083
845.389	24083
845.525	24045
845.661	23965
845.798	23805
845.934	23889
846.07	23912
846.206	23847
846.342	24034
846.478	23779
846.614	23817
846.75	23493
846.886	23452
847.022	23695
847.158	23600
847.294	23531
847.429	23741
847.565	23440
847.701	23863
847.837	23288
847.972	23242
848.108	23383
848.244	23326
848.379	23136
848.515	23098
848.65	23143
848.786	23151
848.921	23113
849.057	23433
849.192	23242
849.328	23124
849.463	23159
849.598	23086
849.734	23151
849.869	23025
850.004	22946
850.14	22957
850.275	22923
850.41	22850
850.545	22938
850.68	22911
850.815	22850
850.95	22889
851.085	23037
851.22	22999
851.355	22786
851.49	22881
851.625	22854
851.76	22889
851.895	22847
852.03	22801
852.165	22900
852.299	22995
852.434	22972
852.569	22972
852.703	22896
852.838	22957
852.973	23075
853.107	22961
853.242	22847
853.376	22850
853.511	22618
853.645	22645
853.78	22862
853.914	22733
854.048	22725
854.183	22889
854.317	22790
854.451	22957
854.585	22736
854.72	22774
854.854	22828
854.988	22634
855.122	22797
855.256	22512
855.39	22668
855.524	22763
855.658	22771
855.792	22778
855.926	22683
856.06	22858
856.194	22850
856.327	22607
856.461	22694
856.595	22645
856.729	22755
856.862	22828
856.996	22911
857.13	22752
857.263	22820
857.397	22675
857.53	22660
857.664	22660
857.797	22763
857.931	22957
858.064	22831
858.197	22774
858.331	22683
858.464	22679
858.597	22656
858.731	22615
858.864	22649
858.997	22748
859.13	22672
859.263	22710
859.396	22835
859.529	22702
859.662	22694
859.795	22634
859.928	22702
860.061	22892
860.194	22896
860.327	22675
860.46	22805
860.592	22896
860.725	22828
860.858	22824
860.99	22816
861.123	22691
861.256	22729
861.388	22702
861.521	23493
861.653	22599
861.786	22565
861.918	22641
862.05	22584
862.183	22721
862.315	22656
862.447	22588
862.58	22656
862.712	22443
862.844	22516
862.976	22596
863.108	22413
863.24	22938
863.372	22344
863.504	22554
863.636	22390
863.768	22405
863.9	22523
864.032	22440
864.164	22287
864.296	22440
864.428	22443
864.559	22489
864.691	22519
864.823	22371
864.954	22432
865.086	22554
865.217	22314
865.349	22276
865.48	22268
865.612	22360
865.743	22413
865.875	22299
866.006	22428
866.137	22306
866.269	22306
866.4	22230
866.531	22253
866.662	22333
866.793	22325
866.924	22188
867.055	22215
867.186	22219
867.317	22310
867.448	22124
867.579	22284
867.71	22166
867.841	22162
867.972	22215
868.103	22280
868.233	22211
868.364	22204
868.495	22402
868.625	22466
868.756	22584
868.886	22485
869.017	22462
869.147	22569
869.278	22618
869.408	22466
869.539	22546
869.669	22550
869.799	22531
869.929	22481
870.06	22561
870.19	22740
870.32	22801
870.45	22790
870.58	22957
870.71	22991
870.84	23014
870.97	22927
871.1	22965
871.23	23105
871.36	23083
871.489	22949
871.619	23090
871.749	22995
871.879	23151
872.008	23307
872.138	23003
872.267	23067
872.397	23060
872.526	22797
872.656	22850
872.785	23018
872.915	22968
873.044	23132
873.173	23064
873.303	23143
873.432	23193
873.561	23258
873.69	23151
873.819	23124
873.948	23250
874.077	23124
874.206	22961
874.335	23109
874.464	23109
874.593	23421
874.722	23204
874.851	23368
874.979	23376
875.108	23391
875.237	23322
875.365	23174
875.494	23185
875.623	23341
875.751	23239
875.88	23349
876.008	23402
876.136	23440
876.265	23676
876.393	23897
876.521	23699
876.65	23767
876.778	23714
876.906	23710
877.034	23680
877.162	23611
877.29	23726
877.418	23615
877.546	23554
877.674	23680
877.802	23718
877.93	23687
878.058	23653
878.185	23531
878.313	23714
878.441	23627
878.568	23467
878.696	23646
878.824	23676
878.951	23695
879.079	23843
879.206	23980
879.333	23824
879.461	23760
879.588	23684
879.715	23794
879.842	23847
879.97	23661
880.097	23452
880.224	23581
880.351	23512
880.478	23516
880.605	23372
880.732	23440
880.859	23646
880.986	23589
881.112	23448
881.239	23318
881.366	23109
881.493	23098
881.619	22946
881.746	23003
881.872	23041
881.999	23117
882.125	22942
882.252	22957
882.378	23022
882.505	23067
882.631	22843
882.757	22759
882.883	22904
883.01	22664
883.136	22645
883.262	22478
883.388	22497
883.514	22660
883.64	22763
883.766	22504
883.892	22478
884.018	22508
884.143	22592
884.269	22748
884.395	22325
884.52	22242
884.646	22337
884.772	22284
884.897	22295
885.023	22363
885.148	22356
885.274	22363
885.399	22527
885.524	22291
885.65	22322
885.775	22348
885.9	22272
886.025	22519
886.15	22402
886.275	22246
886.4	22226
886.525	22318
886.65	22200
886.775	22303
886.9	22344
887.025	22679
887.149	22173
887.274	22177
887.399	21968
887.523	22010
887.648	21922
887.773	22032
887.897	22211
888.021	22101
888.146	21930
888.27	22135
888.395	22150
888.519	22013
888.643	21972
888.767	22067
888.891	21960
889.015	21869
889.139	21873
889.263	21903
889.387	21846
889.511	22105
889.635	22017
889.759	21922
889.883	21717
890.006	21960
890.13	21953
890.254	21854
890.377	21698
890.501	21698
890.624	21523
890.748	21625
890.871	21504
890.995	21511
891.118	21325
891.241	21386
891.364	21382
891.488	21492
891.611	21542
891.734	21542
891.857	21397
891.98	21431
892.103	21485
892.226	21306
892.349	21424
892.471	21241
892.594	21237
892.717	21336
892.839	21313
892.962	21408
893.085	21245
893.207	21272
893.33	21085
893.452	21302
893.575	21367
893.697	21275
893.819	21424
893.941	21538
894.064	21458
894.186	21245
894.308	21207
894.43	21298
894.552	21439
894.674	21332
894.796	21336
894.918	21249
895.04	21279
895.161	21279
895.283	21283
895.405	21214
895.526	21256
895.648	21237
895.769	21302
895.891	21389
896.012	21431
896.134	21218
896.255	21165
896.376	21351
896.498	21264
896.619	21359
896.74	21317
896.861	21237
896.982	21538
897.103	21648
897.224	21576
897.345	21496
897.466	21370
897.587	21492
897.708	21625
897.828	21462
897.949	21424
898.07	21294
898.19	21458
898.311	21473
898.431	21458
898.552	21580
898.672	21618
898.792	21629
898.913	21583
899.033	21348
899.153	21283
899.273	21169
899.393	21272
899.513	21279
899.633	21195
899.753	21138
899.873	21138
899.993	21233
900.113	21195
900.232	21310
900.352	21131
900.472	21093
900.591	21047
900.711	20941
900.83	20941
900.95	21119
901.069	21058
901.189	20948
901.308	20640
901.427	20655
901.546	20667
901.665	20594
901.784	20579
901.904	20415
902.023	20294
902.141	20130
902.26	20065
902.379	20225
902.498	20058
902.617	20020
902.735	20081
902.854	19936
902.973	19982
903.091	19750
903.21	19742
903.328	19715
903.446	19597
903.565	19518
903.683	19548
903.801	19316
903.919	19521
904.038	19343
904.156	19339
904.274	19354
904.392	19255
904.51	19232
904.627	19266
904.745	19308
904.863	19285
904.981	19168
905.098	18935
905.216	19004
905.334	19053
905.451	18970
905.569	18894
905.686	18962
905.803	18875
905.921	18719
906.038	18882
906.155	18684
906.272	18582
906.389	18635
906.506	18437
906.623	18490
906.74	18593
906.857	18407
906.974	18330
907.091	18536
907.208	18563
907.324	18544
907.441	18399
907.557	18209
907.674	18239
907.79	18110
907.907	18133
908.023	18136
908.139	18155
908.256	18205
908.372	18110
908.488	18102
908.604	17790
908.72	17859
908.836	17901
908.952	17859
909.068	17954
909.184	17965
909.3	17783
909.415	17984
909.531	17805
909.647	17581
909.762	17627
909.878	17611
909.993	17562
910.108	17551
910.224	17467
910.339	17478
910.454	17452
910.57	17322
910.685	17307
910.8	17615
910.915	17471
911.03	17398
911.145	17151
911.259	17094
911.374	17143
911.489	16942
911.604	17033
911.718	16957
911.833	16850
911.947	16812
912.062	16710
912.176	16877
912.291	16938
912.405	16729
912.519	17098
912.633	17048
912.748	16873
912.862	16824
912.976	16691
913.09	16641
913.204	16660
913.318	16710
913.431	16809
913.545	16717
913.659	16717
913.772	16656
913.886	16535
914	16421
914.113	16615
914.226	16641
914.34	16516
914.453	16481
914.566	16478
914.68	16325
914.793	16287
914.906	16128
915.019	16101
915.132	15987
915.245	16029
915.358	16044
915.47	16116
915.583	16013
915.696	16093
915.809	16101
915.921	16192
916.034	15930
916.146	15994
916.259	15983
916.371	15994
916.483	16021
916.595	15895
916.708	15857
916.82	15869
916.932	15770
917.044	15880
917.156	15762
917.268	15660
917.38	15755
917.491	15736
917.603	15720
917.715	15728
917.826	15762
917.938	15599
918.049	15496
918.161	15610
918.272	15743
918.384	15705
918.495	15515
918.606	15458
918.717	15283
918.828	15370
918.939	15359
919.05	15260
919.161	15412
919.272	15157
919.383	15298
919.494	15469
919.604	15584
919.715	15389
919.826	15355
919.936	15298
920.047	15340
920.157	15313
920.267	15534
920.378	15363
920.488	15374
920.598	15477
920.708	15686
920.818	15466
920.928	15439
921.038	15629
921.148	15686
921.258	15249
921.368	15249
921.477	15116
921.587	15039
921.697	14929
921.806	15024
921.916	14910
922.025	14670
922.134	14682
922.244	14682
922.353	14716
922.462	14644
922.571	14537
922.68	14339
922.789	14370
922.898	14438
923.007	14271
923.116	14278
923.224	14324
923.333	14248
923.442	14195
923.55	14164
923.659	14267
923.767	14183
923.876	14062
923.984	14149
924.092	14065
924.201	14096
924.309	14096
924.417	14001
924.525	13997
924.633	14069
924.741	14887
924.849	13833
924.956	13890
925.064	13795
925.172	13685
925.279	13746
925.387	13734
925.494	13746
925.602	13845
925.709	13742
925.816	13544
925.924	13757
926.031	13738
926.138	13662
926.245	13704
926.352	13552
926.459	13658
926.566	13689
926.673	13563
926.779	13449
926.886	13415
926.993	13335
927.099	13293
927.206	13263
927.312	13225
927.419	13293
927.525	13194
927.631	13270
927.737	13194
927.843	13000
927.95	12993
928.056	13057
928.162	13091
928.267	13107
928.373	13731
928.479	13095
928.585	12878
928.69	12996
928.796	12981
928.901	12951
929.007	12783
929.112	12924
929.218	12837
929.323	12890
929.428	12707
929.533	12962
929.638	12776
929.743	12707
929.848	12726
929.953	12719
930.058	12669
930.163	12353
930.267	12486
930.372	12490
930.477	12372
930.581	12578
930.685	12525
930.79	12296
930.894	12414
930.998	12209
931.103	12464
931.207	12041
931.311	11920
931.415	11916
931.519	11707
931.623	11668
