Data from test_V78500241_3750.txt Node
Date: Fri Mar 25 16:07:46 CST 2022
User: usil
Spectrometer: V785-0024
Trigger mode: 0
Integration Time (sec): 4.000000E-1
Scans to average: 1
Nonlinearity correction enabled: false
Boxcar width: 0
Storing dark spectrum: false
XAxis mode: Wavelengths
Number of Pixels in Spectrum: 1024
>>>>>Begin Spectral Data<<<<<
801.071	28424
801.214	28185
801.356	28234
801.499	27972
801.641	27778
801.783	27823
801.926	27964
802.068	27854
802.211	27842
802.353	27861
802.496	27743
802.638	27603
802.78	27652
802.923	27454
803.065	27450
803.208	27447
803.35	27542
803.492	27743
803.635	27804
803.777	27747
803.919	27732
804.061	28063
804.204	27793
804.346	27743
804.488	27743
804.63	27789
804.773	27732
804.915	27888
805.057	27895
805.199	27766
805.341	27956
805.483	27789
805.626	27949
805.768	27964
805.91	27926
806.052	27865
806.194	27994
806.336	28105
806.478	27899
806.62	27876
806.762	27991
806.904	28101
807.046	28516
807.188	28436
807.33	28363
807.472	28474
807.614	28246
807.756	28344
807.898	28303
808.04	28173
808.182	28341
808.324	28280
808.465	28196
808.607	28561
808.749	28786
808.891	28622
809.033	28687
809.174	28774
809.316	28725
809.458	28615
809.6	28561
809.741	28736
809.883	28790
810.025	28999
810.166	28866
810.308	28885
810.45	28908
810.591	28904
810.733	28683
810.875	28771
811.016	28569
811.158	28542
811.299	28664
811.441	28763
811.582	28729
811.724	28687
811.865	28626
812.007	28675
812.148	28485
812.29	28622
812.431	28869
812.573	28972
812.714	28984
812.855	29140
812.997	29166
813.138	29307
813.279	29280
813.421	29006
813.562	29246
813.703	28980
813.845	28984
813.986	28622
814.127	28497
814.268	28386
814.41	28451
814.551	28310
814.692	28291
814.833	28424
814.974	28341
815.115	28386
815.256	28276
815.397	28223
815.539	28249
815.68	28173
815.821	27998
815.962	28166
816.103	27968
816.244	28162
816.385	27941
816.526	28006
816.666	27690
816.807	27618
816.948	27667
817.089	27766
817.23	27648
817.371	27557
817.512	27656
817.653	27534
817.793	27549
817.934	27530
818.075	27606
818.216	27599
818.356	27458
818.497	27450
818.638	27287
818.778	27397
818.919	27408
819.06	27538
819.2	27435
819.341	27637
819.481	27580
819.622	27766
819.762	28059
819.903	27960
820.043	27793
820.184	27804
820.324	27720
820.465	28013
820.605	27698
820.746	27778
820.886	27538
821.026	27819
821.167	27656
821.307	27739
821.447	27713
821.588	27648
821.728	27443
821.868	27294
822.008	27199
822.149	27195
822.289	27116
822.429	26872
822.569	26819
822.709	26842
822.849	26708
822.99	26541
823.13	26640
823.27	26609
823.41	26324
823.55	26336
823.69	26431
823.83	26457
823.97	26473
824.11	26206
824.25	26191
824.389	26275
824.529	26278
824.669	26309
824.809	26450
824.949	26275
825.089	26377
825.228	26408
825.368	26096
825.508	25921
825.648	26058
825.787	26157
825.927	26176
826.067	26111
826.206	26168
826.346	26240
826.485	26218
826.625	26100
826.765	26275
826.904	26332
827.044	26020
827.183	25932
827.323	26024
827.462	25944
827.601	25864
827.741	25814
827.88	25883
828.02	25776
828.159	25947
828.298	25833
828.437	25944
828.577	25849
828.716	25868
828.855	25845
828.994	25552
829.134	25628
829.273	25643
829.412	25575
829.551	25464
829.69	25457
829.829	25674
829.968	25734
830.107	25544
830.246	25605
830.385	25400
830.524	25396
830.663	25308
830.802	25221
830.941	25114
831.08	25171
831.219	25259
831.357	25316
831.496	25510
831.635	25160
831.774	25175
831.913	25008
832.051	25088
832.19	24916
832.329	24958
832.467	24814
832.606	24863
832.744	24798
832.883	24970
833.022	24779
833.16	24734
833.299	24760
833.437	24665
833.576	24954
833.714	24954
833.852	24951
833.991	24932
834.129	25000
834.267	24992
834.406	24905
834.544	24954
834.682	25084
834.821	24882
834.959	25084
835.097	24913
835.235	24920
835.373	24886
835.511	24856
835.65	24798
835.788	24772
835.926	24521
836.064	24509
836.202	24642
836.34	24802
836.478	24776
836.615	24741
836.753	24856
836.891	24719
837.029	24840
837.167	24661
837.305	24681
837.443	24525
837.58	24601
837.718	24700
837.856	24612
837.993	24574
838.131	24677
838.269	24338
838.406	24528
838.544	24410
838.681	24292
838.819	24125
838.956	24144
839.094	23912
839.231	24125
839.369	24190
839.506	24399
839.643	24350
839.781	23958
839.918	23935
840.055	24087
840.193	23908
840.33	23885
840.467	24003
840.604	24015
840.742	24213
840.879	23794
841.016	23745
841.153	23863
841.29	24091
841.427	23821
841.564	23958
841.701	23942
841.838	23874
841.975	23813
842.112	23821
842.249	23885
842.385	23642
842.522	23916
842.659	23771
842.796	23668
842.933	23775
843.069	23577
843.206	23699
843.343	23764
843.479	23657
843.616	23585
843.752	23531
843.889	23509
844.025	23547
844.162	23421
844.298	23630
844.435	23524
844.571	23307
844.708	23672
844.844	23722
844.98	23611
845.117	23661
845.253	23471
845.389	23383
845.525	23349
845.661	23284
845.798	23258
845.934	23235
846.07	23223
846.206	23292
846.342	23402
846.478	23132
846.614	23117
846.75	22866
846.886	22930
847.022	23025
847.158	22965
847.294	23003
847.429	23025
847.565	22946
847.701	23181
847.837	22820
847.972	22546
848.108	22759
848.244	22755
848.379	22561
848.515	22523
848.65	22512
848.786	22577
848.921	22531
849.057	22698
849.192	22607
849.328	22603
849.463	22607
849.598	22573
849.734	22550
849.869	22462
850.004	22333
850.14	22310
850.275	22325
850.41	22238
850.545	22211
850.68	22230
850.815	22268
850.95	22242
851.085	22352
851.22	22363
851.355	22375
851.49	22261
851.625	22246
851.76	22303
851.895	22192
852.03	22223
852.165	22352
852.299	22405
852.434	22348
852.569	22367
852.703	22253
852.838	22306
852.973	22531
853.107	22394
853.242	22249
853.376	22135
853.511	22006
853.645	22067
853.78	22367
853.914	22242
854.048	22093
854.183	22097
854.317	22059
854.451	22413
854.585	22135
854.72	22055
854.854	22272
854.988	22154
855.122	22131
855.256	21991
855.39	22143
855.524	22219
855.658	22139
855.792	22010
855.926	22147
856.06	22295
856.194	22086
856.327	22109
856.461	21987
856.595	21945
856.729	22147
856.862	22185
856.996	22063
857.13	22112
857.263	22135
857.397	22204
857.53	22215
857.664	22303
857.797	22135
857.931	22234
858.064	22086
858.197	22207
858.331	22074
858.464	22101
858.597	22029
858.731	22131
858.864	22101
858.997	22128
859.13	22112
859.263	22120
859.396	22299
859.529	22059
859.662	22173
859.795	21987
859.928	22082
860.061	22280
860.194	22371
860.327	22249
860.46	22204
860.592	22200
860.725	22211
860.858	22204
860.99	22181
861.123	21911
861.256	22017
861.388	22162
861.521	22805
861.653	21930
861.786	21873
861.918	21956
862.05	22082
862.183	22040
862.315	22131
862.447	22010
862.58	22105
862.712	21899
862.844	21770
862.976	21873
863.108	21922
863.24	22478
863.372	21747
863.504	21968
863.636	21827
863.768	21926
863.9	21838
864.032	21800
864.164	21603
864.296	21922
864.428	21915
864.559	21888
864.691	21956
864.823	21781
864.954	21819
865.086	21724
865.217	21876
865.349	21622
865.48	21762
865.612	21679
865.743	21800
865.875	21724
866.006	21633
866.137	21823
866.269	21739
866.4	21690
866.531	21644
866.662	21743
866.793	21583
866.924	21682
867.055	21728
867.186	21743
867.317	21739
867.448	21538
867.579	21622
867.71	21511
867.841	21614
867.972	21637
868.103	21618
868.233	21739
868.364	21572
868.495	21823
868.625	21949
868.756	22032
868.886	21747
869.017	21861
869.147	21922
869.278	21983
869.408	21907
869.539	21838
869.669	21895
869.799	21926
869.929	22082
870.06	22059
870.19	22223
870.32	22147
870.45	22215
870.58	22276
870.71	22325
870.84	22344
870.97	22287
871.1	22322
871.23	22523
871.36	22489
871.489	22371
871.619	22485
871.749	22451
871.879	22542
872.008	22694
872.138	22554
872.267	22554
872.397	22409
872.526	22398
872.656	22344
872.785	22356
872.915	22569
873.044	22527
873.173	22573
873.303	22569
873.432	22508
873.561	22748
873.69	22546
873.819	22497
873.948	22706
874.077	22462
874.206	22516
874.335	22481
874.464	22660
874.593	22721
874.722	22687
874.851	22755
874.979	22774
875.108	22862
875.237	22694
875.365	22691
875.494	22721
875.623	22793
875.751	22713
875.88	22778
876.008	22812
876.136	22930
876.265	23067
876.393	23284
876.521	23132
876.65	23311
876.778	23060
876.906	23147
877.034	23064
877.162	23105
877.29	22900
877.418	23075
877.546	23227
877.674	23044
877.802	23071
877.93	23090
878.058	22984
878.185	22908
878.313	22999
878.441	23147
878.568	22869
878.696	22999
878.824	23143
878.951	23025
879.079	23231
879.206	23261
879.333	23250
879.461	23136
879.588	23174
879.715	23364
879.842	23356
879.97	23155
880.097	22980
880.224	22889
880.351	22923
880.478	22968
880.605	22938
880.732	22915
880.859	23151
880.986	22934
881.112	22843
881.239	22721
881.366	22656
881.493	22550
881.619	22546
881.746	22516
881.872	22451
881.999	22516
882.125	22436
882.252	22421
882.378	22489
882.505	22360
882.631	22242
882.757	22238
882.883	22211
883.01	22166
883.136	22109
883.262	22040
883.388	21953
883.514	22219
883.64	22196
883.766	22143
883.892	21975
884.018	21991
884.143	22090
884.269	22086
884.395	21827
884.52	21762
884.646	21857
884.772	21812
884.897	21717
885.023	21835
885.148	21899
885.274	21998
885.399	21865
885.524	21743
885.65	21797
885.775	21842
885.9	21694
886.025	21804
886.15	21876
886.275	21739
886.4	21728
886.525	21804
886.65	21682
886.775	21694
886.9	21964
887.025	22010
887.149	21785
887.274	21599
887.399	21542
887.523	21462
887.648	21424
887.773	21401
887.897	21530
888.021	21656
888.146	21405
888.27	21587
888.395	21682
888.519	21477
888.643	21625
888.767	21492
888.891	21523
889.015	21336
889.139	21466
889.263	21359
889.387	21401
889.511	21485
889.635	21450
889.759	21317
889.883	21336
890.006	21310
890.13	21469
890.254	21233
890.377	21165
890.501	21146
890.624	21081
890.748	21233
890.871	20979
890.995	20899
891.118	20914
891.241	20899
891.364	20849
891.488	21009
891.611	20990
891.734	20883
891.857	20956
891.98	20823
892.103	20952
892.226	20853
892.349	20910
892.471	20819
892.594	20754
892.717	20815
892.839	20823
892.962	20804
893.085	20849
893.207	20720
893.33	20640
893.452	20758
893.575	20872
893.697	20876
893.819	20899
893.941	20921
894.064	20963
894.186	20746
894.308	20720
894.43	20826
894.552	20925
894.674	20902
894.796	20598
894.918	20708
895.04	20785
895.161	20876
895.283	20826
895.405	20632
895.526	20708
895.648	20788
895.769	20807
895.891	20724
896.012	20842
896.134	20689
896.255	20739
896.376	20697
896.498	20762
896.619	20807
896.74	20705
896.861	20716
896.982	21119
897.103	21161
897.224	20944
897.345	21001
897.466	20967
897.587	20960
897.708	21173
897.828	20883
897.949	20864
898.07	20708
898.19	20876
898.311	21036
898.431	20937
898.552	21089
898.672	21039
898.792	21119
898.913	20971
899.033	20792
899.153	20739
899.273	20644
899.393	20682
899.513	20689
899.633	20705
899.753	20750
899.873	20590
899.993	20667
900.113	20568
900.232	20701
900.352	20609
900.472	20556
900.591	20530
900.711	20434
900.83	20423
900.95	20587
901.069	20495
901.189	20328
901.308	20126
901.427	20039
901.546	20142
901.665	20134
901.784	20031
901.904	20119
902.023	19883
902.141	19597
902.26	19582
902.379	19757
902.498	19609
902.617	19521
902.735	19651
902.854	19582
902.973	19449
903.091	19282
903.21	19324
903.328	19301
903.446	19038
903.565	19069
903.683	19084
903.801	18951
903.919	18913
904.038	19031
904.156	18867
904.274	18909
904.392	18810
904.51	18840
904.627	18856
904.745	18711
904.863	18825
904.981	18528
905.098	18448
905.216	18422
905.334	18479
905.451	18437
905.569	18517
905.686	18471
905.803	18407
905.921	18106
906.038	18391
906.155	18296
906.272	18163
906.389	18091
906.506	17973
906.623	18003
906.74	17923
906.857	17813
906.974	17783
907.091	18076
907.208	18140
907.324	18121
907.441	17851
907.557	17718
907.674	17722
907.79	17592
907.907	17699
908.023	17630
908.139	17752
908.256	17573
908.372	17695
908.488	17505
908.604	17497
908.72	17239
908.836	17421
908.952	17307
909.068	17497
909.184	17589
909.3	17414
909.415	17440
909.531	17493
909.647	17250
909.762	17086
909.878	17079
909.993	17155
910.108	17174
910.224	17041
910.339	17162
910.454	16923
910.57	16968
910.685	16949
910.8	17102
910.915	17189
911.03	16953
911.145	16782
911.259	16687
911.374	16691
911.489	16664
911.604	16668
911.718	16371
911.833	16447
911.947	16310
912.062	16325
912.176	16493
912.291	16599
912.405	16432
912.519	16596
912.633	16664
912.748	16561
912.862	16379
912.976	16322
913.09	16234
913.204	16196
913.318	16310
913.431	16303
913.545	16379
913.659	16367
913.772	16223
913.886	16238
914	16173
914.113	16215
914.226	16211
914.34	16169
914.453	16006
914.566	16078
914.68	15972
914.793	16002
914.906	15778
915.019	15629
915.132	15701
915.245	15698
915.358	15622
915.47	15797
915.583	15663
915.696	15724
915.809	15679
915.921	15736
916.034	15625
916.146	15523
916.259	15507
916.371	15553
916.483	15682
916.595	15469
916.708	15553
916.82	15576
916.932	15420
917.044	15351
917.156	15374
917.268	15317
917.38	15355
917.491	15268
917.603	15325
917.715	15435
917.826	15405
917.938	15192
918.049	15154
918.161	15226
918.272	15401
918.384	15412
918.495	15268
918.606	15024
918.717	15032
918.828	15093
918.939	15116
919.05	15028
919.161	15017
919.272	14880
919.383	14960
919.494	15066
919.604	15249
919.715	15013
919.826	14998
919.936	15032
920.047	15150
920.157	14990
920.267	15275
920.378	15020
920.488	14910
920.598	15188
920.708	15313
920.818	15192
920.928	15131
921.038	15340
921.148	15207
921.258	14918
921.368	14815
921.477	14796
921.587	14796
921.697	14659
921.806	14853
921.916	14629
922.025	14476
922.134	14320
922.244	14362
922.353	14362
922.462	14313
922.571	14237
922.68	14103
922.789	13963
922.898	14084
923.007	13989
923.116	13967
923.224	13928
923.333	14005
923.442	13826
923.55	13856
923.659	13868
923.767	13925
923.876	13780
923.984	13822
924.092	13662
924.201	13799
924.309	13742
924.417	13765
924.525	13666
924.633	13636
924.741	14602
924.849	13499
924.956	13620
925.064	13495
925.172	13362
925.279	13411
925.387	13392
925.494	13377
925.602	13559
925.709	13441
925.816	13247
925.924	13362
926.031	13426
926.138	13285
926.245	13384
926.352	13221
926.459	13369
926.566	13400
926.673	13202
926.779	13107
926.886	13118
926.993	12947
927.099	12932
927.206	12878
927.312	12993
927.419	12989
927.525	12943
927.631	12993
927.737	12867
927.843	12844
927.95	12681
928.056	12741
928.162	12764
928.267	12806
928.373	13411
928.479	12890
928.585	12612
928.69	12753
928.796	12787
928.901	12639
929.007	12555
929.112	12608
929.218	12623
929.323	12612
929.428	12464
929.533	12608
929.638	12376
929.743	12456
929.848	12456
929.953	12391
930.058	12308
930.163	12121
930.267	12220
930.372	12285
930.477	12175
930.581	12300
930.685	12117
930.79	11988
930.894	12155
930.998	12060
931.103	12095
931.207	11695
931.311	11680
931.415	11577
931.519	11395
931.623	11452
