Data from test_V78500241_2973.txt Node
Date: Fri Mar 25 16:02:23 CST 2022
User: usil
Spectrometer: V785-0024
Trigger mode: 0
Integration Time (sec): 4.000000E-1
Scans to average: 1
Nonlinearity correction enabled: false
Boxcar width: 0
Storing dark spectrum: false
XAxis mode: Wavelengths
Number of Pixels in Spectrum: 1024
>>>>>Begin Spectral Data<<<<<
801.071	28036
801.214	27899
801.356	27755
801.499	27705
801.641	27519
801.783	27576
801.926	27534
802.068	27622
802.211	27405
802.353	27534
802.496	27291
802.638	27135
802.78	27199
802.923	27237
803.065	27123
803.208	27123
803.35	27222
803.492	27370
803.635	27485
803.777	27230
803.919	27393
804.061	27911
804.204	27488
804.346	27359
804.488	27355
804.63	27469
804.773	27348
804.915	27363
805.057	27705
805.199	27515
805.341	27603
805.483	27542
805.626	27530
805.768	27458
805.91	27663
806.052	27542
806.194	27431
806.336	27762
806.478	27667
806.62	27587
806.762	27865
806.904	27831
807.046	28112
807.188	28101
807.33	28063
807.472	28105
807.614	28013
807.756	28006
807.898	27880
808.04	27717
808.182	27762
808.324	27892
808.465	27983
808.607	28086
808.749	28249
808.891	28394
809.033	28447
809.174	28272
809.316	28303
809.458	28306
809.6	28371
809.741	28390
809.883	28478
810.025	28508
810.166	28436
810.308	28546
810.45	28527
810.591	28421
810.733	28512
810.875	28211
811.016	28021
811.158	28131
811.299	28310
811.441	28341
811.582	28390
811.724	28325
811.865	28238
812.007	28265
812.148	28211
812.29	28238
812.431	28322
812.573	28611
812.714	28797
812.855	28797
812.997	28866
813.138	29033
813.279	28946
813.421	28736
813.562	28588
813.703	28573
813.845	28360
813.986	28101
814.127	28143
814.268	27949
814.41	28029
814.551	27968
814.692	28025
814.833	27774
814.974	27918
815.115	27968
815.256	27762
815.397	27751
815.539	27747
815.68	27812
815.821	27736
815.962	27770
816.103	27614
816.244	27504
816.385	27412
816.526	27447
816.666	27302
816.807	27192
816.948	27466
817.089	27291
817.23	27226
817.371	27230
817.512	27226
817.653	27165
817.793	27199
817.934	27127
818.075	27313
818.216	27112
818.356	26967
818.497	27192
818.638	26918
818.778	26876
818.919	26944
819.06	26982
819.2	27157
819.341	27245
819.481	27249
819.622	27435
819.762	27682
819.903	27545
820.043	27336
820.184	27344
820.324	27272
820.465	27386
820.605	27351
820.746	27363
820.886	27127
821.026	27351
821.167	27226
821.307	27424
821.447	27260
821.588	27116
821.728	27005
821.868	26788
822.008	26815
822.149	26746
822.289	26602
822.429	26492
822.569	26370
822.709	26347
822.849	26233
822.99	26214
823.13	26145
823.27	26191
823.41	25997
823.55	25917
823.69	26020
823.83	26069
823.97	26115
824.11	25788
824.25	25639
824.389	25856
824.529	25822
824.669	25932
824.809	25928
824.949	25898
825.089	26058
825.228	25818
825.368	25590
825.508	25826
825.648	25704
825.787	25712
825.927	25715
826.067	25731
826.206	25704
826.346	25677
826.485	25750
826.625	25757
826.765	25921
826.904	25803
827.044	25407
827.183	25518
827.323	25445
827.462	25548
827.601	25460
827.741	25441
827.88	25537
828.02	25289
828.159	25407
828.298	25449
828.437	25578
828.577	25400
828.716	25453
828.855	25384
828.994	25061
829.134	25179
829.273	25228
829.412	25095
829.551	25088
829.69	25061
829.829	24951
829.968	25069
830.107	25187
830.246	25061
830.385	25103
830.524	24939
830.663	25027
830.802	24722
830.941	24639
831.08	24700
831.219	24658
831.357	24821
831.496	24989
831.635	24722
831.774	24658
831.913	24772
832.051	24525
832.19	24525
832.329	24395
832.467	24547
832.606	24441
832.744	24327
832.883	24399
833.022	24353
833.16	24486
833.299	24448
833.437	24448
833.576	24418
833.714	24547
833.852	24525
833.991	24479
834.129	24654
834.267	24528
834.406	24532
834.544	24540
834.682	24361
834.821	24456
834.959	24608
835.097	24448
835.235	24456
835.373	24353
835.511	24467
835.65	24376
835.788	24270
835.926	24228
836.064	24034
836.202	24201
836.34	24330
836.478	24395
836.615	24159
836.753	24410
836.891	24270
837.029	24315
837.167	24152
837.305	24182
837.443	24171
837.58	24144
837.718	24209
837.856	24034
837.993	24098
838.131	24159
838.269	24083
838.406	24049
838.544	23897
838.681	23630
838.819	23733
838.956	23558
839.094	23608
839.231	23684
839.369	23680
839.506	23950
839.643	23863
839.781	23604
839.918	23608
840.055	23615
840.193	23535
840.33	23467
840.467	23455
840.604	23554
840.742	23783
840.879	23337
841.016	23497
841.153	23368
841.29	23619
841.427	23433
841.564	23474
841.701	23345
841.838	23398
841.975	23433
842.112	23315
842.249	23330
842.385	23280
842.522	23493
842.659	23296
842.796	23185
842.933	23265
843.069	23189
843.206	23185
843.343	23292
843.479	23269
843.616	23227
843.752	23022
843.889	22991
844.025	23136
844.162	22953
844.298	23018
844.435	22915
844.571	22968
844.708	23022
844.844	23231
844.98	23018
845.117	23121
845.253	22896
845.389	22915
845.525	22919
845.661	22942
845.798	22782
845.934	22797
846.07	22721
846.206	22721
846.342	22839
846.478	22668
846.614	22554
846.75	22428
846.886	22535
847.022	22664
847.158	22413
847.294	22592
847.429	22565
847.565	22489
847.701	22824
847.837	22143
847.972	22185
848.108	22284
848.244	22337
848.379	22082
848.515	22032
848.65	22029
848.786	22078
848.921	22017
849.057	22261
849.192	22207
849.328	22055
849.463	22059
849.598	22029
849.734	21941
849.869	21975
850.004	21781
850.14	21800
850.275	21850
850.41	21747
850.545	21800
850.68	21766
850.815	21956
850.95	21895
851.085	22097
851.22	22036
851.355	21846
851.49	21797
851.625	21880
851.76	21793
851.895	21907
852.03	21720
852.165	21789
852.299	21743
852.434	21915
852.569	21846
852.703	21941
852.838	21968
852.973	22013
853.107	21895
853.242	21823
853.376	21709
853.511	21507
853.645	21709
853.78	21781
853.914	21766
854.048	21648
854.183	21618
854.317	21804
854.451	21778
854.585	21724
854.72	21671
854.854	21762
854.988	21564
855.122	21751
855.256	21469
855.39	21629
855.524	21656
855.658	21717
855.792	21751
855.926	21713
856.06	21686
856.194	21728
856.327	21682
856.461	21553
856.595	21622
856.729	21583
856.862	21644
856.996	21720
857.13	21812
857.263	21838
857.397	21819
857.53	21751
857.664	21637
857.797	21732
857.931	21755
858.064	21732
858.197	21781
858.331	21682
858.464	21618
858.597	21591
858.731	21587
858.864	21629
858.997	21625
859.13	21743
859.263	21603
859.396	21690
859.529	21736
859.662	21739
859.795	21728
859.928	21622
860.061	21713
860.194	21850
860.327	21774
860.46	21698
860.592	21865
860.725	21751
860.858	21751
860.99	21778
861.123	21720
861.256	21690
861.388	21583
861.521	22382
861.653	21618
861.786	21568
861.918	21549
862.05	21557
862.183	21587
862.315	21580
862.447	21717
862.58	21606
862.712	21507
862.844	21405
862.976	21511
863.108	21564
863.24	21926
863.372	21389
863.504	21511
863.636	21424
863.768	21530
863.9	21481
864.032	21226
864.164	21477
864.296	21450
864.428	21466
864.559	21492
864.691	21412
864.823	21386
864.954	21348
865.086	21393
865.217	21329
865.349	21275
865.48	21310
865.612	21245
865.743	21332
865.875	21344
866.006	21344
866.137	21412
866.269	21317
866.4	21264
866.531	21332
866.662	21188
866.793	21310
866.924	21199
867.055	21256
867.186	21249
867.317	21249
867.448	21142
867.579	21203
867.71	21119
867.841	21226
867.972	21184
868.103	21249
868.233	21233
868.364	21237
868.495	21279
868.625	21557
868.756	21591
868.886	21306
869.017	21408
869.147	21538
869.278	21538
869.408	21405
869.539	21420
869.669	21572
869.799	21610
869.929	21625
870.06	21599
870.19	21895
870.32	21781
870.45	21785
870.58	21819
870.71	22090
870.84	21915
870.97	21915
871.1	21903
871.23	22086
871.36	22063
871.489	22036
871.619	21964
871.749	22070
871.879	22162
872.008	22055
872.138	22154
872.267	22059
872.397	21964
872.526	21854
872.656	21964
872.785	21907
872.915	22040
873.044	22154
873.173	22032
873.303	22097
873.432	22181
873.561	22287
873.69	22010
873.819	22147
873.948	22173
874.077	22120
874.206	22120
874.335	22188
874.464	22090
874.593	22268
874.722	22306
874.851	22333
874.979	22314
875.108	22295
875.237	22318
875.365	22261
875.494	22265
875.623	22481
875.751	22325
875.88	22295
876.008	22432
876.136	22443
876.265	22729
876.393	22820
876.521	22698
876.65	22683
876.778	22748
876.906	22664
877.034	22565
877.162	22687
877.29	22683
877.418	22725
877.546	22679
877.674	22675
877.802	22706
877.93	22824
878.058	22554
878.185	22504
878.313	22569
878.441	22649
878.568	22466
878.696	22584
878.824	22782
878.951	22767
879.079	22767
879.206	22869
879.333	22801
879.461	22733
879.588	22847
879.715	22866
879.842	23010
879.97	22812
880.097	22466
880.224	22367
880.351	22519
880.478	22569
880.605	22512
880.732	22573
880.859	22702
880.986	22310
881.112	22557
881.239	22310
881.366	22196
881.493	22097
881.619	22158
881.746	22055
881.872	22112
881.999	21975
882.125	21991
882.252	22093
882.378	21903
882.505	22090
882.631	21922
882.757	21831
882.883	21846
883.01	21732
883.136	21500
883.262	21641
883.388	21564
883.514	21732
883.64	21591
883.766	21660
883.892	21523
884.018	21504
884.143	21701
884.269	21694
884.395	21420
884.52	21424
884.646	21454
884.772	21294
884.897	21252
885.023	21428
885.148	21416
885.274	21428
885.399	21469
885.524	21393
885.65	21344
885.775	21454
885.9	21397
886.025	21545
886.15	21481
886.275	21412
886.4	21226
886.525	21469
886.65	21329
886.775	21214
886.9	21401
887.025	21523
887.149	21378
887.274	21188
887.399	21058
887.523	21119
887.648	21157
887.773	21142
887.897	21275
888.021	21245
888.146	21108
888.27	21264
888.395	21226
888.519	21237
888.643	21070
888.767	21294
888.891	20975
889.015	20971
889.139	20975
889.263	20967
889.387	20948
889.511	21222
889.635	21009
889.759	20906
889.883	20876
890.006	20906
890.13	20952
890.254	20933
890.377	20937
890.501	20762
890.624	20720
890.748	20724
890.871	20564
890.995	20507
891.118	20473
891.241	20663
891.364	20579
891.488	20659
891.611	20461
891.734	20545
891.857	20598
891.98	20560
892.103	20511
892.226	20568
892.349	20495
892.471	20328
892.594	20377
892.717	20465
892.839	20560
892.962	20457
893.085	20564
893.207	20347
893.33	20317
893.452	20313
893.575	20415
893.697	20317
893.819	20507
893.941	20583
894.064	20613
894.186	20450
894.308	20438
894.43	20499
894.552	20686
894.674	20396
894.796	20271
894.918	20355
895.04	20347
895.161	20503
895.283	20465
895.405	20271
895.526	20374
895.648	20336
895.769	20336
895.891	20324
896.012	20484
896.134	20404
896.255	20400
896.376	20370
896.498	20507
896.619	20427
896.74	20427
896.861	20461
896.982	20811
897.103	20857
897.224	20667
897.345	20625
897.466	20533
897.587	20621
897.708	20693
897.828	20697
897.949	20545
898.07	20461
898.19	20564
898.311	20587
898.431	20587
898.552	20663
898.672	20667
898.792	20689
898.913	20503
899.033	20598
899.153	20389
899.273	20355
899.393	20381
899.513	20499
899.633	20343
899.753	20362
899.873	20339
899.993	20385
900.113	20271
900.232	20301
900.352	20237
900.472	20172
900.591	20164
900.711	20206
900.83	20092
900.95	20248
901.069	20168
901.189	20027
901.308	19860
901.427	19860
901.546	19666
901.665	19818
901.784	19727
901.904	19575
902.023	19434
902.141	19247
902.26	19365
902.379	19358
902.498	19156
902.617	19266
902.735	19278
902.854	19289
902.973	19076
903.091	18932
903.21	18970
903.328	18932
903.446	18741
903.565	18646
903.683	18745
903.801	18570
903.919	18673
904.038	18642
904.156	18429
904.274	18502
904.392	18414
904.51	18388
904.627	18494
904.745	18479
904.863	18429
904.981	18346
905.098	18159
905.216	18133
905.334	18205
905.451	18136
905.569	18057
905.686	18102
905.803	18102
905.921	17866
906.038	17999
906.155	17954
906.272	17805
906.389	17756
906.506	17668
906.623	17630
906.74	17764
906.857	17611
906.974	17436
907.091	17676
907.208	17794
907.324	17634
907.441	17554
907.557	17372
907.674	17383
907.79	17315
907.907	17360
908.023	17459
908.139	17337
908.256	17303
908.372	17315
908.488	17254
908.604	17151
908.72	17159
908.836	17056
908.952	17075
909.068	17022
909.184	17193
909.3	17033
909.415	17109
909.531	17113
909.647	16831
909.762	16809
909.878	16740
909.993	16854
910.108	16706
910.224	16733
910.339	16702
910.454	16603
910.57	16599
910.685	16504
910.8	16790
910.915	16717
911.03	16485
911.145	16504
911.259	16363
911.374	16455
911.489	16356
911.604	16207
911.718	16044
911.833	16109
911.947	15994
912.062	16067
912.176	16154
912.291	16139
912.405	16120
912.519	16333
912.633	16318
912.748	16082
912.862	16139
912.976	15903
913.09	15869
913.204	15884
913.318	15972
913.431	16025
913.545	16040
913.659	15968
913.772	15884
913.886	15800
914	15743
914.113	15808
914.226	15880
914.34	15903
914.453	15591
914.566	15694
914.68	15686
914.793	15614
914.906	15412
915.019	15340
915.132	15313
915.245	15340
915.358	15332
915.47	15355
915.583	15332
915.696	15405
915.809	15466
915.921	15450
916.034	15340
916.146	15298
916.259	15180
916.371	15268
916.483	15332
916.595	15138
916.708	15207
916.82	15233
916.932	15116
917.044	15074
917.156	15123
917.268	15043
917.38	14952
917.491	15032
917.603	14975
917.715	15028
917.826	15005
917.938	14944
918.049	14773
918.161	14975
918.272	15081
918.384	15108
918.495	14967
918.606	14807
918.717	14632
918.828	14819
918.939	14686
919.05	14575
919.161	14739
919.272	14526
919.383	14587
919.494	14735
919.604	14914
919.715	14792
919.826	14727
919.936	14606
920.047	14716
920.157	14640
920.267	14887
920.378	14674
920.488	14625
920.598	14773
920.708	14986
920.818	14811
920.928	14853
921.038	14933
921.148	15009
921.258	14655
921.368	14545
921.477	14469
921.587	14427
921.697	14324
921.806	14415
921.916	14301
922.025	14164
922.134	14103
922.244	14024
922.353	14073
922.462	13993
922.571	13936
922.68	13715
922.789	13700
922.898	13734
923.007	13696
923.116	13742
923.224	13708
923.333	13674
923.442	13624
923.55	13506
923.659	13605
923.767	13681
923.876	13567
923.984	13620
924.092	13377
924.201	13491
924.309	13502
924.417	13407
924.525	13339
924.633	13441
924.741	14229
924.849	13217
924.956	13343
925.064	13133
925.172	13065
925.279	13175
925.387	13247
925.494	13012
925.602	13251
925.709	13145
925.816	13061
925.924	13091
926.031	13103
926.138	13126
926.245	13156
926.352	12970
926.459	12996
926.566	13149
926.673	12958
926.779	12871
926.886	12886
926.993	12768
927.099	12612
927.206	12635
927.312	12616
927.419	12696
927.525	12753
927.631	12722
927.737	12555
927.843	12506
927.95	12403
928.056	12448
928.162	12517
928.267	12536
928.373	13149
928.479	12547
928.585	12353
928.69	12391
928.796	12445
928.901	12357
929.007	12205
929.112	12300
929.218	12330
929.323	12251
929.428	12220
929.533	12353
929.638	12186
929.743	12235
929.848	12243
929.953	12148
930.058	12060
930.163	11931
930.267	11878
930.372	12003
930.477	11931
930.581	12060
930.685	12034
930.79	11794
930.894	11843
930.998	11726
931.103	11904
931.207	11524
931.311	11467
931.415	11391
931.519	11239
931.623	11155
