Data from test_V78500241_1432.txt Node
Date: Fri Mar 25 15:51:43 CST 2022
User: usil
Spectrometer: V785-0024
Trigger mode: 0
Integration Time (sec): 4.000000E-1
Scans to average: 1
Nonlinearity correction enabled: false
Boxcar width: 0
Storing dark spectrum: false
XAxis mode: Wavelengths
Number of Pixels in Spectrum: 1024
>>>>>Begin Spectral Data<<<<<
801.071	28299
801.214	28303
801.356	27983
801.499	27884
801.641	27926
801.783	27880
801.926	27850
802.068	27842
802.211	27682
802.353	27694
802.496	27469
802.638	27553
802.78	27526
802.923	27439
803.065	27420
803.208	27363
803.35	27507
803.492	27538
803.635	27641
803.777	27641
803.919	27755
804.061	28078
804.204	27698
804.346	27739
804.488	27526
804.63	27671
804.773	27583
804.915	27713
805.057	27850
805.199	27656
805.341	27861
805.483	27941
805.626	27838
805.768	27793
805.91	27755
806.052	28036
806.194	27781
806.336	28078
806.478	27827
806.62	27854
806.762	27964
806.904	28070
807.046	28238
807.188	28287
807.33	28382
807.472	28249
807.614	28265
807.756	28371
807.898	28215
808.04	28150
808.182	28070
808.324	28082
808.465	28234
808.607	28550
808.749	28527
808.891	28584
809.033	28698
809.174	28493
809.316	28474
809.458	28424
809.6	28462
809.741	28645
809.883	28622
810.025	28881
810.166	28877
810.308	28923
810.45	28721
810.591	28653
810.733	28607
810.875	28500
811.016	28451
811.158	28504
811.299	28710
811.441	28546
811.582	28755
811.724	28481
811.865	28493
812.007	28443
812.148	28413
812.29	28615
812.431	28778
812.573	28987
812.714	28911
812.855	29090
812.997	29258
813.138	29235
813.279	29136
813.421	29014
813.562	28980
813.703	28839
813.845	28592
813.986	28504
814.127	28257
814.268	28337
814.41	28303
814.551	28253
814.692	28215
814.833	28002
814.974	28192
815.115	28268
815.256	28109
815.397	28181
815.539	28166
815.68	27983
815.821	27895
815.962	27941
816.103	27953
816.244	27911
816.385	27774
816.526	27865
816.666	27641
816.807	27576
816.948	27515
817.089	27538
817.23	27599
817.371	27420
817.512	27488
817.653	27542
817.793	27511
817.934	27534
818.075	27583
818.216	27504
818.356	27401
818.497	27393
818.638	27230
818.778	27317
818.919	27363
819.06	27458
819.2	27272
819.341	27507
819.481	27496
819.622	27663
819.762	27918
819.903	27804
820.043	27622
820.184	27717
820.324	27724
820.465	27717
820.605	27713
820.746	27686
820.886	27561
821.026	27561
821.167	27671
821.307	27622
821.447	27492
821.588	27416
821.728	27302
821.868	27176
822.008	26986
822.149	27051
822.289	26906
822.429	26765
822.569	26674
822.709	26678
822.849	26469
822.99	26560
823.13	26408
823.27	26434
823.41	26351
823.55	26221
823.69	26275
823.83	26408
823.97	26214
824.11	26073
824.25	26221
824.389	26199
824.529	26199
824.669	26183
824.809	26332
824.949	26271
825.089	26195
825.228	26214
825.368	25993
825.508	25894
825.648	26058
825.787	26005
825.927	26100
826.067	25978
826.206	25955
826.346	25921
826.485	26138
826.625	25974
826.765	26164
826.904	25997
827.044	25734
827.183	25681
827.323	25715
827.462	25841
827.601	25651
827.741	25681
827.88	25894
828.02	25601
828.159	25628
828.298	25734
828.437	25693
828.577	25693
828.716	25765
828.855	25746
828.994	25525
829.134	25388
829.273	25434
829.412	25499
829.551	25457
829.69	25540
829.829	25388
829.968	25597
830.107	25426
830.246	25468
830.385	25335
830.524	25297
830.663	25114
830.802	25148
830.941	25133
831.08	24947
831.219	25095
831.357	25053
831.496	25221
831.635	25061
831.774	24947
831.913	24939
832.051	24882
832.19	24829
832.329	24825
832.467	24764
832.606	24559
832.744	24696
832.883	24631
833.022	24722
833.16	24749
833.299	24734
833.437	24814
833.576	24719
833.714	24825
833.852	24825
833.991	24840
834.129	24833
834.267	24810
834.406	24730
834.544	24760
834.682	24840
834.821	24745
834.959	25008
835.097	24639
835.235	24848
835.373	24840
835.511	24753
835.65	24525
835.788	24597
835.926	24490
836.064	24498
836.202	24410
836.34	24715
836.478	24661
836.615	24623
836.753	24517
836.891	24631
837.029	24677
837.167	24544
837.305	24353
837.443	24456
837.58	24426
837.718	24551
837.856	24353
837.993	24471
838.131	24300
838.269	24273
838.406	24327
838.544	24190
838.681	24076
838.819	23950
838.956	23999
839.094	23821
839.231	24003
839.369	24155
839.506	24315
839.643	24110
839.781	23859
839.918	23863
840.055	23863
840.193	23790
840.33	23866
840.467	23786
840.604	23916
840.742	24079
840.879	23680
841.016	23668
841.153	23718
841.29	23939
841.427	23722
841.564	23752
841.701	23756
841.838	23733
841.975	23691
842.112	23665
842.249	23634
842.385	23490
842.522	23794
842.659	23737
842.796	23604
842.933	23573
843.069	23440
843.206	23528
843.343	23653
843.479	23459
843.616	23509
843.752	23372
843.889	23440
844.025	23493
844.162	23307
844.298	23433
844.435	23311
844.571	23349
844.708	23364
844.844	23436
844.98	23421
845.117	23410
845.253	23265
845.389	23166
845.525	23292
845.661	23090
845.798	23014
845.934	23197
846.07	22980
846.206	23174
846.342	23151
846.478	23151
846.614	22869
846.75	22721
846.886	22805
847.022	22790
847.158	22790
847.294	22725
847.429	22725
847.565	22778
847.701	23029
847.837	22455
847.972	22417
848.108	22630
848.244	22672
848.379	22398
848.515	22512
848.65	22386
848.786	22390
848.921	22462
849.057	22557
849.192	22424
849.328	22356
849.463	22428
849.598	22337
849.734	22169
849.869	22268
850.004	22150
850.14	22185
850.275	22032
850.41	22032
850.545	22097
850.68	22135
850.815	22177
850.95	22131
851.085	22268
851.22	22143
851.355	22150
851.49	21972
851.625	22128
851.76	22040
851.895	22086
852.03	22010
852.165	22166
852.299	22139
852.434	22200
852.569	22147
852.703	22135
852.838	22135
852.973	22276
853.107	22166
853.242	22017
853.376	21945
853.511	21895
853.645	21949
853.78	22048
853.914	21873
854.048	21907
854.183	21903
854.317	21903
854.451	22200
854.585	21956
854.72	21926
854.854	22059
854.988	21865
855.122	21979
855.256	21842
855.39	21975
855.524	21994
855.658	21949
855.792	21949
855.926	21964
856.06	21987
856.194	22055
856.327	21895
856.461	21941
856.595	21941
856.729	21850
856.862	22086
856.996	21865
857.13	22002
857.263	22078
857.397	22059
857.53	22074
857.664	22090
857.797	22135
857.931	22029
858.064	22055
858.197	21983
858.331	21869
858.464	21975
858.597	21739
858.731	21892
858.864	21880
858.997	21922
859.13	21797
859.263	22067
859.396	22135
859.529	22006
859.662	21880
859.795	21892
859.928	22040
860.061	22067
860.194	22211
860.327	22025
860.46	21895
860.592	21964
860.725	22223
860.858	22086
860.99	21926
861.123	21888
861.256	21854
861.388	21964
861.521	22637
861.653	21804
861.786	21736
861.918	21785
862.05	21854
862.183	21994
862.315	21964
862.447	21892
862.58	21842
862.712	21637
862.844	21622
862.976	21728
863.108	21686
863.24	22215
863.372	21622
863.504	21701
863.636	21538
863.768	21724
863.9	21736
864.032	21572
864.164	21633
864.296	21743
864.428	21747
864.559	21599
864.691	21785
864.823	21553
864.954	21629
865.086	21610
865.217	21610
865.349	21454
865.48	21644
865.612	21561
865.743	21690
865.875	21587
866.006	21542
866.137	21481
866.269	21523
866.4	21622
866.531	21587
866.662	21420
866.793	21382
866.924	21443
867.055	21412
867.186	21511
867.317	21500
867.448	21412
867.579	21591
867.71	21382
867.841	21450
867.972	21466
868.103	21523
868.233	21545
868.364	21526
868.495	21663
868.625	21667
868.756	21660
868.886	21538
869.017	21671
869.147	21831
869.278	21804
869.408	21736
869.539	21694
869.669	21804
869.799	21819
869.929	21911
870.06	21797
870.19	21964
870.32	22021
870.45	21949
870.58	22215
870.71	22120
870.84	22150
870.97	22188
871.1	22109
871.23	22333
871.36	22265
871.489	22166
871.619	22432
871.749	22325
871.879	22371
872.008	22394
872.138	22344
872.267	22200
872.397	22173
872.526	22109
872.656	22192
872.785	22173
872.915	22367
873.044	22386
873.173	22363
873.303	22386
873.432	22356
873.561	22402
873.69	22367
873.819	22318
873.948	22428
874.077	22284
874.206	22325
874.335	22238
874.464	22500
874.593	22561
874.722	22500
874.851	22603
874.979	22588
875.108	22675
875.237	22421
875.365	22554
875.494	22504
875.623	22634
875.751	22615
875.88	22592
876.008	22679
876.136	22713
876.265	22949
876.393	22991
876.521	22987
876.65	22980
876.778	23075
876.906	22900
877.034	22919
877.162	23037
877.29	22881
877.418	22972
877.546	22930
877.674	22843
877.802	22942
877.93	22877
878.058	22828
878.185	22904
878.313	22885
878.441	22961
878.568	22744
878.696	22831
878.824	22919
878.951	22995
879.079	23098
879.206	23200
879.333	23052
879.461	22984
879.588	23033
879.715	23086
879.842	23197
879.97	22942
880.097	22569
880.224	22771
880.351	22847
880.478	22725
880.605	22660
880.732	22843
880.859	22984
880.986	22771
881.112	22694
881.239	22660
881.366	22512
881.493	22295
881.619	22261
881.746	22398
881.872	22337
881.999	22344
882.125	22207
882.252	22367
882.378	22295
882.505	22363
882.631	22166
882.757	21991
882.883	22188
883.01	22055
883.136	21922
883.262	21903
883.388	21759
883.514	22131
883.64	21922
883.766	21934
883.892	21736
884.018	21789
884.143	22048
884.269	22048
884.395	21736
884.52	21538
884.646	21686
884.772	21519
884.897	21568
885.023	21686
885.148	21736
885.274	21785
885.399	21698
885.524	21637
885.65	21648
885.775	21667
885.9	21599
886.025	21713
886.15	21625
886.275	21469
886.4	21523
886.525	21682
886.65	21591
886.775	21530
886.9	21610
887.025	21800
887.149	21641
887.274	21454
887.399	21393
887.523	21386
887.648	21393
887.773	21287
887.897	21439
888.021	21424
888.146	21272
888.27	21477
888.395	21492
888.519	21363
888.643	21481
888.767	21325
888.891	21408
889.015	21226
889.139	21184
889.263	21203
889.387	21298
889.511	21325
889.635	21317
889.759	21138
889.883	21096
890.006	21256
890.13	21344
890.254	21119
890.377	21131
890.501	21081
890.624	20868
890.748	21096
890.871	20674
890.995	20712
891.118	20636
891.241	20758
891.364	20788
891.488	20891
891.611	20781
891.734	20750
891.857	20762
891.98	20743
892.103	20720
892.226	20667
892.349	20693
892.471	20606
892.594	20667
892.717	20689
892.839	20594
892.962	20648
893.085	20758
893.207	20583
893.33	20454
893.452	20606
893.575	20689
893.697	20571
893.819	20750
893.941	20933
894.064	20693
894.186	20594
894.308	20587
894.43	20579
894.552	20800
894.674	20735
894.796	20495
894.918	20621
895.04	20518
895.161	20746
895.283	20629
895.405	20632
895.526	20606
895.648	20545
895.769	20667
895.891	20640
896.012	20830
896.134	20659
896.255	20651
896.376	20549
896.498	20644
896.619	20697
896.74	20594
896.861	20625
896.982	20933
897.103	21051
897.224	20967
897.345	20792
897.466	20746
897.587	20819
897.708	21020
897.828	20781
897.949	20720
898.07	20625
898.19	20750
898.311	20971
898.431	20819
898.552	20781
898.672	20956
898.792	20815
898.913	20906
899.033	20693
899.153	20587
899.273	20465
899.393	20750
899.513	20514
899.633	20598
899.753	20549
899.873	20457
899.993	20564
900.113	20511
900.232	20412
900.352	20465
900.472	20454
900.591	20332
900.711	20343
900.83	20206
900.95	20408
901.069	20473
901.189	20206
901.308	20031
901.427	19898
901.546	19940
901.665	19951
901.784	19959
901.904	19738
902.023	19662
902.141	19578
902.26	19510
902.379	19582
902.498	19384
902.617	19407
902.735	19415
902.854	19381
902.973	19194
903.091	19137
903.21	19069
903.328	18985
903.446	18951
903.565	18810
903.683	18897
903.801	18833
903.919	18787
904.038	18658
904.156	18650
904.274	18688
904.392	18692
904.51	18532
904.627	18585
904.745	18677
904.863	18639
904.981	18380
905.098	18418
905.216	18384
905.334	18346
905.451	18330
905.569	18273
905.686	18471
905.803	18258
905.921	18087
906.038	18133
906.155	18064
906.272	18076
906.389	18049
906.506	17851
906.623	17767
906.74	17908
906.857	17866
906.974	17756
907.091	17912
907.208	17904
907.324	17836
907.441	17737
907.557	17554
907.674	17543
907.79	17425
907.907	17516
908.023	17524
908.139	17630
908.256	17585
908.372	17372
908.488	17391
908.604	17254
908.72	17299
908.836	17368
908.952	17250
909.068	17204
909.184	17402
909.3	17326
909.415	17296
909.531	17296
909.647	16987
909.762	16991
909.878	16847
909.993	17041
910.108	16885
910.224	16869
910.339	16927
910.454	16816
910.57	16710
910.685	16630
910.8	16976
910.915	16991
911.03	16706
911.145	16596
911.259	16569
911.374	16508
911.489	16386
911.604	16519
911.718	16318
911.833	16325
911.947	16219
912.062	16074
912.176	16405
912.291	16158
912.405	16291
912.519	16462
912.633	16455
912.748	16436
912.862	16284
912.976	16013
913.09	16029
913.204	16101
913.318	16200
913.431	16166
913.545	16207
913.659	16177
913.772	16074
913.886	15945
914	15831
914.113	15964
914.226	15983
914.34	16040
914.453	15888
914.566	15987
914.68	15816
914.793	15800
914.906	15641
915.019	15561
915.132	15378
915.245	15492
915.358	15500
915.47	15481
915.583	15431
915.696	15572
915.809	15675
915.921	15717
916.034	15488
916.146	15401
916.259	15378
916.371	15443
916.483	15386
916.595	15408
916.708	15287
916.82	15325
916.932	15313
917.044	15138
917.156	15150
917.268	15165
917.38	15146
917.491	15070
917.603	15184
917.715	15237
917.826	15188
917.938	15097
918.049	14944
918.161	15154
918.272	15169
918.384	15207
918.495	15104
918.606	14914
918.717	14895
918.828	14910
918.939	14868
919.05	14804
919.161	14956
919.272	14670
919.383	14773
919.494	14937
919.604	15081
919.715	14804
919.826	14781
919.936	14762
920.047	14944
920.157	14868
920.267	15062
920.378	14872
920.488	14765
920.598	14899
920.708	15161
920.818	15028
920.928	15005
921.038	15157
921.148	15013
921.258	14727
921.368	14785
921.477	14613
921.587	14492
921.697	14518
921.806	14571
921.916	14412
922.025	14271
922.134	14202
922.244	14168
922.353	14233
922.462	14065
922.571	14039
922.68	13982
922.789	13902
922.898	13875
923.007	13875
923.116	13879
923.224	13822
923.333	13826
923.442	13674
923.55	13696
923.659	13715
923.767	13799
923.876	13651
923.984	13693
924.092	13590
924.201	13666
924.309	13586
924.417	13632
924.525	13480
924.633	13506
924.741	14298
924.849	13354
924.956	13457
925.064	13240
925.172	13251
925.279	13263
925.387	13266
925.494	13324
925.602	13327
925.709	13316
925.816	13114
925.924	13221
926.031	13263
926.138	13198
926.245	13156
926.352	13084
926.459	13255
926.566	13187
926.673	13164
926.779	13042
926.886	12981
926.993	12817
927.099	12802
927.206	12745
927.312	12734
927.419	12791
927.525	12795
927.631	12810
927.737	12650
927.843	12604
927.95	12551
928.056	12696
928.162	12650
928.267	12646
928.373	13343
928.479	12597
928.585	12365
928.69	12646
928.796	12570
928.901	12464
929.007	12407
929.112	12456
929.218	12437
929.323	12445
929.428	12350
929.533	12429
929.638	12292
929.743	12372
929.848	12350
929.953	12357
930.058	12232
930.163	12026
930.267	12087
930.372	12178
930.477	11965
930.581	12205
930.685	12079
930.79	11893
930.894	11977
930.998	11870
931.103	12030
931.207	11623
931.311	11604
931.415	11551
931.519	11246
931.623	11303
