Data from test_V78500241_46.txt Node
Date: Fri Mar 25 15:42:07 CST 2022
User: usil
Spectrometer: V785-0024
Trigger mode: 0
Integration Time (sec): 4.000000E-1
Scans to average: 1
Nonlinearity correction enabled: false
Boxcar width: 0
Storing dark spectrum: false
XAxis mode: Wavelengths
Number of Pixels in Spectrum: 1024
>>>>>Begin Spectral Data<<<<<
801.071	28881
801.214	28786
801.356	28447
801.499	28508
801.641	28318
801.783	28344
801.926	28299
802.068	28322
802.211	28128
802.353	28147
802.496	27968
802.638	27968
802.78	27854
802.923	27857
803.065	27934
803.208	27701
803.35	27854
803.492	27804
803.635	28158
803.777	27987
803.919	28105
804.061	28207
804.204	28112
804.346	27903
804.488	27914
804.63	27800
804.773	27846
804.915	27907
805.057	28078
805.199	27907
805.341	27975
805.483	28097
805.626	28017
805.768	27892
805.91	28010
806.052	27998
806.194	28032
806.336	28299
806.478	28105
806.62	27994
806.762	28112
806.904	28215
807.046	28618
807.188	28512
807.33	28352
807.472	28611
807.614	28363
807.756	28306
807.898	28150
808.04	28147
808.182	28135
808.324	28196
808.465	28101
808.607	28459
808.749	28615
808.891	28535
809.033	28565
809.174	28459
809.316	28645
809.458	28519
809.6	28386
809.741	28626
809.883	28687
810.025	28660
810.166	28755
810.308	28782
810.45	28755
810.591	28645
810.733	28455
810.875	28401
811.016	28417
811.158	28432
811.299	28432
811.441	28721
811.582	28634
811.724	28325
811.865	28329
812.007	28557
812.148	28401
812.29	28451
812.431	28599
812.573	28790
812.714	28782
812.855	28900
812.997	29064
813.138	29162
813.279	29109
813.421	28961
813.562	28729
813.703	28710
813.845	28565
813.986	28344
814.127	28158
814.268	28112
814.41	27953
814.551	27903
814.692	28162
814.833	27937
814.974	27895
815.115	28143
815.256	27838
815.397	27679
815.539	27785
815.68	27709
815.821	27713
815.962	27576
816.103	27717
816.244	27526
816.385	27462
816.526	27370
816.666	27188
816.807	27043
816.948	27085
817.089	27180
817.23	27081
817.371	27142
817.512	26948
817.653	27055
817.793	26990
817.934	27055
818.075	26952
818.216	26918
818.356	27066
818.497	26819
818.638	26807
818.778	26727
818.919	26735
819.06	26819
819.2	26804
819.341	26876
819.481	26979
819.622	27005
819.762	27256
819.903	27241
820.043	27039
820.184	27032
820.324	27165
820.465	27032
820.605	26929
820.746	26925
820.886	26872
821.026	27051
821.167	27013
821.307	27096
821.447	26868
821.588	26807
821.728	26674
821.868	26575
822.008	26431
822.149	26298
822.289	26271
822.429	26092
822.569	26065
822.709	25936
822.849	25826
822.99	25940
823.13	25734
823.27	25822
823.41	25620
823.55	25430
823.69	25693
823.83	25681
823.97	25575
824.11	25434
824.25	25316
824.389	25358
824.529	25476
824.669	25373
824.809	25464
824.949	25441
825.089	25419
825.228	25403
825.368	25240
825.508	25198
825.648	25225
825.787	25065
825.927	25308
826.067	25137
826.206	24996
826.346	25228
826.485	25187
826.625	25183
826.765	25327
826.904	25194
827.044	24954
827.183	24802
827.323	24916
827.462	24951
827.601	24730
827.741	24795
827.88	24795
828.02	24707
828.159	24772
828.298	24776
828.437	24825
828.577	24810
828.716	24932
828.855	24703
828.994	24448
829.134	24486
829.273	24483
829.412	24528
829.551	24380
829.69	24460
829.829	24471
829.968	24391
830.107	24585
830.246	24521
830.385	24323
830.524	24292
830.663	24144
830.802	24140
830.941	24186
831.08	23908
831.219	24098
831.357	24117
831.496	24235
831.635	23878
831.774	23946
831.913	23889
832.051	23695
832.19	23821
832.329	23710
832.467	23817
832.606	23638
832.744	23619
832.883	23585
833.022	23528
833.16	23707
833.299	23566
833.437	23722
833.576	23600
833.714	23726
833.852	23729
833.991	23657
834.129	23722
834.267	23668
834.406	23676
834.544	23566
834.682	23623
834.821	23589
834.959	23741
835.097	23672
835.235	23680
835.373	23634
835.511	23615
835.65	23482
835.788	23436
835.926	23360
836.064	23220
836.202	23315
836.34	23410
836.478	23482
836.615	23368
836.753	23471
836.891	23406
837.029	23570
837.167	23322
837.305	23273
837.443	23277
837.58	23246
837.718	23315
837.856	23341
837.993	23212
838.131	23299
838.269	23113
838.406	23181
838.544	23064
838.681	22850
838.819	22790
838.956	22683
839.094	22725
839.231	22771
839.369	22889
839.506	23113
839.643	22957
839.781	22733
839.918	22611
840.055	22645
840.193	22588
840.33	22603
840.467	22603
840.604	22599
840.742	22668
840.879	22443
841.016	22436
841.153	22424
841.29	22580
841.427	22592
841.564	22512
841.701	22516
841.838	22531
841.975	22455
842.112	22493
842.249	22344
842.385	22185
842.522	22459
842.659	22367
842.796	22238
842.933	22196
843.069	22112
843.206	22124
843.343	22196
843.479	22204
843.616	22234
843.752	22078
843.889	22029
844.025	22139
844.162	21888
844.298	22185
844.435	21888
844.571	21751
844.708	21968
844.844	22093
844.98	22048
845.117	22029
845.253	21975
845.389	21701
845.525	21865
845.661	21827
845.798	21667
845.934	21789
846.07	21549
846.206	21686
846.342	21717
846.478	21675
846.614	21477
846.75	21367
846.886	21424
847.022	21462
847.158	21378
847.294	21466
847.429	21386
847.565	21435
847.701	21599
847.837	21142
847.972	21047
848.108	21146
848.244	21100
848.379	20941
848.515	20880
848.65	21020
848.786	20914
848.921	21017
849.057	21047
849.192	20887
849.328	20967
849.463	20883
849.598	21096
849.734	20842
849.869	20788
850.004	20708
850.14	20663
850.275	20727
850.41	20606
850.545	20549
850.68	20621
850.815	20746
850.95	20667
851.085	20804
851.22	20689
851.355	20663
851.49	20663
851.625	20594
851.76	20511
851.895	20590
852.03	20667
852.165	20590
852.299	20648
852.434	20716
852.569	20735
852.703	20678
852.838	20716
852.973	20689
853.107	20743
853.242	20583
853.376	20476
853.511	20393
853.645	20419
853.78	20587
853.914	20484
854.048	20328
854.183	20385
854.317	20328
854.451	20655
854.585	20480
854.72	20495
854.854	20358
854.988	20396
855.122	20389
855.256	20412
855.39	20446
855.524	20568
855.658	20473
855.792	20381
855.926	20518
856.06	20568
856.194	20484
856.327	20427
856.461	20370
856.595	20457
856.729	20438
856.862	20533
856.996	20492
857.13	20476
857.263	20484
857.397	20393
857.53	20355
857.664	20457
857.797	20476
857.931	20541
858.064	20328
858.197	20560
858.331	20415
858.464	20286
858.597	20324
858.731	20415
858.864	20278
858.997	20339
859.13	20320
859.263	20427
859.396	20450
859.529	20343
859.662	20301
859.795	20336
859.928	20263
860.061	20484
860.194	20400
860.327	20495
860.46	20294
860.592	20400
860.725	20488
860.858	20400
860.99	20355
861.123	20301
861.256	20290
861.388	20317
861.521	20910
861.653	20320
861.786	20142
861.918	20324
862.05	20305
862.183	20343
862.315	20484
862.447	20454
862.58	20336
862.712	20164
862.844	20161
862.976	20122
863.108	20111
863.24	20427
863.372	19955
863.504	20107
863.636	20107
863.768	20046
863.9	20096
864.032	19955
864.164	19940
864.296	19978
864.428	19989
864.559	20134
864.691	20111
864.823	19993
864.954	19967
865.086	20084
865.217	20016
865.349	19712
865.48	20027
865.612	19917
865.743	19959
865.875	19993
866.006	19906
866.137	19959
866.269	19967
866.4	19955
866.531	19868
866.662	19902
866.793	19902
866.924	20008
867.055	19982
867.186	19871
867.317	19887
867.448	19750
867.579	19875
867.71	19822
867.841	19818
867.972	19898
868.103	19765
868.233	20016
868.364	19982
868.495	20046
868.625	20058
868.756	20214
868.886	20027
869.017	20122
869.147	20244
869.278	20005
869.408	20031
869.539	20138
869.669	20153
869.799	20214
869.929	20259
870.06	20305
870.19	20336
870.32	20377
870.45	20480
870.58	20476
870.71	20670
870.84	20518
870.97	20579
871.1	20560
871.23	20651
871.36	20887
871.489	20537
871.619	20568
871.749	20609
871.879	20762
872.008	20781
872.138	20731
872.267	20731
872.397	20594
872.526	20583
872.656	20530
872.785	20530
872.915	20667
873.044	20788
873.173	20720
873.303	20861
873.432	20754
873.561	20826
873.69	20750
873.819	20765
873.948	20880
874.077	20712
874.206	20674
874.335	20697
874.464	20731
874.593	21032
874.722	21005
874.851	21062
874.979	20975
875.108	21055
875.237	20941
875.365	20895
875.494	20967
875.623	21081
875.751	20811
875.88	20960
876.008	21154
876.136	21260
876.265	21298
876.393	21496
876.521	21393
876.65	21389
876.778	21355
876.906	21370
877.034	21302
877.162	21287
877.29	21397
877.418	21351
877.546	21321
877.674	21435
877.802	21313
877.93	21355
878.058	21291
878.185	21173
878.313	21370
878.441	21245
878.568	21256
878.696	21237
878.824	21389
878.951	21447
879.079	21454
879.206	21633
879.333	21363
879.461	21412
879.588	21397
879.715	21542
879.842	21561
879.97	21348
880.097	21287
880.224	21150
880.351	21104
880.478	21142
880.605	21135
880.732	21165
880.859	21481
880.986	21077
881.112	21199
881.239	21104
881.366	20929
881.493	20823
881.619	20754
881.746	20663
881.872	20857
881.999	20750
882.125	20693
882.252	20853
882.378	20724
882.505	20895
882.631	20590
882.757	20564
882.883	20613
883.01	20533
883.136	20518
883.262	20404
883.388	20408
883.514	20533
883.64	20415
883.766	20362
883.892	20313
884.018	20294
884.143	20450
884.269	20530
884.395	20191
884.52	20115
884.646	20145
884.772	20115
884.897	20027
885.023	20157
885.148	20256
885.274	20351
885.399	20229
885.524	20138
885.65	20180
885.775	20195
885.9	20115
886.025	20317
886.15	20119
886.275	20164
886.4	20100
886.525	20180
886.65	20149
886.775	20077
886.9	20229
887.025	20343
887.149	20031
887.274	19765
887.399	19856
887.523	19898
887.648	19788
887.773	19780
887.897	19909
888.021	19974
888.146	19890
888.27	20027
888.395	20050
888.519	20016
888.643	19898
888.767	19993
888.891	19761
889.015	19750
889.139	19670
889.263	19761
889.387	19723
889.511	19932
889.635	19791
889.759	19559
889.883	19601
890.006	19628
890.13	19784
890.254	19639
890.377	19529
890.501	19411
890.624	19266
890.748	19464
890.871	19335
890.995	19278
891.118	19137
891.241	19259
891.364	19183
891.488	19202
891.611	19251
891.734	19255
891.857	19285
891.98	19316
892.103	19346
892.226	19266
892.349	19099
892.471	19076
892.594	19324
892.717	19171
892.839	19179
892.962	19270
893.085	19164
893.207	19225
893.33	19194
893.452	19175
893.575	19206
893.697	19091
893.819	19335
893.941	19304
894.064	19373
894.186	19126
894.308	19107
894.43	19255
894.552	19274
894.674	19331
894.796	19107
894.918	19225
895.04	19225
895.161	19194
895.283	19240
895.405	19225
895.526	19152
895.648	19236
895.769	19206
895.891	19293
896.012	19247
896.134	19312
896.255	19297
896.376	19274
896.498	19278
896.619	19457
896.74	19263
896.861	19335
896.982	19666
897.103	19761
897.224	19506
897.345	19582
897.466	19445
897.587	19499
897.708	19643
897.828	19518
897.949	19438
898.07	19362
898.19	19289
898.311	19518
898.431	19415
898.552	19426
898.672	19487
898.792	19491
898.913	19441
899.033	19217
899.153	19244
899.273	19091
899.393	19148
899.513	19179
899.633	19065
899.753	19168
899.873	19213
899.993	19164
900.113	19095
900.232	19042
900.352	19084
900.472	19000
900.591	18840
900.711	18993
900.83	18890
900.95	19050
901.069	19031
901.189	18852
901.308	18715
901.427	18578
901.546	18627
901.665	18722
901.784	18528
901.904	18494
902.023	18391
902.141	18136
902.26	18125
902.379	18186
902.498	18011
902.617	18011
902.735	18136
902.854	18125
902.973	17958
903.091	17779
903.21	17722
903.328	17707
903.446	17611
903.565	17573
903.683	17592
903.801	17414
903.919	17497
904.038	17406
904.156	17299
904.274	17349
904.392	17391
904.51	17269
904.627	17189
904.745	17383
904.863	17261
904.981	17075
905.098	16915
905.216	17037
905.334	16987
905.451	17018
905.569	16938
905.686	17041
905.803	16957
905.921	16824
906.038	16831
906.155	16733
906.272	16607
906.389	16721
906.506	16512
906.623	16577
906.74	16546
906.857	16421
906.974	16394
907.091	16618
907.208	16592
907.324	16660
907.441	16413
907.557	16272
907.674	16219
907.79	16135
907.907	16105
908.023	16192
908.139	16169
908.256	16143
908.372	16139
908.488	16032
908.604	15972
908.72	15873
908.836	15907
908.952	15876
909.068	15922
909.184	16048
909.3	15816
909.415	15941
909.531	15812
909.647	15587
909.762	15519
909.878	15485
909.993	15633
910.108	15553
910.224	15576
910.339	15614
910.454	15473
910.57	15454
910.685	15348
910.8	15591
910.915	15591
911.03	15367
911.145	15207
911.259	15222
911.374	15245
911.489	15116
911.604	15093
911.718	14902
911.833	14975
911.947	14811
912.062	14811
912.176	15077
912.291	14941
912.405	14944
912.519	15108
912.633	15093
912.748	14967
912.862	14887
912.976	14781
913.09	14636
913.204	14674
913.318	14701
913.431	14906
913.545	14864
913.659	14849
913.772	14667
913.886	14655
914	14522
914.113	14724
914.226	14663
914.34	14602
914.453	14442
914.566	14564
914.68	14461
914.793	14511
914.906	14332
915.019	14084
915.132	14088
915.245	14210
915.358	14225
915.47	14305
915.583	14229
915.696	14294
915.809	14332
915.921	14301
916.034	14157
916.146	14119
916.259	14142
916.371	14180
916.483	14244
916.595	14050
916.708	14065
916.82	14084
916.932	14050
917.044	13970
917.156	14035
917.268	13909
917.38	13879
917.491	13894
917.603	13963
917.715	13967
917.826	13989
917.938	13712
918.049	13757
918.161	13818
918.272	14058
918.384	13913
918.495	13925
918.606	13628
918.717	13571
918.828	13578
918.939	13639
919.05	13441
919.161	13533
919.272	13472
919.383	13407
919.494	13704
919.604	13826
919.715	13658
919.826	13506
919.936	13548
920.047	13704
920.157	13514
920.267	13780
920.378	13655
920.488	13605
920.598	13738
920.708	13807
920.818	13746
920.928	13803
921.038	13963
921.148	13753
921.258	13563
921.368	13430
921.477	13468
921.587	13263
921.697	13244
921.806	13266
921.916	13213
922.025	13141
922.134	13114
922.244	12935
922.353	13050
922.462	12947
922.571	12783
922.68	12669
922.789	12673
922.898	12601
923.007	12635
923.116	12681
923.224	12642
923.333	12540
923.442	12448
923.55	12372
923.659	12483
923.767	12570
923.876	12445
923.984	12452
924.092	12369
924.201	12407
924.309	12460
924.417	12452
924.525	12433
924.633	12342
924.741	13179
924.849	12114
924.956	12292
925.064	12079
925.172	12019
925.279	12045
925.387	12125
925.494	12060
925.602	12239
925.709	12114
925.816	11973
925.924	12068
926.031	12175
926.138	12095
926.245	12144
926.352	12022
926.459	12125
926.566	12133
926.673	11984
926.779	11840
926.886	11863
926.993	11813
927.099	11668
927.206	11615
927.312	11668
927.419	11729
927.525	11642
927.631	11649
927.737	11608
927.843	11512
927.95	11417
928.056	11497
928.162	11547
928.267	11524
928.373	12190
928.479	11619
928.585	11349
928.69	11486
928.796	11543
928.901	11330
929.007	11265
929.112	11383
929.218	11284
929.323	11296
929.428	11223
929.533	11395
929.638	11170
929.743	11223
929.848	11284
929.953	11223
930.058	11124
930.163	10946
930.267	10946
930.372	11056
930.477	10957
930.581	11193
930.685	10995
930.79	10885
930.894	10866
930.998	10812
931.103	10866
931.207	10569
931.311	10599
931.415	10443
931.519	10246
931.623	10242
