Data from test_V78500241_1244.txt Node
Date: Fri Mar 25 15:50:25 CST 2022
User: usil
Spectrometer: V785-0024
Trigger mode: 0
Integration Time (sec): 4.000000E-1
Scans to average: 1
Nonlinearity correction enabled: false
Boxcar width: 0
Storing dark spectrum: false
XAxis mode: Wavelengths
Number of Pixels in Spectrum: 1024
>>>>>Begin Spectral Data<<<<<
801.071	28451
801.214	28618
801.356	28382
801.499	28215
801.641	28120
801.783	28219
801.926	28226
802.068	28173
802.211	28257
802.353	28090
802.496	27857
802.638	27941
802.78	27937
802.923	27884
803.065	27637
803.208	27785
803.35	27911
803.492	27857
803.635	28204
803.777	28086
803.919	28067
804.061	28489
804.204	28181
804.346	28082
804.488	28120
804.63	28246
804.773	28078
804.915	28158
805.057	28238
805.199	28128
805.341	28219
805.483	28375
805.626	28265
805.768	28322
805.91	28299
806.052	28314
806.194	28150
806.336	28573
806.478	28322
806.62	28238
806.762	28348
806.904	28462
807.046	28843
807.188	28809
807.33	28885
807.472	28713
807.614	28611
807.756	28748
807.898	28508
808.04	28535
808.182	28481
808.324	28561
808.465	28721
808.607	28790
808.749	29025
808.891	28938
809.033	29083
809.174	29025
809.316	28953
809.458	28946
809.6	28911
809.741	29003
809.883	29197
810.025	29235
810.166	29220
810.308	29337
810.45	29223
810.591	29170
810.733	28965
810.875	28934
811.016	28888
811.158	28866
811.299	29056
811.441	29189
811.582	29265
811.724	28942
811.865	28896
812.007	29037
812.148	28904
812.29	29117
812.431	29223
812.573	29364
812.714	29455
812.855	29444
812.997	29467
813.138	29748
813.279	29657
813.421	29691
813.562	29573
813.703	29379
813.845	29098
813.986	28957
814.127	28828
814.268	28710
814.41	28774
814.551	28733
814.692	28733
814.833	28607
814.974	28630
815.115	28828
815.256	28611
815.397	28706
815.539	28550
815.68	28538
815.821	28436
815.962	28508
816.103	28565
816.244	28459
816.385	28337
816.526	28272
816.666	28188
816.807	27949
816.948	28097
817.089	28147
817.23	28139
817.371	28036
817.512	28032
817.653	28177
817.793	27926
817.934	28131
818.075	28124
818.216	28143
818.356	28112
818.497	27945
818.638	27736
818.778	27736
818.919	27793
819.06	27914
819.2	27983
819.341	28101
819.481	28055
819.622	28223
819.762	28405
819.903	28409
820.043	28265
820.184	27941
820.324	28112
820.465	28314
820.605	28074
820.746	28181
820.886	28074
821.026	28143
821.167	28048
821.307	28196
821.447	28063
821.588	27937
821.728	27854
821.868	27633
822.008	27564
822.149	27603
822.289	27599
822.429	27161
822.569	27104
822.709	27313
822.849	27055
822.99	27287
823.13	27043
823.27	27001
823.41	26811
823.55	26674
823.69	26998
823.83	26864
823.97	26910
824.11	26743
824.25	26613
824.389	26659
824.529	26800
824.669	26655
824.809	26785
824.949	26807
825.089	26769
825.228	26773
825.368	26590
825.508	26579
825.648	26457
825.787	26549
825.927	26648
826.067	26514
826.206	26541
826.346	26556
826.485	26659
826.625	26533
826.765	26644
826.904	26602
827.044	26286
827.183	26404
827.323	26191
827.462	26385
827.601	26298
827.741	26313
827.88	26339
828.02	26164
828.159	26233
828.298	26290
828.437	26377
828.577	26145
828.716	26518
828.855	26062
828.994	26103
829.134	26046
829.273	26107
829.412	25970
829.551	25928
829.69	25928
829.829	26005
829.968	25993
830.107	26050
830.246	25951
830.385	25837
830.524	25890
830.663	25772
830.802	25624
830.941	25597
831.08	25616
831.219	25674
831.357	25708
831.496	25818
831.635	25510
831.774	25529
831.913	25324
832.051	25384
832.19	25327
832.329	25301
832.467	25358
832.606	25274
832.744	25221
832.883	25232
833.022	25297
833.16	25343
833.299	25419
833.437	25168
833.576	25129
833.714	25270
833.852	25221
833.991	25365
834.129	25392
834.267	25304
834.406	25316
834.544	25381
834.682	25327
834.821	25263
834.959	25419
835.097	25301
835.235	25449
835.373	25255
835.511	25335
835.65	25126
835.788	25137
835.926	24954
836.064	24871
836.202	25065
836.34	25034
836.478	25244
836.615	25076
836.753	25171
836.891	25297
837.029	25217
837.167	25042
837.305	24951
837.443	25038
837.58	24920
837.718	25004
837.856	25038
837.993	24935
838.131	25023
838.269	24844
838.406	24954
838.544	24749
838.681	24601
838.819	24471
838.956	24460
839.094	24380
839.231	24490
839.369	24639
839.506	24684
839.643	24582
839.781	24388
839.918	24414
840.055	24422
840.193	24361
840.33	24323
840.467	24426
840.604	24452
840.742	24700
840.879	24110
841.016	24311
841.153	24194
841.29	24528
841.427	24296
841.564	24380
841.701	24235
841.838	24319
841.975	24213
842.112	24266
842.249	24224
842.385	24110
842.522	24247
842.659	24159
842.796	24079
842.933	24076
843.069	24049
843.206	23996
843.343	24205
843.479	24057
843.616	24053
843.752	23836
843.889	23889
844.025	24057
844.162	23832
844.298	23859
844.435	23874
844.571	23748
844.708	23866
844.844	24057
844.98	23912
845.117	24011
845.253	23821
845.389	23741
845.525	23832
845.661	23668
845.798	23596
845.934	23646
846.07	23554
846.206	23585
846.342	23843
846.478	23448
846.614	23395
846.75	23330
846.886	23246
847.022	23330
847.158	23296
847.294	23383
847.429	23410
847.565	23258
847.701	23551
847.837	23064
847.972	22972
848.108	23170
848.244	23033
848.379	22972
848.515	22972
848.65	22961
848.786	22953
848.921	22999
849.057	23048
849.192	23052
849.328	22968
849.463	22972
849.598	22820
849.734	22797
849.869	22934
850.004	22660
850.14	22736
850.275	22634
850.41	22588
850.545	22634
850.68	22630
850.815	22596
850.95	22599
851.085	22778
851.22	22679
851.355	22588
851.49	22672
851.625	22622
851.76	22634
851.895	22596
852.03	22725
852.165	22641
852.299	22790
852.434	22710
852.569	22637
852.703	22763
852.838	22702
852.973	22881
853.107	22816
853.242	22664
853.376	22409
853.511	22413
853.645	22413
853.78	22717
853.914	22588
854.048	22352
854.183	22512
854.317	22618
854.451	22748
854.585	22459
854.72	22424
854.854	22618
854.988	22588
855.122	22626
855.256	22382
855.39	22485
855.524	22554
855.658	22531
855.792	22512
855.926	22485
856.06	22508
856.194	22523
856.327	22421
856.461	22424
856.595	22459
856.729	22478
856.862	22622
856.996	22409
857.13	22504
857.263	22634
857.397	22466
857.53	22440
857.664	22413
857.797	22569
857.931	22653
858.064	22584
858.197	22584
858.331	22443
858.464	22436
858.597	22352
858.731	22523
858.864	22466
858.997	22360
859.13	22478
859.263	22493
859.396	22660
859.529	22440
859.662	22573
859.795	22398
859.928	22470
860.061	22645
860.194	22694
860.327	22656
860.46	22596
860.592	22740
860.725	22611
860.858	22664
860.99	22512
861.123	22481
861.256	22428
861.388	22550
861.521	23223
861.653	22337
861.786	22238
861.918	22371
862.05	22348
862.183	22451
862.315	22542
862.447	22523
862.58	22451
862.712	22135
862.844	22109
862.976	22268
863.108	22413
863.24	22569
863.372	22040
863.504	22120
863.636	22230
863.768	22200
863.9	22249
864.032	22150
864.164	22124
864.296	22188
864.428	22314
864.559	22352
864.691	22223
864.823	22173
864.954	22116
865.086	22261
865.217	22173
865.349	22112
865.48	21983
865.612	22150
865.743	22078
865.875	22139
866.006	21979
866.137	22139
866.269	22082
866.4	22051
866.531	22070
866.662	21956
866.793	22063
866.924	21861
867.055	21945
867.186	22090
867.317	21983
867.448	22059
867.579	22093
867.71	22010
867.841	21930
867.972	21934
868.103	21899
868.233	22006
868.364	22093
868.495	22166
868.625	22181
868.756	22226
868.886	22143
869.017	22166
869.147	22443
869.278	22398
869.408	22188
869.539	22185
869.669	22306
869.799	22158
869.929	22398
870.06	22310
870.19	22615
870.32	22565
870.45	22626
870.58	22660
870.71	22694
870.84	22733
870.97	22489
871.1	22592
871.23	22664
871.36	22736
871.489	22630
871.619	22713
871.749	22782
871.879	22999
872.008	22934
872.138	22873
872.267	22896
872.397	22694
872.526	22733
872.656	22752
872.785	22675
872.915	22721
873.044	22904
873.173	22702
873.303	22946
873.432	22835
873.561	22949
873.69	22797
873.819	22915
873.948	22869
874.077	22915
874.206	22790
874.335	22820
874.464	22946
874.593	23029
874.722	23048
874.851	23056
874.979	23044
875.108	23064
875.237	23018
875.365	22889
875.494	23037
875.623	23029
875.751	23113
875.88	22980
876.008	23231
876.136	23208
876.265	23436
876.393	23589
876.521	23452
876.65	23516
876.778	23463
876.906	23391
877.034	23360
877.162	23440
877.29	23410
877.418	23395
877.546	23512
877.674	23383
877.802	23349
877.93	23497
878.058	23421
878.185	23185
878.313	23364
878.441	23254
878.568	23246
878.696	23239
878.824	23440
878.951	23562
879.079	23638
879.206	23668
879.333	23547
879.461	23509
879.588	23474
879.715	23562
879.842	23630
879.97	23467
880.097	23231
880.224	23181
880.351	23284
880.478	23216
880.605	23197
880.732	23178
880.859	23463
880.986	23265
881.112	23216
881.239	23037
881.366	22911
881.493	22828
881.619	22729
881.746	22778
881.872	22835
881.999	22752
882.125	22801
882.252	22790
882.378	22847
882.505	22854
882.631	22630
882.757	22531
882.883	22485
883.01	22535
883.136	22325
883.262	22356
883.388	22261
883.514	22440
883.64	22489
883.766	22432
883.892	22192
884.018	22223
884.143	22379
884.269	22398
884.395	22265
884.52	21968
884.646	22147
884.772	21987
884.897	21953
885.023	22006
885.148	22120
885.274	22173
885.399	22150
885.524	22025
885.65	22090
885.775	22112
885.9	22051
886.025	22139
886.15	22226
886.275	21975
886.4	21998
886.525	22006
886.65	21968
886.775	22070
886.9	22207
887.025	22341
887.149	22059
887.274	21888
887.399	21778
887.523	21846
887.648	21808
887.773	21705
887.897	21922
888.021	21911
888.146	21797
888.27	21918
888.395	21918
888.519	21880
888.643	21903
888.767	21922
888.891	21766
889.015	21583
889.139	21686
889.263	21599
889.387	21701
889.511	21884
889.635	21690
889.759	21633
889.883	21553
890.006	21641
890.13	21633
890.254	21583
890.377	21572
890.501	21344
890.624	21408
890.748	21511
890.871	21256
890.995	21218
891.118	21047
891.241	21245
891.364	21245
891.488	21405
891.611	21195
891.734	21108
891.857	21192
891.98	21150
892.103	21199
892.226	21123
892.349	21100
892.471	20941
892.594	21096
892.717	21203
892.839	20998
892.962	21093
893.085	21173
893.207	21070
893.33	21085
893.452	21051
893.575	21032
893.697	20906
893.819	21226
893.941	21272
894.064	21176
894.186	21028
894.308	20975
894.43	21150
894.552	21127
894.674	21119
894.796	20944
894.918	20952
895.04	20994
895.161	21169
895.283	21047
895.405	20952
895.526	21066
895.648	20963
895.769	21047
895.891	21138
896.012	21123
896.134	21199
896.255	20994
896.376	20986
896.498	20891
896.619	21154
896.74	21036
896.861	21058
896.982	21355
897.103	21370
897.224	21424
897.345	21150
897.466	21150
897.587	21230
897.708	21420
897.828	21310
897.949	21104
898.07	21009
898.19	21173
898.311	21268
898.431	21207
898.552	21188
898.672	21283
898.792	21275
898.913	21272
899.033	21157
899.153	21036
899.273	20918
899.393	21028
899.513	21009
899.633	20944
899.753	21005
899.873	20982
899.993	21039
900.113	20906
900.232	20937
900.352	20845
900.472	20777
900.591	20705
900.711	20773
900.83	20617
900.95	20762
901.069	20857
901.189	20617
901.308	20389
901.427	20374
901.546	20351
901.665	20237
901.784	20294
901.904	20218
902.023	20092
902.141	19906
902.26	19753
902.379	19845
902.498	19928
902.617	19883
902.735	19788
902.854	19734
902.973	19715
903.091	19491
903.21	19453
903.328	19384
903.446	19460
903.565	19289
903.683	19293
903.801	19084
903.919	19194
904.038	19312
904.156	19050
904.274	19103
904.392	19004
904.51	19027
904.627	19050
904.745	19129
904.863	19099
904.981	18814
905.098	18703
905.216	18753
905.334	18768
905.451	18715
905.569	18654
905.686	18749
905.803	18635
905.921	18582
906.038	18578
906.155	18498
906.272	18361
906.389	18342
906.506	18235
906.623	18220
906.74	18235
906.857	18083
906.974	18178
907.091	18277
907.208	18384
907.324	18315
907.441	18125
907.557	17889
907.674	17961
907.79	17893
907.907	17836
908.023	17855
908.139	17912
908.256	17923
908.372	17817
908.488	17737
908.604	17668
908.72	17646
908.836	17676
908.952	17661
909.068	17726
909.184	17733
909.3	17665
909.415	17638
909.531	17551
909.647	17421
909.762	17337
909.878	17391
909.993	17227
910.108	17353
910.224	17261
910.339	17242
910.454	17246
910.57	17181
910.685	17117
910.8	17322
910.915	17398
911.03	17147
911.145	17006
911.259	16927
911.374	17010
911.489	16908
911.604	16675
911.718	16744
911.833	16679
911.947	16565
912.062	16580
912.176	16675
912.291	16641
912.405	16618
912.519	16839
912.633	16919
912.748	16713
912.862	16558
912.976	16428
913.09	16337
913.204	16337
913.318	16474
913.431	16542
913.545	16561
913.659	16504
913.772	16398
913.886	16318
914	16200
914.113	16394
914.226	16367
914.34	16421
914.453	16207
914.566	16318
914.68	16105
914.793	16097
914.906	15876
915.019	15869
915.132	15732
915.245	15781
915.358	15911
915.47	15797
915.583	15804
915.696	15842
915.809	15922
915.921	15899
916.034	15869
916.146	15785
916.259	15637
916.371	15816
916.483	15755
916.595	15671
916.708	15625
916.82	15648
916.932	15591
917.044	15568
917.156	15568
917.268	15382
917.38	15500
917.491	15549
917.603	15477
917.715	15667
917.826	15511
917.938	15488
918.049	15310
918.161	15435
918.272	15511
918.384	15447
918.495	15317
918.606	15184
918.717	15157
918.828	15264
918.939	15260
919.05	15157
919.161	15180
919.272	15005
919.383	15036
919.494	15310
919.604	15389
919.715	15146
919.826	15032
919.936	15085
920.047	15203
920.157	15112
920.267	15279
920.378	15119
920.488	15108
920.598	15344
920.708	15488
920.818	15310
920.928	15283
921.038	15435
921.148	15462
921.258	15036
921.368	14967
921.477	14807
921.587	14998
921.697	14781
921.806	14765
921.916	14739
922.025	14682
922.134	14530
922.244	14457
922.353	14579
922.462	14400
922.571	14278
922.68	14252
922.789	14142
922.898	14218
923.007	14164
923.116	14214
923.224	14126
923.333	14096
923.442	13936
923.55	13993
923.659	13989
923.767	14054
923.876	13947
923.984	14001
924.092	13837
924.201	13913
924.309	13887
924.417	13734
924.525	13742
924.633	13906
924.741	14716
924.849	13548
924.956	13776
925.064	13624
925.172	13559
925.279	13510
925.387	13548
925.494	13468
925.602	13601
925.709	13605
925.816	13472
925.924	13518
926.031	13491
926.138	13430
926.245	13525
926.352	13388
926.459	13563
926.566	13537
926.673	13472
926.779	13320
926.886	13179
926.993	13190
927.099	13122
927.206	12970
927.312	13042
927.419	13034
927.525	13110
927.631	13198
927.737	13034
927.843	12920
927.95	12795
928.056	12916
928.162	12875
928.267	12962
928.373	13628
928.479	12932
928.585	12730
928.69	12894
928.796	12719
928.901	12703
929.007	12551
929.112	12726
929.218	12696
929.323	12616
929.428	12578
929.533	12783
929.638	12490
929.743	12502
929.848	12658
929.953	12498
930.058	12506
930.163	12209
930.267	12346
930.372	12422
930.477	12300
930.581	12506
930.685	12277
930.79	12148
930.894	12148
930.998	12201
931.103	12308
931.207	11882
931.311	11726
931.415	11737
931.519	11554
931.623	11539
