Data from test_V78500241_67.txt Node
Date: Fri Mar 25 15:42:15 CST 2022
User: usil
Spectrometer: V785-0024
Trigger mode: 0
Integration Time (sec): 4.000000E-1
Scans to average: 1
Nonlinearity correction enabled: false
Boxcar width: 0
Storing dark spectrum: false
XAxis mode: Wavelengths
Number of Pixels in Spectrum: 1024
>>>>>Begin Spectral Data<<<<<
801.071	29950
801.214	29901
801.356	29608
801.499	29634
801.641	29375
801.783	29444
801.926	29353
802.068	29261
802.211	29151
802.353	29220
802.496	29086
802.638	29128
802.78	28965
802.923	28858
803.065	28976
803.208	28953
803.35	28972
803.492	29151
803.635	29113
803.777	29102
803.919	29246
804.061	29516
804.204	29132
804.346	28957
804.488	29067
804.63	29254
804.773	29056
804.915	29155
805.057	29121
805.199	29151
805.341	29216
805.483	29162
805.626	29086
805.768	29159
805.91	29189
806.052	29174
806.194	29174
806.336	29284
806.478	29235
806.62	29029
806.762	29452
806.904	29463
807.046	29592
807.188	29512
807.33	29684
807.472	29737
807.614	29486
807.756	29417
807.898	29402
808.04	29277
808.182	29391
808.324	29436
808.465	29288
808.607	29516
808.749	29741
808.891	29741
809.033	29969
809.174	29726
809.316	29859
809.458	29729
809.6	29642
809.741	29847
809.883	29707
810.025	29862
810.166	29969
810.308	29950
810.45	29969
810.591	29897
810.733	29665
810.875	29619
811.016	29551
811.158	29615
811.299	29805
811.441	29859
811.582	29836
811.724	29627
811.865	29703
812.007	29680
812.148	29885
812.29	29676
812.431	29821
812.573	30015
812.714	29992
812.855	30182
812.997	30239
813.138	30349
813.279	30125
813.421	30110
813.562	30167
813.703	29904
813.845	29817
813.986	29596
814.127	29349
814.268	29307
814.41	29269
814.551	29334
814.692	29246
814.833	29200
814.974	29200
815.115	29239
815.256	29113
815.397	29200
815.539	29025
815.68	28976
815.821	28995
815.962	28835
816.103	29025
816.244	28740
816.385	28721
816.526	28729
816.666	28569
816.807	28394
816.948	28554
817.089	28554
817.23	28409
817.371	28508
817.512	28150
817.653	28367
817.793	28265
817.934	28257
818.075	28329
818.216	28382
818.356	28375
818.497	28177
818.638	28032
818.778	28090
818.919	27983
819.06	28105
819.2	28211
819.341	28143
819.481	28238
819.622	28432
819.762	28584
819.903	28470
820.043	28428
820.184	28367
820.324	28363
820.465	28440
820.605	28325
820.746	28238
820.886	28097
821.026	28306
821.167	28166
821.307	28352
821.447	28325
821.588	28090
821.728	28040
821.868	27987
822.008	27732
822.149	27705
822.289	27591
822.429	27351
822.569	27351
822.709	27367
822.849	27150
822.99	27085
823.13	27222
823.27	26960
823.41	26944
823.55	26899
823.69	26883
823.83	27032
823.97	26952
824.11	26727
824.25	26579
824.389	26815
824.529	26712
824.669	26514
824.809	26861
824.949	26598
825.089	26697
825.228	26735
825.368	26511
825.508	26476
825.648	26609
825.787	26552
825.927	26488
826.067	26606
826.206	26541
826.346	26473
826.485	26598
826.625	26594
826.765	26587
826.904	26663
827.044	26237
827.183	26180
827.323	26290
827.462	26176
827.601	26271
827.741	26275
827.88	26256
828.02	26005
828.159	26077
828.298	26100
828.437	26172
828.577	26058
828.716	26221
828.855	26081
828.994	25902
829.134	25913
829.273	25970
829.412	25784
829.551	25708
829.69	25917
829.829	25833
829.968	25917
830.107	26054
830.246	25807
830.385	25841
830.524	25761
830.663	25563
830.802	25525
830.941	25282
831.08	25339
831.219	25559
831.357	25430
831.496	25479
831.635	25445
831.774	25335
831.913	25217
832.051	25099
832.19	25129
832.329	25171
832.467	24977
832.606	25042
832.744	25118
832.883	24916
833.022	24916
833.16	24878
833.299	25046
833.437	25038
833.576	24947
833.714	25042
833.852	25027
833.991	24958
834.129	25069
834.267	25076
834.406	24989
834.544	25095
834.682	25137
834.821	24875
834.959	25209
835.097	24863
835.235	25019
835.373	24996
835.511	24935
835.65	24848
835.788	24825
835.926	24639
836.064	24627
836.202	24544
836.34	24745
836.478	24981
836.615	24753
836.753	24791
836.891	24806
837.029	25004
837.167	24745
837.305	24722
837.443	24711
837.58	24738
837.718	24726
837.856	24597
837.993	24589
838.131	24555
838.269	24483
838.406	24445
838.544	24612
838.681	24254
838.819	24178
838.956	24133
839.094	23977
839.231	24076
839.369	24285
839.506	24433
839.643	24270
839.781	24057
839.918	23984
840.055	24022
840.193	23939
840.33	24060
840.467	23923
840.604	23824
840.742	24030
840.879	23817
841.016	23805
841.153	23893
841.29	24049
841.427	23817
841.564	23863
841.701	23882
841.838	23802
841.975	23851
842.112	23783
842.249	23676
842.385	23592
842.522	23836
842.659	23627
842.796	23608
842.933	23551
843.069	23528
843.206	23512
843.343	23600
843.479	23562
843.616	23509
843.752	23288
843.889	23258
844.025	23292
844.162	23265
844.298	23292
844.435	23189
844.571	23220
844.708	23246
844.844	23417
844.98	23376
845.117	23303
845.253	23159
845.389	23147
845.525	23056
845.661	23170
845.798	22995
845.934	22942
846.07	22991
846.206	23060
846.342	23181
846.478	22953
846.614	22713
846.75	22596
846.886	22660
847.022	22736
847.158	22702
847.294	22752
847.429	22752
847.565	22706
847.701	22915
847.837	22519
847.972	22360
848.108	22565
848.244	22565
848.379	22421
848.515	22287
848.65	22101
848.786	22219
848.921	22249
849.057	22303
849.192	22306
849.328	22257
849.463	22287
849.598	22120
849.734	22147
849.869	22112
850.004	21937
850.14	21987
850.275	22021
850.41	21869
850.545	21975
850.68	21804
850.815	21987
850.95	21899
851.085	22177
851.22	22067
851.355	21934
851.49	21857
851.625	21778
851.76	21937
851.895	21949
852.03	21907
852.165	21945
852.299	21934
852.434	22097
852.569	21945
852.703	21838
852.838	22059
852.973	22017
853.107	22017
853.242	21941
853.376	21766
853.511	21671
853.645	21633
853.78	21861
853.914	21739
854.048	21774
854.183	21751
854.317	21698
854.451	21876
854.585	21660
854.72	21690
854.854	21663
854.988	21694
855.122	21629
855.256	21644
855.39	21603
855.524	21827
855.658	21785
855.792	21701
855.926	21846
856.06	21774
856.194	21915
856.327	21751
856.461	21583
856.595	21603
856.729	21656
856.862	21644
856.996	21564
857.13	21774
857.263	21831
857.397	21800
857.53	21652
857.664	21751
857.797	21713
857.931	21861
858.064	21690
858.197	21747
858.331	21568
858.464	21561
858.597	21572
858.731	21732
858.864	21572
858.997	21622
859.13	21580
859.263	21698
859.396	21625
859.529	21648
859.662	21690
859.795	21519
859.928	21625
860.061	21793
860.194	21743
860.327	21564
860.46	21637
860.592	21663
860.725	21869
860.858	21728
860.99	21538
861.123	21603
861.256	21500
861.388	21523
861.521	22166
861.653	21500
861.786	21321
861.918	21431
862.05	21606
862.183	21572
862.315	21606
862.447	21713
862.58	21698
862.712	21431
862.844	21355
862.976	21477
863.108	21443
863.24	21759
863.372	21241
863.504	21306
863.636	21344
863.768	21272
863.9	21344
864.032	21226
864.164	21207
864.296	21378
864.428	21359
864.559	21370
864.691	21435
864.823	21283
864.954	21275
865.086	21279
865.217	21336
865.349	21146
865.48	21203
865.612	21093
865.743	21344
865.875	21283
866.006	21180
866.137	21176
866.269	21264
866.4	21161
866.531	21093
866.662	21013
866.793	21245
866.924	21150
867.055	21157
867.186	21131
867.317	21207
867.448	21104
867.579	21047
867.71	21017
867.841	21001
867.972	21108
868.103	21127
868.233	21173
868.364	21112
868.495	21161
868.625	21336
868.756	21378
868.886	21336
869.017	21226
869.147	21435
869.278	21488
869.408	21367
869.539	21233
869.669	21374
869.799	21397
869.929	21443
870.06	21511
870.19	21610
870.32	21622
870.45	21759
870.58	21774
870.71	21793
870.84	21884
870.97	21694
871.1	21774
871.23	21895
871.36	21895
871.489	21907
871.619	21907
871.749	21937
871.879	22017
872.008	22078
872.138	21835
872.267	21854
872.397	21785
872.526	21713
872.656	21778
872.785	21675
872.915	21918
873.044	21987
873.173	21960
873.303	21960
873.432	22063
873.561	22040
873.69	21994
873.819	22067
873.948	22013
874.077	21964
874.206	21922
874.335	21781
874.464	22048
874.593	22154
874.722	22166
874.851	22204
874.979	22329
875.108	22219
875.237	22139
875.365	22120
875.494	22177
875.623	22234
875.751	22234
875.88	22219
876.008	22291
876.136	22447
876.265	22580
876.393	22702
876.521	22679
876.65	22759
876.778	22656
876.906	22592
877.034	22546
877.162	22565
877.29	22523
877.418	22527
877.546	22481
877.674	22455
877.802	22405
877.93	22436
878.058	22542
878.185	22451
878.313	22497
878.441	22455
878.568	22390
878.696	22504
878.824	22546
878.951	22535
879.079	22687
879.206	22866
879.333	22744
879.461	22508
879.588	22694
879.715	22535
879.842	22805
879.97	22573
880.097	22382
880.224	22322
880.351	22348
880.478	22382
880.605	22295
880.732	22390
880.859	22569
880.986	22356
881.112	22394
881.239	22173
881.366	22131
881.493	22082
881.619	21953
881.746	21827
881.872	21823
881.999	21953
882.125	21884
882.252	21926
882.378	21945
882.505	21998
882.631	21816
882.757	21671
882.883	21686
883.01	21701
883.136	21492
883.262	21488
883.388	21447
883.514	21660
883.64	21557
883.766	21568
883.892	21389
884.018	21466
884.143	21709
884.269	21694
884.395	21420
884.52	21332
884.646	21272
884.772	21173
884.897	21138
885.023	21306
885.148	21355
885.274	21348
885.399	21447
885.524	21264
885.65	21192
885.775	21195
885.9	21180
886.025	21382
886.15	21348
886.275	21165
886.4	21203
886.525	21218
886.65	21222
886.775	21081
886.9	21294
887.025	21416
887.149	21279
887.274	21112
887.399	20979
887.523	20963
887.648	21005
887.773	21009
887.897	21009
888.021	21032
888.146	20960
888.27	21074
888.395	21123
888.519	21058
888.643	20994
888.767	20979
888.891	20937
889.015	20807
889.139	20842
889.263	20777
889.387	20895
889.511	21005
889.635	20929
889.759	20819
889.883	20811
890.006	20750
890.13	20845
890.254	20663
890.377	20629
890.501	20488
890.624	20431
890.748	20655
890.871	20454
890.995	20351
891.118	20362
891.241	20438
891.364	20347
891.488	20446
891.611	20324
891.734	20324
891.857	20454
891.98	20446
892.103	20358
892.226	20305
892.349	20233
892.471	20122
892.594	20271
892.717	20362
892.839	20221
892.962	20328
893.085	20412
893.207	20252
893.33	20134
893.452	20043
893.575	20240
893.697	20275
893.819	20271
893.941	20473
894.064	20248
894.186	20233
894.308	20259
894.43	20415
894.552	20408
894.674	20381
894.796	20073
894.918	20233
895.04	20195
895.161	20351
895.283	20252
895.405	20073
895.526	20225
895.648	20195
895.769	20199
895.891	20305
896.012	20301
896.134	20412
896.255	20320
896.376	20282
896.498	20275
896.619	20324
896.74	20301
896.861	20400
896.982	20602
897.103	20796
897.224	20625
897.345	20598
897.466	20488
897.587	20446
897.708	20598
897.828	20518
897.949	20389
898.07	20442
898.19	20374
898.311	20552
898.431	20385
898.552	20320
898.672	20476
898.792	20530
898.913	20530
899.033	20298
899.153	20195
899.273	20073
899.393	20225
899.513	20183
899.633	20164
899.753	20244
899.873	20062
899.993	20237
900.113	20145
900.232	20039
900.352	20062
900.472	20020
900.591	19917
900.711	19970
900.83	19864
900.95	19902
901.069	20062
901.189	19852
901.308	19624
901.427	19552
901.546	19559
901.665	19468
901.784	19689
901.904	19430
902.023	19282
902.141	19141
902.26	18985
902.379	18977
902.498	18985
902.617	18878
902.735	19015
902.854	19027
902.973	18977
903.091	18677
903.21	18677
903.328	18726
903.446	18582
903.565	18627
903.683	18597
903.801	18361
903.919	18346
904.038	18365
904.156	18262
904.274	18289
904.392	18102
904.51	18254
904.627	18270
904.745	18243
904.863	18327
904.981	18076
905.098	17859
905.216	17809
905.334	18011
905.451	17824
905.569	17897
905.686	17882
905.803	17904
905.921	17680
906.038	17851
906.155	17771
906.272	17562
906.389	17611
906.506	17482
906.623	17497
906.74	17429
906.857	17235
906.974	17254
907.091	17425
907.208	17661
907.324	17459
907.441	17254
907.557	17121
907.674	17098
907.79	17048
907.907	17048
908.023	17033
908.139	17037
908.256	16980
908.372	16968
908.488	16957
908.604	16858
908.72	16828
908.836	16873
908.952	16679
909.068	16755
909.184	16900
909.3	16698
909.415	16706
909.531	16759
909.647	16527
909.762	16462
909.878	16478
909.993	16523
910.108	16455
910.224	16478
910.339	16443
910.454	16356
910.57	16306
910.685	16116
910.8	16516
910.915	16413
911.03	16306
911.145	16101
911.259	16044
911.374	16078
911.489	15968
911.604	15762
911.718	15846
911.833	15808
911.947	15778
912.062	15648
912.176	15793
912.291	15827
912.405	15823
912.519	15903
912.633	15934
912.748	15823
912.862	15709
912.976	15511
913.09	15412
913.204	15549
913.318	15511
913.431	15671
913.545	15641
913.659	15644
913.772	15504
913.886	15469
914	15348
914.113	15538
914.226	15614
914.34	15481
914.453	15252
914.566	15447
914.68	15252
914.793	15298
914.906	15028
915.019	15017
915.132	14937
915.245	15077
915.358	15043
915.47	15089
915.583	15097
915.696	15066
915.809	15173
915.921	15024
916.034	14986
916.146	14891
916.259	14823
916.371	15001
916.483	15032
916.595	14773
916.708	14819
916.82	14864
916.932	14864
917.044	14750
917.156	14720
917.268	14731
917.38	14682
917.491	14606
917.603	14659
917.715	14743
917.826	14743
917.938	14606
918.049	14465
918.161	14571
918.272	14674
918.384	14659
918.495	14568
918.606	14476
918.717	14282
918.828	14442
918.939	14366
919.05	14301
919.161	14427
919.272	14218
919.383	14286
919.494	14377
919.604	14564
919.715	14320
919.826	14233
919.936	14370
920.047	14415
920.157	14290
920.267	14400
920.378	14256
920.488	14278
920.598	14450
920.708	14651
920.818	14476
920.928	14412
921.038	14659
921.148	14583
921.258	14259
921.368	14153
921.477	14020
921.587	14073
921.697	13868
921.806	14062
921.916	13944
922.025	13845
922.134	13738
922.244	13624
922.353	13731
922.462	13586
922.571	13464
922.68	13312
922.789	13350
922.898	13228
923.007	13209
923.116	13369
923.224	13312
923.333	13335
923.442	13091
923.55	13187
923.659	13232
923.767	13080
923.876	13152
923.984	13179
924.092	13057
924.201	13004
924.309	13023
924.417	13099
924.525	13031
924.633	12973
924.741	13917
924.849	12852
924.956	12977
925.064	12821
925.172	12722
925.279	12757
925.387	12798
925.494	12798
925.602	12863
925.709	12810
925.816	12738
925.924	12791
926.031	12738
926.138	12722
926.245	12654
926.352	12559
926.459	12669
926.566	12825
926.673	12597
926.779	12536
926.886	12555
926.993	12346
927.099	12357
927.206	12292
927.312	12308
927.419	12350
927.525	12357
927.631	12277
927.737	12178
927.843	12140
927.95	12125
928.056	12098
928.162	12163
928.267	12216
928.373	12749
928.479	12247
928.585	11923
928.69	12114
928.796	12152
928.901	11965
929.007	11821
929.112	12034
929.218	11897
929.323	11916
929.428	11794
929.533	12083
929.638	11737
929.743	11783
929.848	11805
929.953	11691
930.058	11714
930.163	11524
930.267	11619
930.372	11615
930.477	11520
930.581	11695
930.685	11596
930.79	11391
930.894	11360
930.998	11448
931.103	11512
931.207	11136
931.311	11105
931.415	10991
931.519	10767
931.623	10767
