Data from test_V78500241_2165.txt Node
Date: Fri Mar 25 15:56:47 CST 2022
User: usil
Spectrometer: V785-0024
Trigger mode: 0
Integration Time (sec): 4.000000E-1
Scans to average: 1
Nonlinearity correction enabled: false
Boxcar width: 0
Storing dark spectrum: false
XAxis mode: Wavelengths
Number of Pixels in Spectrum: 1024
>>>>>Begin Spectral Data<<<<<
801.071	28957
801.214	28809
801.356	28660
801.499	28660
801.641	28489
801.783	28497
801.926	28618
802.068	28519
802.211	28508
802.353	28371
802.496	28299
802.638	28196
802.78	28261
802.923	27998
803.065	28013
803.208	28078
803.35	28173
803.492	28337
803.635	28401
803.777	28333
803.919	28512
804.061	28713
804.204	28447
804.346	28493
804.488	28386
804.63	28382
804.773	28428
804.915	28493
805.057	28538
805.199	28607
805.341	28542
805.483	28603
805.626	28584
805.768	28504
805.91	28542
806.052	28611
806.194	28512
806.336	28668
806.478	28675
806.62	28592
806.762	28816
806.904	28801
807.046	29124
807.188	29102
807.33	29132
807.472	29083
807.614	29162
807.756	29155
807.898	28987
808.04	28904
808.182	28862
808.324	28904
808.465	29010
808.607	29151
808.749	29216
808.891	29402
809.033	29452
809.174	29474
809.316	29448
809.458	29212
809.6	29326
809.741	29395
809.883	29429
810.025	29634
810.166	29547
810.308	29707
810.45	29604
810.591	29493
810.733	29570
810.875	29360
811.016	29117
811.158	29193
811.299	29303
811.441	29718
811.582	29414
811.724	29204
811.865	29239
812.007	29337
812.148	29292
812.29	29273
812.431	29570
812.573	29627
812.714	29783
812.855	29859
812.997	29961
813.138	30030
813.279	29950
813.421	29836
813.562	29843
813.703	29570
813.845	29486
813.986	29402
814.127	29090
814.268	28911
814.41	29094
814.551	29155
814.692	29010
814.833	28968
814.974	28980
815.115	29105
815.256	28801
815.397	29033
815.539	28999
815.68	28736
815.821	28736
815.962	28805
816.103	28835
816.244	28835
816.385	28649
816.526	28691
816.666	28508
816.807	28272
816.948	28466
817.089	28428
817.23	28405
817.371	28356
817.512	28318
817.653	28436
817.793	28455
817.934	28348
818.075	28310
818.216	28341
818.356	28325
818.497	28154
818.638	28139
818.778	28215
818.919	28051
819.06	28230
819.2	28185
819.341	28325
819.481	28337
819.622	28455
819.762	28755
819.903	28706
820.043	28668
820.184	28573
820.324	28580
820.465	28542
820.605	28519
820.746	28424
820.886	28333
821.026	28443
821.167	28516
821.307	28500
821.447	28375
821.588	28280
821.728	28154
821.868	27991
822.008	27857
822.149	27816
822.289	27846
822.429	27679
822.569	27507
822.709	27447
822.849	27412
822.99	27405
823.13	27386
823.27	27264
823.41	27222
823.55	27093
823.69	27325
823.83	27173
823.97	27169
824.11	26914
824.25	27066
824.389	27017
824.529	27173
824.669	27077
824.809	27192
824.949	27116
825.089	27017
825.228	27146
825.368	26815
825.508	26876
825.648	26952
825.787	26887
825.927	26876
826.067	26845
826.206	26830
826.346	26975
826.485	27009
826.625	26842
826.765	26963
826.904	26861
827.044	26781
827.183	26785
827.323	26697
827.462	26503
827.601	26606
827.741	26594
827.88	26663
828.02	26632
828.159	26594
828.298	26697
828.437	26606
828.577	26587
828.716	26583
828.855	26492
828.994	26301
829.134	26168
829.273	26396
829.412	26278
829.551	26218
829.69	26252
829.829	26271
829.968	26434
830.107	26332
830.246	26339
830.385	26176
830.524	26126
830.663	26164
830.802	25936
830.941	25868
831.08	25845
831.219	26001
831.357	26043
831.496	26027
831.635	25856
831.774	25925
831.913	25811
832.051	25746
832.19	25616
832.329	25738
832.467	25658
832.606	25483
832.744	25548
832.883	25556
833.022	25609
833.16	25578
833.299	25708
833.437	25594
833.576	25662
833.714	25594
833.852	25590
833.991	25772
834.129	25795
834.267	25624
834.406	25681
834.544	25693
834.682	25590
834.821	25715
834.959	25791
835.097	25704
835.235	25750
835.373	25658
835.511	25609
835.65	25453
835.788	25346
835.926	25384
836.064	25297
836.202	25350
836.34	25445
836.478	25464
836.615	25403
836.753	25464
836.891	25552
837.029	25441
837.167	25369
837.305	25335
837.443	25434
837.58	25228
837.718	25301
837.856	25274
837.993	25129
838.131	25278
838.269	25053
838.406	25266
838.544	25141
838.681	24859
838.819	24958
838.956	24757
839.094	24806
839.231	24776
839.369	24989
839.506	25194
839.643	25000
839.781	24810
839.918	24688
840.055	24700
840.193	24726
840.33	24620
840.467	24585
840.604	24779
840.742	24852
840.879	24570
841.016	24521
841.153	24673
841.29	24654
841.427	24547
841.564	24711
841.701	24604
841.838	24452
841.975	24551
842.112	24521
842.249	24376
842.385	24338
842.522	24764
842.659	24490
842.796	24391
842.933	24498
843.069	24388
843.206	24388
843.343	24380
843.479	24471
843.616	24566
843.752	24186
843.889	24281
844.025	24361
844.162	24095
844.298	24254
844.435	24235
844.571	24220
844.708	24163
844.844	24323
844.98	24418
845.117	24254
845.253	24258
845.389	24011
845.525	24098
845.661	24072
845.798	23851
845.934	23916
846.07	23942
846.206	23904
846.342	24030
846.478	23916
846.614	23741
846.75	23570
846.886	23566
847.022	23611
847.158	23684
847.294	23668
847.429	23642
847.565	23486
847.701	23790
847.837	23360
847.972	23296
848.108	23387
848.244	23398
848.379	23216
848.515	23254
848.65	23185
848.786	23193
848.921	23155
849.057	23277
849.192	23318
849.328	23227
849.463	23216
849.598	23170
849.734	23178
849.869	23037
850.004	22923
850.14	22972
850.275	23006
850.41	22885
850.545	22946
850.68	22911
850.815	23052
850.95	22953
851.085	23193
851.22	23109
851.355	22984
851.49	22900
851.625	22900
851.76	22976
851.895	23010
852.03	22873
852.165	23025
852.299	23029
852.434	22942
852.569	23010
852.703	22957
852.838	23044
852.973	23025
853.107	23105
853.242	22793
853.376	22816
853.511	22694
853.645	22839
853.78	22900
853.914	22683
854.048	22812
854.183	22797
854.317	22812
854.451	22938
854.585	22831
854.72	22759
854.854	22889
854.988	22702
855.122	22706
855.256	22736
855.39	22759
855.524	22904
855.658	22881
855.792	22809
855.926	22744
856.06	22862
856.194	22869
856.327	22927
856.461	22835
856.595	22744
856.729	22820
856.862	22991
856.996	22896
857.13	22885
857.263	23022
857.397	22896
857.53	22793
857.664	23006
857.797	22900
857.931	22930
858.064	22763
858.197	22949
858.331	22854
858.464	22797
858.597	22656
858.731	22854
858.864	22736
858.997	22755
859.13	22801
859.263	22847
859.396	22976
859.529	22801
859.662	22873
859.795	22710
859.928	22828
860.061	22999
860.194	23193
860.327	22881
860.46	22866
860.592	22980
860.725	22995
860.858	22900
860.99	22710
861.123	22771
861.256	22835
861.388	22812
861.521	23429
861.653	22725
861.786	22721
861.918	22550
862.05	22725
862.183	22698
862.315	22740
862.447	22805
862.58	22660
862.712	22512
862.844	22512
862.976	22675
863.108	22641
863.24	23044
863.372	22504
863.504	22436
863.636	22402
863.768	22599
863.9	22531
864.032	22363
864.164	22424
864.296	22538
864.428	22622
864.559	22577
864.691	22733
864.823	22421
864.954	22546
865.086	22569
865.217	22451
865.349	22291
865.48	22360
865.612	22440
865.743	22519
865.875	22417
866.006	22284
866.137	22497
866.269	22352
866.4	22318
866.531	22360
866.662	22402
866.793	22185
866.924	22436
867.055	22284
867.186	22284
867.317	22215
867.448	22230
867.579	22128
867.71	22322
867.841	22226
867.972	22497
868.103	22325
868.233	22280
868.364	22303
868.495	22535
868.625	22542
868.756	22672
868.886	22542
869.017	22535
869.147	22573
869.278	22744
869.408	22565
869.539	22546
869.669	22660
869.799	22531
869.929	22736
870.06	22584
870.19	22847
870.32	22805
870.45	22812
870.58	22953
870.71	23025
870.84	23159
870.97	23014
871.1	23048
871.23	23159
871.36	23128
871.489	23075
871.619	22987
871.749	23223
871.879	23185
872.008	23181
872.138	23067
872.267	23113
872.397	23060
872.526	22839
872.656	23056
872.785	22976
872.915	23242
873.044	23212
873.173	23208
873.303	23334
873.432	23311
873.561	23296
873.69	23193
873.819	23003
873.948	23227
874.077	23307
874.206	23075
874.335	23151
874.464	23220
874.593	23372
874.722	23311
874.851	23360
874.979	23398
875.108	23455
875.237	23254
875.365	23383
875.494	23440
875.623	23395
875.751	23265
875.88	23364
876.008	23524
876.136	23551
876.265	23733
876.393	23874
876.521	23828
876.65	23931
876.778	23767
876.906	23726
877.034	23737
877.162	23813
877.29	23691
877.418	23760
877.546	23726
877.674	23684
877.802	23577
877.93	23646
878.058	23668
878.185	23680
878.313	23703
878.441	23691
878.568	23486
878.696	23729
878.824	23615
878.951	23805
879.079	23920
879.206	23950
879.333	23946
879.461	23714
879.588	23775
879.715	23893
879.842	24060
879.97	23920
880.097	23543
880.224	23501
880.351	23539
880.478	23581
880.605	23573
880.732	23589
880.859	23760
880.986	23611
881.112	23471
881.239	23356
881.366	23349
881.493	23166
881.619	23159
881.746	23128
881.872	23010
881.999	23044
882.125	23064
882.252	23140
882.378	23105
882.505	23075
882.631	22919
882.757	22752
882.883	22752
883.01	22721
883.136	22771
883.262	22580
883.388	22565
883.514	22702
883.64	22824
883.766	22634
883.892	22508
884.018	22561
884.143	22702
884.269	22691
884.395	22481
884.52	22356
884.646	22405
884.772	22318
884.897	22318
885.023	22440
885.148	22512
885.274	22459
885.399	22402
885.524	22276
885.65	22424
885.775	22390
885.9	22409
886.025	22550
886.15	22504
886.275	22337
886.4	22280
886.525	22382
886.65	22352
886.775	22337
886.9	22504
887.025	22641
887.149	22367
887.274	22242
887.399	22032
887.523	22234
887.648	22097
887.773	21991
887.897	22295
888.021	22139
888.146	22215
888.27	22280
888.395	22219
888.519	22230
888.643	22253
888.767	22162
888.891	22067
889.015	22029
889.139	21907
889.263	21850
889.387	22196
889.511	22063
889.635	22036
889.759	21831
889.883	21819
890.006	21842
890.13	22059
890.254	21781
890.377	21800
890.501	21663
890.624	21599
890.748	21671
890.871	21583
890.995	21526
891.118	21416
891.241	21553
891.364	21557
891.488	21583
891.611	21568
891.734	21450
891.857	21583
891.98	21428
892.103	21549
892.226	21374
892.349	21428
892.471	21256
892.594	21511
892.717	21382
892.839	21332
892.962	21340
893.085	21428
893.207	21435
893.33	21104
893.452	21283
893.575	21408
893.697	21355
893.819	21462
893.941	21477
894.064	21447
894.186	21294
894.308	21386
894.43	21492
894.552	21523
894.674	21492
894.796	21192
894.918	21374
895.04	21370
895.161	21477
895.283	21424
895.405	21329
895.526	21287
895.648	21241
895.769	21348
895.891	21272
896.012	21382
896.134	21454
896.255	21291
896.376	21313
896.498	21329
896.619	21469
896.74	21272
896.861	21458
896.982	21675
897.103	21694
897.224	21614
897.345	21530
897.466	21500
897.587	21534
897.708	21717
897.828	21622
897.949	21355
898.07	21424
898.19	21386
898.311	21504
898.431	21466
898.552	21526
898.672	21572
898.792	21629
898.913	21591
899.033	21386
899.153	21359
899.273	21310
899.393	21188
899.513	21302
899.633	21298
899.753	21351
899.873	21138
899.993	21336
900.113	21195
900.232	21279
900.352	21074
900.472	20998
900.591	21043
900.711	21077
900.83	20891
900.95	21154
901.069	21108
901.189	20967
901.308	20625
901.427	20560
901.546	20507
901.665	20678
901.784	20632
901.904	20427
902.023	20328
902.141	20210
902.26	20077
902.379	20317
902.498	20081
902.617	20031
902.735	20073
902.854	20081
902.973	19970
903.091	19742
903.21	19719
903.328	19746
903.446	19597
903.565	19563
903.683	19510
903.801	19381
903.919	19483
904.038	19476
904.156	19293
904.274	19308
904.392	19263
904.51	19244
904.627	19183
904.745	19285
904.863	19194
904.981	19091
905.098	18905
905.216	18837
905.334	18985
905.451	19023
905.569	18867
905.686	18970
905.803	18973
905.921	18700
906.038	18760
906.155	18772
906.272	18627
906.389	18631
906.506	18456
906.623	18631
906.74	18445
906.857	18391
906.974	18365
907.091	18464
907.208	18551
907.324	18414
907.441	18407
907.557	18224
907.674	18319
907.79	18045
907.907	18178
908.023	18258
908.139	18273
908.256	18106
908.372	17961
908.488	18053
908.604	17927
908.72	17878
908.836	17935
908.952	17855
909.068	17939
909.184	17980
909.3	17920
909.415	17904
909.531	17916
909.647	17573
909.762	17543
909.878	17615
909.993	17528
910.108	17623
910.224	17642
910.339	17516
910.454	17501
910.57	17406
910.685	17261
910.8	17615
910.915	17566
911.03	17353
911.145	17273
911.259	17261
911.374	17170
911.489	17022
911.604	16911
911.718	16881
911.833	16881
911.947	16733
912.062	16649
912.176	16873
912.291	16824
912.405	16915
912.519	17098
912.633	17102
912.748	16968
912.862	16957
912.976	16759
913.09	16645
913.204	16710
913.318	16816
913.431	16713
913.545	16797
913.659	16816
913.772	16675
913.886	16535
914	16462
914.113	16626
914.226	16550
914.34	16573
914.453	16516
914.566	16607
914.68	16394
914.793	16363
914.906	16173
915.019	16055
915.132	16074
915.245	16090
915.358	16109
915.47	16105
915.583	16074
915.696	16078
915.809	16128
915.921	16226
916.034	16067
916.146	15979
916.259	15922
916.371	16025
916.483	15983
916.595	15831
916.708	15819
916.82	15869
916.932	15918
917.044	15842
917.156	15781
917.268	15663
917.38	15709
917.491	15766
917.603	15652
917.715	15739
917.826	15717
917.938	15591
918.049	15431
918.161	15625
918.272	15755
918.384	15770
918.495	15606
918.606	15496
918.717	15405
918.828	15412
918.939	15412
919.05	15382
919.161	15412
919.272	15207
919.383	15336
919.494	15428
919.604	15648
919.715	15367
919.826	15332
919.936	15367
920.047	15378
920.157	15412
920.267	15507
920.378	15405
920.488	15321
920.598	15530
920.708	15755
920.818	15473
920.928	15538
921.038	15698
921.148	15511
921.258	15359
921.368	15237
921.477	15116
921.587	15119
921.697	15028
921.806	15116
921.916	14921
922.025	14895
922.134	14712
922.244	14568
922.353	14815
922.462	14689
922.571	14571
922.68	14476
922.789	14377
922.898	14370
923.007	14339
923.116	14423
923.224	14381
923.333	14282
923.442	14267
923.55	14168
923.659	14202
923.767	14275
923.876	14149
923.984	14191
924.092	14005
924.201	14031
924.309	14103
924.417	14012
924.525	14035
924.633	14012
924.741	14731
924.849	13818
924.956	13986
925.064	13845
925.172	13719
925.279	13734
925.387	13875
925.494	13788
925.602	13868
925.709	13753
925.816	13647
925.924	13719
926.031	13784
926.138	13700
926.245	13753
926.352	13613
926.459	13666
926.566	13666
926.673	13647
926.779	13480
926.886	13514
926.993	13369
927.099	13285
927.206	13259
927.312	13259
927.419	13335
927.525	13266
927.631	13247
927.737	13110
927.843	13168
927.95	13050
928.056	13156
928.162	13164
928.267	13175
928.373	13750
928.479	13179
928.585	12840
928.69	13000
928.796	13027
928.901	13034
929.007	12856
929.112	12970
929.218	12901
929.323	12829
929.428	12856
929.533	12966
929.638	12783
929.743	12810
929.848	12802
929.953	12684
930.058	12616
930.163	12513
930.267	12471
930.372	12521
930.477	12418
930.581	12631
930.685	12566
930.79	12346
930.894	12460
930.998	12361
931.103	12513
931.207	12095
931.311	12011
931.415	11992
931.519	11718
931.623	11688
