Data from test_V78500241_2351.txt Node
Date: Fri Mar 25 15:58:05 CST 2022
User: usil
Spectrometer: V785-0024
Trigger mode: 0
Integration Time (sec): 4.000000E-1
Scans to average: 1
Nonlinearity correction enabled: false
Boxcar width: 0
Storing dark spectrum: false
XAxis mode: Wavelengths
Number of Pixels in Spectrum: 1024
>>>>>Begin Spectral Data<<<<<
801.071	28797
801.214	28710
801.356	28474
801.499	28466
801.641	28284
801.783	28360
801.926	28390
802.068	28413
802.211	28257
802.353	28135
802.496	28082
802.638	28131
802.78	28131
802.923	28116
803.065	27911
803.208	27956
803.35	27998
803.492	28246
803.635	28284
803.777	28154
803.919	28325
804.061	28580
804.204	28341
804.346	28284
804.488	28105
804.63	28356
804.773	28207
804.915	28428
805.057	28538
805.199	28268
805.341	28333
805.483	28424
805.626	28356
805.768	28371
805.91	28500
806.052	28443
806.194	28413
806.336	28363
806.478	28310
806.62	28390
806.762	28603
806.904	28672
807.046	28972
807.188	28835
807.33	28877
807.472	28904
807.614	28748
807.756	28923
807.898	28660
808.04	28592
808.182	28615
808.324	28782
808.465	28850
808.607	28953
808.749	29102
808.891	29250
809.033	29334
809.174	29022
809.316	29136
809.458	29056
809.6	29048
809.741	29273
809.883	29318
810.025	29421
810.166	29375
810.308	29375
810.45	29284
810.591	29326
810.733	29105
810.875	29284
811.016	29025
811.158	29071
811.299	29098
811.441	29227
811.582	29254
811.724	29208
811.865	29041
812.007	29048
812.148	29098
812.29	29273
812.431	29383
812.573	29383
812.714	29596
812.855	29516
812.997	29817
813.138	29836
813.279	29824
813.421	29726
813.562	29661
813.703	29592
813.845	29368
813.986	29258
814.127	28968
814.268	28831
814.41	28885
814.551	28774
814.692	28850
814.833	28858
814.974	28786
815.115	28965
815.256	28740
815.397	28691
815.539	28672
815.68	28660
815.821	28592
815.962	28550
816.103	28645
816.244	28519
816.385	28379
816.526	28382
816.666	28276
816.807	28249
816.948	28211
817.089	28257
817.23	28211
817.371	28204
817.512	28040
817.653	28010
817.793	28253
817.934	28166
818.075	28238
818.216	28120
818.356	28158
818.497	28150
818.638	27861
818.778	27964
818.919	27922
819.06	28017
819.2	28010
819.341	28078
819.481	28105
819.622	28230
819.762	28478
819.903	28401
820.043	28314
820.184	28314
820.324	28375
820.465	28428
820.605	28253
820.746	28268
820.886	28291
821.026	28204
821.167	28310
821.307	28314
821.447	28207
821.588	28063
821.728	27899
821.868	27694
822.008	27781
822.149	27561
822.289	27568
822.429	27344
822.569	27351
822.709	27302
822.849	27180
822.99	27237
823.13	26979
823.27	27150
823.41	27062
823.55	26819
823.69	27001
823.83	27020
823.97	26895
824.11	26804
824.25	26613
824.389	26762
824.529	26750
824.669	26796
824.809	26899
824.949	26838
825.089	26773
825.228	26720
825.368	26689
825.508	26568
825.648	26727
825.787	26735
825.927	26769
826.067	26693
826.206	26754
826.346	26697
826.485	26659
826.625	26758
826.765	26819
826.904	26689
827.044	26389
827.183	26499
827.323	26362
827.462	26499
827.601	26412
827.741	26499
827.88	26488
828.02	26240
828.159	26305
828.298	26362
828.437	26484
828.577	26313
828.716	26446
828.855	26298
828.994	26039
829.134	26096
829.273	26111
829.412	26081
829.551	26111
829.69	26043
829.829	26012
829.968	26244
830.107	26282
830.246	26134
830.385	26012
830.524	25986
830.663	25932
830.802	25807
830.941	25712
831.08	25643
831.219	25791
831.357	25837
831.496	25841
831.635	25712
831.774	25655
831.913	25548
832.051	25632
832.19	25457
832.329	25434
832.467	25339
832.606	25301
832.744	25327
832.883	25434
833.022	25289
833.16	25282
833.299	25400
833.437	25438
833.576	25426
833.714	25510
833.852	25407
833.991	25506
834.129	25422
834.267	25540
834.406	25346
834.544	25525
834.682	25495
834.821	25514
834.959	25449
835.097	25358
835.235	25468
835.373	25502
835.511	25419
835.65	25228
835.788	25225
835.926	25171
836.064	25000
836.202	25122
836.34	25327
836.478	25346
836.615	25293
836.753	25232
836.891	25251
837.029	25324
837.167	25202
837.305	25145
837.443	25065
837.58	25031
837.718	25164
837.856	25110
837.993	25023
838.131	25008
838.269	24901
838.406	24966
838.544	24867
838.681	24703
838.819	24673
838.956	24502
839.094	24456
839.231	24525
839.369	24753
839.506	24837
839.643	24757
839.781	24471
839.918	24559
840.055	24502
840.193	24494
840.33	24525
840.467	24601
840.604	24490
840.742	24673
840.879	24148
841.016	24410
841.153	24258
841.29	24502
841.427	24350
841.564	24422
841.701	24437
841.838	24448
841.975	24338
842.112	24334
842.249	24159
842.385	24243
842.522	24330
842.659	24247
842.796	24117
842.933	24258
843.069	24087
843.206	24190
843.343	24273
843.479	24106
843.616	24182
843.752	23984
843.889	23901
844.025	24224
844.162	23870
844.298	24045
844.435	24007
844.571	23882
844.708	23882
844.844	24106
844.98	24068
845.117	24213
845.253	23999
845.389	23821
845.525	23863
845.661	23672
845.798	23627
845.934	23676
846.07	23680
846.206	23775
846.342	23646
846.478	23634
846.614	23512
846.75	23353
846.886	23330
847.022	23406
847.158	23436
847.294	23417
847.429	23448
847.565	23383
847.701	23611
847.837	23170
847.972	23067
848.108	23273
848.244	23086
848.379	23029
848.515	22938
848.65	23067
848.786	22995
848.921	23136
849.057	23067
849.192	23010
849.328	23018
849.463	23056
849.598	22942
849.734	22892
849.869	22774
850.004	22889
850.14	22786
850.275	22748
850.41	22816
850.545	22755
850.68	22679
850.815	22820
850.95	22710
851.085	22904
851.22	22847
851.355	22862
851.49	22805
851.625	22721
851.76	22645
851.895	22733
852.03	22630
852.165	22744
852.299	22812
852.434	22900
852.569	22782
852.703	22896
852.838	22843
852.973	22927
853.107	22908
853.242	22672
853.376	22641
853.511	22500
853.645	22455
853.78	22721
853.914	22573
854.048	22584
854.183	22615
854.317	22679
854.451	22717
854.585	22569
854.72	22630
854.854	22630
854.988	22508
855.122	22561
855.256	22527
855.39	22615
855.524	22596
855.658	22691
855.792	22599
855.926	22519
856.06	22653
856.194	22580
856.327	22561
856.461	22588
856.595	22519
856.729	22538
856.862	22790
856.996	22573
857.13	22596
857.263	22683
857.397	22626
857.53	22592
857.664	22504
857.797	22729
857.931	22687
858.064	22641
858.197	22672
858.331	22569
858.464	22481
858.597	22478
858.731	22607
858.864	22618
858.997	22409
859.13	22542
859.263	22542
859.396	22748
859.529	22531
859.662	22538
859.795	22481
859.928	22592
860.061	22755
860.194	22847
860.327	22782
860.46	22630
860.592	22748
860.725	22721
860.858	22713
860.99	22656
861.123	22569
861.256	22569
861.388	22668
861.521	23261
861.653	22497
861.786	22386
861.918	22527
862.05	22470
862.183	22516
862.315	22538
862.447	22413
862.58	22557
862.712	22356
862.844	22219
862.976	22478
863.108	22287
863.24	22733
863.372	22196
863.504	22291
863.636	22204
863.768	22337
863.9	22249
864.032	22272
864.164	22177
864.296	22276
864.428	22421
864.559	22333
864.691	22356
864.823	22344
864.954	22272
865.086	22158
865.217	22280
865.349	22196
865.48	22226
865.612	22268
865.743	22105
865.875	22109
866.006	22059
866.137	22158
866.269	22177
866.4	22185
866.531	22135
866.662	22128
866.793	22139
866.924	22093
867.055	22257
867.186	22109
867.317	22097
867.448	22025
867.579	22173
867.71	22010
867.841	21915
867.972	22204
868.103	22036
868.233	22177
868.364	22154
868.495	22169
868.625	22295
868.756	22398
868.886	22261
869.017	22322
869.147	22489
869.278	22443
869.408	22436
869.539	22363
869.669	22371
869.799	22337
869.929	22405
870.06	22504
870.19	22637
870.32	22542
870.45	22630
870.58	22713
870.71	22767
870.84	22847
870.97	22881
871.1	22637
871.23	22889
871.36	22942
871.489	22828
871.619	22820
871.749	22957
871.879	22976
872.008	23052
872.138	22866
872.267	22854
872.397	22763
872.526	22603
872.656	22740
872.785	22809
872.915	22961
873.044	22972
873.173	22831
873.303	23060
873.432	23071
873.561	23064
873.69	22953
873.819	22892
873.948	23083
874.077	22866
874.206	22843
874.335	22843
874.464	23037
874.593	23162
874.722	23056
874.851	23178
874.979	23208
875.108	23185
875.237	23208
875.365	22965
875.494	23105
875.623	23102
875.751	23029
875.88	23147
876.008	23121
876.136	23471
876.265	23524
876.393	23547
876.521	23604
876.65	23600
876.778	23535
876.906	23528
877.034	23474
877.162	23512
877.29	23471
877.418	23440
877.546	23562
877.674	23440
877.802	23463
877.93	23429
878.058	23436
878.185	23379
878.313	23398
878.441	23589
878.568	23349
878.696	23463
878.824	23528
878.951	23608
879.079	23520
879.206	23764
879.333	23615
879.461	23646
879.588	23748
879.715	23589
879.842	23916
879.97	23657
880.097	23200
880.224	23360
880.351	23376
880.478	23356
880.605	23174
880.732	23307
880.859	23661
880.986	23364
881.112	23284
881.239	23216
881.366	23200
881.493	23018
881.619	22923
881.746	22911
881.872	22930
881.999	22801
882.125	22949
882.252	22892
882.378	22965
882.505	23056
882.631	22683
882.757	22596
882.883	22577
883.01	22554
883.136	22474
883.262	22398
883.388	22356
883.514	22637
883.64	22489
883.766	22459
883.892	22272
884.018	22337
884.143	22527
884.269	22474
884.395	22162
884.52	22204
884.646	22192
884.772	22154
884.897	22135
885.023	22112
885.148	22299
885.274	22295
885.399	22246
885.524	22116
885.65	22200
885.775	22204
885.9	22211
886.025	22276
886.15	22379
886.275	22139
886.4	22097
886.525	22181
886.65	22002
886.775	22116
886.9	22154
887.025	22303
887.149	22158
887.274	21930
887.399	21972
887.523	21934
887.648	21907
887.773	21819
887.897	21975
888.021	22006
888.146	21964
888.27	22040
888.395	22010
888.519	22036
888.643	22051
888.767	21937
888.891	21842
889.015	21766
889.139	21747
889.263	21800
889.387	21778
889.511	21903
889.635	21846
889.759	21732
889.883	21663
890.006	21793
890.13	21789
890.254	21713
890.377	21648
890.501	21439
890.624	21454
890.748	21492
890.871	21298
890.995	21378
891.118	21237
891.241	21275
891.364	21317
891.488	21447
891.611	21355
891.734	21135
891.857	21359
891.98	21195
892.103	21317
892.226	21241
892.349	21313
892.471	21089
892.594	21230
892.717	21135
892.839	21043
892.962	21207
893.085	21138
893.207	21245
893.33	21039
893.452	21039
893.575	21241
893.697	21154
893.819	21279
893.941	21279
894.064	21272
894.186	21047
894.308	21100
894.43	21233
894.552	21233
894.674	21264
894.796	21055
894.918	21058
895.04	21157
895.161	21241
895.283	21112
895.405	21104
895.526	21123
895.648	21188
895.769	21184
895.891	21131
896.012	21302
896.134	21264
896.255	21116
896.376	21074
896.498	21081
896.619	21146
896.74	21024
896.861	21119
896.982	21431
897.103	21500
897.224	21355
897.345	21439
897.466	21367
897.587	21389
897.708	21469
897.828	21443
897.949	21226
898.07	21169
898.19	21233
898.311	21397
898.431	21279
898.552	21420
898.672	21416
898.792	21405
898.913	21325
899.033	21081
899.153	21165
899.273	20990
899.393	21032
899.513	21013
899.633	21081
899.753	21047
899.873	21005
899.993	20952
900.113	21100
900.232	21043
900.352	20994
900.472	20819
900.591	20743
900.711	20864
900.83	20674
900.95	20933
901.069	20857
901.189	20792
901.308	20438
901.427	20377
901.546	20415
901.665	20370
901.784	20450
901.904	20298
902.023	20180
902.141	19970
902.26	20031
902.379	19989
902.498	19932
902.617	19936
902.735	19974
902.854	19936
902.973	19833
903.091	19521
903.21	19651
903.328	19548
903.446	19415
903.565	19407
903.683	19358
903.801	19255
903.919	19434
904.038	19350
904.156	19088
904.274	19209
904.392	19084
904.51	19145
904.627	19080
904.745	19065
904.863	19137
904.981	18954
905.098	18696
905.216	18867
905.334	18757
905.451	18867
905.569	18757
905.686	18821
905.803	18779
905.921	18585
906.038	18692
906.155	18589
906.272	18471
906.389	18426
906.506	18338
906.623	18361
906.74	18308
906.857	18167
906.974	18220
907.091	18342
907.208	18353
907.324	18273
907.441	18224
907.557	18038
907.674	18053
907.79	17996
907.907	18007
908.023	17939
908.139	18003
908.256	17828
908.372	17977
908.488	17840
908.604	17809
908.72	17741
908.836	17733
908.952	17699
909.068	17695
909.184	17764
909.3	17737
909.415	17741
909.531	17790
909.647	17436
909.762	17414
909.878	17448
909.993	17490
910.108	17528
910.224	17459
910.339	17482
910.454	17299
910.57	17303
910.685	17117
910.8	17444
910.915	17337
911.03	17208
911.145	17090
911.259	17064
911.374	17018
911.489	17006
911.604	16896
911.718	16797
911.833	16816
911.947	16668
912.062	16698
912.176	16816
912.291	16736
912.405	16710
912.519	16965
912.633	16972
912.748	16843
912.862	16748
912.976	16546
913.09	16481
913.204	16558
913.318	16634
913.431	16588
913.545	16569
913.659	16637
913.772	16607
913.886	16386
914	16322
914.113	16386
914.226	16428
914.34	16394
914.453	16276
914.566	16329
914.68	16200
914.793	16242
914.906	16074
915.019	16021
915.132	15930
915.245	16074
915.358	16006
915.47	16017
915.583	15888
915.696	15930
915.809	16071
915.921	16013
916.034	15842
916.146	15808
916.259	15778
916.371	15968
916.483	15922
916.595	15827
916.708	15838
916.82	15789
916.932	15713
917.044	15679
917.156	15694
917.268	15568
917.38	15663
917.491	15542
917.603	15622
917.715	15739
917.826	15694
917.938	15500
918.049	15420
918.161	15443
918.272	15709
918.384	15625
918.495	15553
918.606	15378
918.717	15226
918.828	15348
918.939	15252
919.05	15272
919.161	15302
919.272	15138
919.383	15131
919.494	15424
919.604	15386
919.715	15260
919.826	15272
919.936	15272
920.047	15275
920.157	15279
920.267	15458
920.378	15313
920.488	15135
920.598	15405
920.708	15564
920.818	15313
920.928	15306
921.038	15557
921.148	15454
921.258	15192
921.368	15195
921.477	14986
921.587	15070
921.697	14918
921.806	15017
921.916	14895
922.025	14659
922.134	14682
922.244	14530
922.353	14716
922.462	14511
922.571	14450
922.68	14259
922.789	14347
922.898	14275
923.007	14271
923.116	14271
923.224	14214
923.333	14278
923.442	14149
923.55	14069
923.659	14096
923.767	14092
923.876	13959
923.984	14088
924.092	13860
924.201	14088
924.309	13951
924.417	13951
924.525	13894
924.633	13925
924.741	14716
924.849	13723
924.956	13769
925.064	13636
925.172	13601
925.279	13674
925.387	13582
925.494	13590
925.602	13734
925.709	13658
925.816	13483
925.924	13575
926.031	13571
926.138	13548
926.245	13613
926.352	13392
926.459	13601
926.566	13597
926.673	13460
926.779	13396
926.886	13301
926.993	13301
927.099	13236
927.206	13126
927.312	13149
927.419	13145
927.525	13149
927.631	13270
927.737	13076
927.843	13012
927.95	12928
928.056	13034
928.162	12981
928.267	13038
928.373	13510
928.479	13015
928.585	12924
928.69	12943
928.796	12905
928.901	12871
929.007	12711
929.112	12749
929.218	12779
929.323	12753
929.428	12681
929.533	12852
929.638	12604
929.743	12669
929.848	12642
929.953	12601
930.058	12513
930.163	12357
930.267	12384
930.372	12452
930.477	12292
930.581	12544
930.685	12471
930.79	12285
930.894	12304
930.998	12163
931.103	12403
931.207	12030
931.311	11908
931.415	11828
931.519	11714
931.623	11646
