Data from test_V78500241_1802.txt Node
Date: Fri Mar 25 15:54:17 CST 2022
User: usil
Spectrometer: V785-0024
Trigger mode: 0
Integration Time (sec): 4.000000E-1
Scans to average: 1
Nonlinearity correction enabled: false
Boxcar width: 0
Storing dark spectrum: false
XAxis mode: Wavelengths
Number of Pixels in Spectrum: 1024
>>>>>Begin Spectral Data<<<<<
801.071	28675
801.214	28637
801.356	28478
801.499	28413
801.641	28147
801.783	28314
801.926	28299
802.068	28215
802.211	28204
802.353	28074
802.496	28082
802.638	27876
802.78	27869
802.923	27949
803.065	27724
803.208	27713
803.35	27979
803.492	28105
803.635	28086
803.777	28074
803.919	28211
804.061	28421
804.204	28280
804.346	27934
804.488	28082
804.63	28211
804.773	27937
804.915	28166
805.057	28299
805.199	28116
805.341	28276
805.483	28284
805.626	28295
805.768	28352
805.91	28333
806.052	28261
806.194	28272
806.336	28265
806.478	28333
806.62	28337
806.762	28382
806.904	28561
807.046	28824
807.188	28744
807.33	28713
807.472	28793
807.614	28797
807.756	28645
807.898	28523
808.04	28580
808.182	28645
808.324	28626
808.465	28771
808.607	28835
808.749	28942
808.891	28987
809.033	29220
809.174	28915
809.316	28908
809.458	29041
809.6	28828
809.741	29132
809.883	29166
810.025	29227
810.166	29265
810.308	29151
810.45	29417
810.591	29113
810.733	28946
810.875	29029
811.016	28843
811.158	28873
811.299	29025
811.441	29006
811.582	29094
811.724	29086
811.865	29029
812.007	29018
812.148	29102
812.29	29014
812.431	29071
812.573	29387
812.714	29391
812.855	29619
812.997	29699
813.138	29729
813.279	29558
813.421	29482
813.562	29402
813.703	29299
813.845	29235
813.986	29022
814.127	28801
814.268	28778
814.41	28862
814.551	28736
814.692	28694
814.833	28599
814.974	28721
815.115	28752
815.256	28630
815.397	28447
815.539	28653
815.68	28436
815.821	28478
815.962	28554
816.103	28421
816.244	28367
816.385	28215
816.526	28287
816.666	28158
816.807	27956
816.948	27869
817.089	27911
817.23	27903
817.371	28006
817.512	28002
817.653	27975
817.793	27960
817.934	27953
818.075	28147
818.216	28051
818.356	27918
818.497	28051
818.638	27739
818.778	27690
818.919	27755
819.06	27869
819.2	28013
819.341	27850
819.481	27998
819.622	28234
819.762	28318
819.903	28303
820.043	28093
820.184	28341
820.324	28207
820.465	28276
820.605	28147
820.746	28181
820.886	27987
821.026	28234
821.167	28013
821.307	28158
821.447	28048
821.588	27960
821.728	27827
821.868	27660
822.008	27568
822.149	27469
822.289	27606
822.429	27256
822.569	27157
822.709	27169
822.849	26925
822.99	27043
823.13	27024
823.27	26921
823.41	26880
823.55	26594
823.69	26758
823.83	26842
823.97	26796
824.11	26663
824.25	26609
824.389	26697
824.529	26735
824.669	26617
824.809	26785
824.949	26807
825.089	26743
825.228	26644
825.368	26492
825.508	26476
825.648	26492
825.787	26499
825.927	26590
826.067	26583
826.206	26514
826.346	26412
826.485	26545
826.625	26625
826.765	26667
826.904	26594
827.044	26229
827.183	26343
827.323	26237
827.462	26275
827.601	26298
827.741	26164
827.88	26332
828.02	26290
828.159	26199
828.298	26271
828.437	26275
828.577	26202
828.716	26202
828.855	26214
828.994	25887
829.134	25890
829.273	25890
829.412	25879
829.551	25890
829.69	26005
829.829	25852
829.968	25955
830.107	26058
830.246	25788
830.385	25765
830.524	25833
830.663	25807
830.802	25594
830.941	25529
831.08	25384
831.219	25632
831.357	25635
831.496	25757
831.635	25567
831.774	25464
831.913	25373
832.051	25270
832.19	25304
832.329	25289
832.467	25137
832.606	25145
832.744	25194
832.883	25206
833.022	25232
833.16	25228
833.299	25156
833.437	25225
833.576	25183
833.714	25213
833.852	25487
833.991	25301
834.129	25384
834.267	25312
834.406	25183
834.544	25335
834.682	25339
834.821	25324
834.959	25369
835.097	25228
835.235	25312
835.373	25236
835.511	25126
835.65	25046
835.788	25042
835.926	25015
836.064	24886
836.202	24924
836.34	25133
836.478	25160
836.615	25099
836.753	25118
836.891	25091
837.029	25118
837.167	24996
837.305	25061
837.443	24825
837.58	24829
837.718	24909
837.856	25042
837.993	24821
838.131	24882
838.269	24730
838.406	24985
838.544	24692
838.681	24418
838.819	24505
838.956	24418
839.094	24315
839.231	24578
839.369	24631
839.506	24806
839.643	24597
839.781	24452
839.918	24315
840.055	24270
840.193	24350
840.33	24319
840.467	24319
840.604	24304
840.742	24665
840.879	24083
841.016	24091
841.153	24197
841.29	24353
841.427	24270
841.564	24277
841.701	24311
841.838	24239
841.975	24155
842.112	24190
842.249	24140
842.385	24026
842.522	24270
842.659	24030
842.796	24041
842.933	24030
843.069	23961
843.206	23984
843.343	24049
843.479	24068
843.616	23973
843.752	23851
843.889	23828
844.025	23855
844.162	23756
844.298	23920
844.435	23855
844.571	23729
844.708	23821
844.844	23885
844.98	23961
845.117	23874
845.253	23661
845.389	23619
845.525	23775
845.661	23623
845.798	23512
845.934	23562
846.07	23512
846.206	23653
846.342	23585
846.478	23452
846.614	23296
846.75	23315
846.886	23273
847.022	23364
847.158	23200
847.294	23231
847.429	23315
847.565	23265
847.701	23478
847.837	23140
847.972	22854
848.108	23014
848.244	22980
848.379	22866
848.515	22889
848.65	22687
848.786	22824
848.921	22820
849.057	22892
849.192	22877
849.328	22877
849.463	22923
849.598	22847
849.734	22729
849.869	22710
850.004	22557
850.14	22706
850.275	22493
850.41	22497
850.545	22497
850.68	22603
850.815	22668
850.95	22611
851.085	22626
851.22	22580
851.355	22592
851.49	22588
851.625	22599
851.76	22634
851.895	22519
852.03	22405
852.165	22599
852.299	22592
852.434	22660
852.569	22596
852.703	22535
852.838	22622
852.973	22706
853.107	22713
853.242	22542
853.376	22516
853.511	22196
853.645	22394
853.78	22478
853.914	22421
854.048	22390
854.183	22413
854.317	22481
854.451	22599
854.585	22455
854.72	22405
854.854	22527
854.988	22390
855.122	22390
855.256	22337
855.39	22462
855.524	22474
855.658	22421
855.792	22459
855.926	22417
856.06	22516
856.194	22599
856.327	22436
856.461	22360
856.595	22470
856.729	22375
856.862	22466
856.996	22607
857.13	22546
857.263	22489
857.397	22398
857.53	22352
857.664	22481
857.797	22535
857.931	22577
858.064	22352
858.197	22432
858.331	22379
858.464	22318
858.597	22367
858.731	22394
858.864	22451
858.997	22455
859.13	22470
859.263	22497
859.396	22451
859.529	22367
859.662	22352
859.795	22230
859.928	22341
860.061	22622
860.194	22668
860.327	22535
860.46	22440
860.592	22531
860.725	22519
860.858	22653
860.99	22497
861.123	22363
861.256	22451
861.388	22428
861.521	23048
861.653	22295
861.786	22265
861.918	22303
862.05	22356
862.183	22306
862.315	22390
862.447	22386
862.58	22341
862.712	22097
862.844	22143
862.976	22204
863.108	22192
863.24	22626
863.372	21918
863.504	22074
863.636	22120
863.768	22181
863.9	22074
864.032	22097
864.164	22173
864.296	22139
864.428	22143
864.559	22173
864.691	22101
864.823	22200
864.954	22124
865.086	22135
865.217	22093
865.349	21983
865.48	22010
865.612	21934
865.743	22093
865.875	21953
866.006	22036
866.137	21960
866.269	21953
866.4	21949
866.531	21930
866.662	21869
866.793	21854
866.924	22070
867.055	21930
867.186	21960
867.317	21876
867.448	21850
867.579	21816
867.71	21789
867.841	21812
867.972	21873
868.103	21956
868.233	22074
868.364	21987
868.495	22013
868.625	22181
868.756	22299
868.886	22131
869.017	22215
869.147	22238
869.278	22238
869.408	22204
869.539	22234
869.669	22207
869.799	22131
869.929	22314
870.06	22303
870.19	22405
870.32	22443
870.45	22352
870.58	22459
870.71	22626
870.84	22725
870.97	22557
871.1	22516
871.23	22748
871.36	22683
871.489	22569
871.619	22793
871.749	22717
871.879	22733
872.008	22862
872.138	22915
872.267	22809
872.397	22672
872.526	22500
872.656	22523
872.785	22668
872.915	22748
873.044	22984
873.173	22778
873.303	22824
873.432	22717
873.561	22892
873.69	22740
873.819	22801
873.948	22991
874.077	22911
874.206	22755
874.335	22771
874.464	22843
874.593	22999
874.722	22938
874.851	23102
874.979	22938
875.108	23071
875.237	23052
875.365	22889
875.494	23041
875.623	23060
875.751	23128
875.88	23037
876.008	23044
876.136	23239
876.265	23429
876.393	23410
876.521	23463
876.65	23535
876.778	23410
876.906	23307
877.034	23334
877.162	23330
877.29	23368
877.418	23387
877.546	23356
877.674	23364
877.802	23360
877.93	23383
878.058	23204
878.185	23208
878.313	23277
878.441	23330
878.568	23159
878.696	23326
878.824	23360
878.951	23406
879.079	23505
879.206	23623
879.333	23528
879.461	23433
879.588	23486
879.715	23539
879.842	23611
879.97	23486
880.097	23162
880.224	23208
880.351	23128
880.478	23170
880.605	23086
880.732	23132
880.859	23337
880.986	23318
881.112	23044
881.239	22995
881.366	22881
881.493	22930
881.619	22687
881.746	22744
881.872	22668
881.999	22687
882.125	22641
882.252	22664
882.378	22713
882.505	22698
882.631	22569
882.757	22382
882.883	22447
883.01	22390
883.136	22371
883.262	22390
883.388	22112
883.514	22344
883.64	22421
883.766	22280
883.892	22124
884.018	22131
884.143	22344
884.269	22474
884.395	22147
884.52	22029
884.646	22051
884.772	22021
884.897	21869
885.023	21941
885.148	22120
885.274	22192
885.399	22109
885.524	22013
885.65	22112
885.775	22112
885.9	22032
886.025	22139
886.15	22101
886.275	22029
886.4	21884
886.525	21903
886.65	21930
886.775	22029
886.9	21960
887.025	22306
887.149	21945
887.274	21911
887.399	21827
887.523	21785
887.648	21770
887.773	21663
887.897	21793
888.021	21926
888.146	21755
888.27	21941
888.395	21907
888.519	21888
888.643	21778
888.767	21789
888.891	21675
889.015	21545
889.139	21778
889.263	21561
889.387	21701
889.511	21797
889.635	21713
889.759	21393
889.883	21488
890.006	21583
890.13	21652
890.254	21656
890.377	21641
890.501	21435
890.624	21233
890.748	21401
890.871	21321
890.995	21142
891.118	20933
891.241	21230
891.364	21154
891.488	21348
891.611	21180
891.734	21138
891.857	21188
891.98	21135
892.103	21161
892.226	21112
892.349	21135
892.471	21028
892.594	21089
892.717	21184
892.839	21150
892.962	21100
893.085	21089
893.207	21043
893.33	20933
893.452	20960
893.575	21077
893.697	21001
893.819	21108
893.941	21142
894.064	21180
894.186	21020
894.308	20982
894.43	21077
894.552	21169
894.674	21013
894.796	21043
894.918	21039
895.04	20975
895.161	21089
895.283	21077
895.405	20937
895.526	20960
895.648	20952
895.769	20986
895.891	21138
896.012	21058
896.134	21009
896.255	21024
896.376	21028
896.498	21009
896.619	21081
896.74	21013
896.861	20956
896.982	21363
897.103	21515
897.224	21340
897.345	21329
897.466	21047
897.587	21287
897.708	21485
897.828	21195
897.949	21313
898.07	21085
898.19	21294
898.311	21222
898.431	21226
898.552	21199
898.672	21428
898.792	21329
898.913	21199
899.033	21100
899.153	21074
899.273	20853
899.393	21032
899.513	20986
899.633	21070
899.753	20967
899.873	20819
899.993	20899
900.113	20804
900.232	20933
900.352	20914
900.472	20788
900.591	20739
900.711	20845
900.83	20769
900.95	20815
901.069	20773
901.189	20602
901.308	20518
901.427	20339
901.546	20263
901.665	20358
901.784	20240
901.904	20240
902.023	20107
902.141	19967
902.26	19879
902.379	19898
902.498	19681
902.617	19753
902.735	19772
902.854	19799
902.973	19803
903.091	19430
903.21	19457
903.328	19582
903.446	19384
903.565	19263
903.683	19289
903.801	19000
903.919	19308
904.038	19213
904.156	19107
904.274	19023
904.392	19008
904.51	18985
904.627	18882
904.745	18989
904.863	19046
904.981	18772
905.098	18696
905.216	18639
905.334	18749
905.451	18734
905.569	18532
905.686	18741
905.803	18688
905.921	18551
906.038	18498
906.155	18544
906.272	18395
906.389	18350
906.506	18258
906.623	18311
906.74	18262
906.857	18060
906.974	18053
907.091	18174
907.208	18330
907.324	18190
907.441	18171
907.557	17977
907.674	17977
907.79	17908
907.907	17832
908.023	17889
908.139	17893
908.256	17836
908.372	17813
908.488	17786
908.604	17741
908.72	17558
908.836	17562
908.952	17611
909.068	17722
909.184	17775
909.3	17547
909.415	17649
909.531	17611
909.647	17372
909.762	17299
909.878	17258
909.993	17402
910.108	17273
910.224	17288
910.339	17216
910.454	17296
910.57	17094
910.685	17003
910.8	17334
910.915	17318
911.03	17037
911.145	16987
911.259	16862
911.374	16946
911.489	16919
911.604	16824
911.718	16660
911.833	16740
911.947	16558
912.062	16550
912.176	16679
912.291	16710
912.405	16729
912.519	16759
912.633	16889
912.748	16740
912.862	16527
912.976	16577
913.09	16474
913.204	16542
913.318	16580
913.431	16519
913.545	16478
913.659	16500
913.772	16329
913.886	16276
914	16135
914.113	16402
914.226	16402
914.34	16272
914.453	16169
914.566	16242
914.68	16078
914.793	16044
914.906	15850
915.019	15789
915.132	15766
915.245	15838
915.358	15789
915.47	15964
915.583	15915
915.696	15854
915.809	15937
915.921	15918
916.034	15755
916.146	15770
916.259	15625
916.371	15842
916.483	15835
916.595	15603
916.708	15660
916.82	15663
916.932	15648
917.044	15595
917.156	15591
917.268	15488
917.38	15443
917.491	15458
917.603	15530
917.715	15477
917.826	15526
917.938	15378
918.049	15306
918.161	15378
918.272	15534
918.384	15538
918.495	15473
918.606	15321
918.717	15169
918.828	15195
918.939	15184
919.05	15097
919.161	15165
919.272	14963
919.383	15039
919.494	15230
919.604	15325
919.715	15195
919.826	15047
919.936	15165
920.047	15233
920.157	15093
920.267	15412
920.378	15146
920.488	15127
920.598	15306
920.708	15374
920.818	15287
920.928	15233
921.038	15412
921.148	15374
921.258	15176
921.368	15001
921.477	14925
921.587	14937
921.697	14689
921.806	14834
921.916	14716
922.025	14602
922.134	14545
922.244	14473
922.353	14602
922.462	14404
922.571	14332
922.68	14107
922.789	14176
922.898	14176
923.007	14153
923.116	14202
923.224	14134
923.333	14024
923.442	13902
923.55	13913
923.659	13921
923.767	14065
923.876	13826
923.984	13993
924.092	13947
924.201	13928
924.309	13864
924.417	13902
924.525	13765
924.633	13746
924.741	14492
924.849	13670
924.956	13674
925.064	13552
925.172	13480
925.279	13495
925.387	13582
925.494	13506
925.602	13620
925.709	13575
925.816	13350
925.924	13441
926.031	13518
926.138	13506
926.245	13396
926.352	13438
926.459	13556
926.566	13529
926.673	13316
926.779	13263
926.886	13232
926.993	13103
927.099	13080
927.206	13084
927.312	13084
927.419	13118
927.525	13095
927.631	13080
927.737	12920
927.843	12932
927.95	12837
928.056	12924
928.162	12932
928.267	12840
928.373	13563
928.479	12928
928.585	12688
928.69	12897
928.796	12916
928.901	12711
929.007	12627
929.112	12802
929.218	12726
929.323	12585
929.428	12555
929.533	12658
929.638	12547
929.743	12555
929.848	12620
929.953	12517
930.058	12486
930.163	12285
930.267	12239
930.372	12346
930.477	12232
930.581	12445
930.685	12289
930.79	12110
930.894	12140
930.998	12102
931.103	12289
931.207	11916
931.311	11847
931.415	11688
931.519	11543
931.623	11486
