Data from test_V78500241_1626.txt Node
Date: Fri Mar 25 15:53:03 CST 2022
User: usil
Spectrometer: V785-0024
Trigger mode: 0
Integration Time (sec): 4.000000E-1
Scans to average: 1
Nonlinearity correction enabled: false
Boxcar width: 0
Storing dark spectrum: false
XAxis mode: Wavelengths
Number of Pixels in Spectrum: 1024
>>>>>Begin Spectral Data<<<<<
801.071	28188
801.214	28265
801.356	27972
801.499	27934
801.641	27816
801.783	27846
801.926	27838
802.068	27793
802.211	27781
802.353	27572
802.496	27530
802.638	27439
802.78	27603
802.923	27401
803.065	27374
803.208	27542
803.35	27420
803.492	27671
803.635	27705
803.777	27576
803.919	27717
804.061	27865
804.204	27732
804.346	27561
804.488	27724
804.63	27690
804.773	27614
804.915	27766
805.057	27819
805.199	27614
805.341	27797
805.483	27964
805.626	27827
805.768	27732
805.91	27766
806.052	28025
806.194	27663
806.336	27960
806.478	27869
806.62	27835
806.762	27873
806.904	28105
807.046	28386
807.188	28462
807.33	28360
807.472	28424
807.614	28265
807.756	28207
807.898	28063
808.04	28074
808.182	28109
808.324	28185
808.465	28230
808.607	28443
808.749	28573
808.891	28573
809.033	28706
809.174	28615
809.316	28409
809.458	28519
809.6	28557
809.741	28725
809.883	28588
810.025	28797
810.166	28759
810.308	28755
810.45	28675
810.591	28668
810.733	28656
810.875	28466
811.016	28508
811.158	28352
811.299	28535
811.441	28725
811.582	28596
811.724	28527
811.865	28325
812.007	28637
812.148	28542
812.29	28436
812.431	28763
812.573	28824
812.714	28984
812.855	29128
812.997	29090
813.138	29292
813.279	29124
813.421	28991
813.562	29022
813.703	28809
813.845	28736
813.986	28459
814.127	28344
814.268	28124
814.41	28314
814.551	28150
814.692	28375
814.833	28188
814.974	28082
815.115	28188
815.256	28120
815.397	28139
815.539	28105
815.68	27838
815.821	27899
815.962	28059
816.103	27884
816.244	27956
816.385	27732
816.526	27713
816.666	27473
816.807	27496
816.948	27523
817.089	27648
817.23	27500
817.371	27648
817.512	27542
817.653	27424
817.793	27393
817.934	27606
818.075	27507
818.216	27526
818.356	27500
818.497	27302
818.638	27268
818.778	27256
818.919	27272
819.06	27340
819.2	27367
819.341	27603
819.481	27488
819.622	27603
819.762	27827
819.903	27831
820.043	27770
820.184	27572
820.324	27686
820.465	27648
820.605	27633
820.746	27519
820.886	27492
821.026	27549
821.167	27606
821.307	27770
821.447	27553
821.588	27340
821.728	27481
821.868	27123
822.008	26963
822.149	26929
822.289	26876
822.429	26659
822.569	26602
822.709	26625
822.849	26613
822.99	26400
823.13	26473
823.27	26488
823.41	26199
823.55	26256
823.69	26252
823.83	26301
823.97	26214
824.11	26176
824.25	26176
824.389	26069
824.529	26202
824.669	26122
824.809	26199
824.949	26191
825.089	26256
825.228	26073
825.368	25970
825.508	26005
825.648	26016
825.787	26115
825.927	26081
826.067	26058
826.206	26088
826.346	26027
826.485	26088
826.625	25936
826.765	26096
826.904	26050
827.044	25822
827.183	25727
827.323	25468
827.462	25826
827.601	25609
827.741	25757
827.88	25685
828.02	25525
828.159	25655
828.298	25814
828.437	25750
828.577	25571
828.716	25746
828.855	25548
828.994	25518
829.134	25369
829.273	25400
829.412	25373
829.551	25339
829.69	25316
829.829	25358
829.968	25491
830.107	25449
830.246	25346
830.385	25460
830.524	25156
830.663	25175
830.802	25110
830.941	24939
831.08	25072
831.219	25122
831.357	25069
831.496	25240
831.635	24943
831.774	24981
831.913	24928
832.051	24825
832.19	24719
832.329	24795
832.467	24802
832.606	24559
832.744	24604
832.883	24635
833.022	24639
833.16	24623
833.299	24798
833.437	24703
833.576	24810
833.714	24783
833.852	24840
833.991	24913
834.129	24840
834.267	24783
834.406	24749
834.544	24878
834.682	24837
834.821	24700
834.959	24920
835.097	24604
835.235	24764
835.373	24798
835.511	24700
835.65	24665
835.788	24582
835.926	24452
836.064	24323
836.202	24486
836.34	24681
836.478	24696
836.615	24502
836.753	24547
836.891	24650
837.029	24673
837.167	24502
837.305	24403
837.443	24540
837.58	24429
837.718	24361
837.856	24433
837.993	24357
838.131	24407
838.269	24273
838.406	24369
838.544	24178
838.681	24034
838.819	23954
838.956	23828
839.094	23752
839.231	23809
839.369	24140
839.506	24136
839.643	24053
839.781	23798
839.918	23764
840.055	23885
840.193	23790
840.33	23771
840.467	23710
840.604	23756
840.742	24117
840.879	23710
841.016	23726
841.153	23661
841.29	23882
841.427	23752
841.564	23775
841.701	23726
841.838	23627
841.975	23699
842.112	23668
842.249	23714
842.385	23505
842.522	23802
842.659	23581
842.796	23570
842.933	23493
843.069	23467
843.206	23379
843.343	23627
843.479	23516
843.616	23592
843.752	23360
843.889	23258
844.025	23436
844.162	23250
844.298	23341
844.435	23356
844.571	23364
844.708	23284
844.844	23299
844.98	23455
845.117	23425
845.253	23292
845.389	23162
845.525	23090
845.661	23132
845.798	22938
845.934	23121
846.07	23018
846.206	23064
846.342	23155
846.478	23022
846.614	22771
846.75	22790
846.886	22698
847.022	22820
847.158	22698
847.294	22797
847.429	22850
847.565	22736
847.701	23029
847.837	22417
847.972	22402
848.108	22683
848.244	22508
848.379	22481
848.515	22493
848.65	22284
848.786	22424
848.921	22390
849.057	22481
849.192	22382
849.328	22394
849.463	22417
849.598	22314
849.734	22265
849.869	22192
850.004	22044
850.14	22116
850.275	22044
850.41	21991
850.545	21991
850.68	22139
850.815	22010
850.95	22044
851.085	22280
851.22	22124
851.355	22116
851.49	22166
851.625	21975
851.76	22200
851.895	22070
852.03	22090
852.165	22204
852.299	22139
852.434	22154
852.569	22169
852.703	22090
852.838	22261
852.973	22215
853.107	22268
853.242	22010
853.376	21850
853.511	21800
853.645	21991
853.78	22105
853.914	22002
854.048	21964
854.183	21911
854.317	21972
854.451	22116
854.585	21861
854.72	21922
854.854	22029
854.988	21956
855.122	21865
855.256	21774
855.39	21846
855.524	21937
855.658	22036
855.792	21907
855.926	21975
856.06	22044
856.194	22002
856.327	21934
856.461	21857
856.595	21831
856.729	21915
856.862	22017
856.996	21968
857.13	22006
857.263	22105
857.397	22021
857.53	21968
857.664	21960
857.797	21979
857.931	21934
858.064	21968
858.197	22044
858.331	21937
858.464	21918
858.597	21888
858.731	21884
858.864	21766
858.997	21808
859.13	21994
859.263	21850
859.396	21979
859.529	21831
859.662	21892
859.795	21979
859.928	22048
860.061	22135
860.194	22010
860.327	21907
860.46	21861
860.592	22002
860.725	22143
860.858	22086
860.99	21994
861.123	21880
861.256	21888
861.388	21953
861.521	22641
861.653	21637
861.786	21698
861.918	21739
862.05	21888
862.183	21701
862.315	21842
862.447	21899
862.58	21873
862.712	21629
862.844	21595
862.976	21698
863.108	21675
863.24	22029
863.372	21648
863.504	21519
863.636	21595
863.768	21576
863.9	21641
864.032	21477
864.164	21534
864.296	21732
864.428	21641
864.559	21686
864.691	21717
864.823	21538
864.954	21656
865.086	21622
865.217	21633
865.349	21363
865.48	21454
865.612	21511
865.743	21580
865.875	21530
866.006	21466
866.137	21606
866.269	21519
866.4	21450
866.531	21321
866.662	21359
866.793	21336
866.924	21530
867.055	21523
867.186	21538
867.317	21435
867.448	21382
867.579	21408
867.71	21325
867.841	21351
867.972	21454
868.103	21431
868.233	21420
868.364	21321
868.495	21564
868.625	21652
868.756	21770
868.886	21629
869.017	21614
869.147	21755
869.278	21869
869.408	21679
869.539	21747
869.669	21705
869.799	21781
869.929	21846
870.06	21755
870.19	21949
870.32	21895
870.45	21960
870.58	22055
870.71	22166
870.84	22268
870.97	22078
871.1	22162
871.23	22253
871.36	22356
871.489	22185
871.619	22265
871.749	22337
871.879	22360
872.008	22413
872.138	22299
872.267	22280
872.397	22154
872.526	22063
872.656	22162
872.785	22276
872.915	22333
873.044	22455
873.173	22398
873.303	22325
873.432	22310
873.561	22371
873.69	22390
873.819	22306
873.948	22299
874.077	22413
874.206	22329
874.335	22303
874.464	22478
874.593	22489
874.722	22360
874.851	22508
874.979	22535
875.108	22592
875.237	22436
875.365	22459
875.494	22565
875.623	22565
875.751	22478
875.88	22466
876.008	22607
876.136	22759
876.265	22930
876.393	22873
876.521	22942
876.65	22965
876.778	23083
876.906	22900
877.034	22721
877.162	22752
877.29	22820
877.418	22942
877.546	22949
877.674	22797
877.802	22782
877.93	22904
878.058	22679
878.185	22786
878.313	22900
878.441	22949
878.568	22805
878.696	22752
878.824	22908
878.951	22896
879.079	23067
879.206	23090
879.333	23025
879.461	22904
879.588	22942
879.715	23060
879.842	23235
879.97	22949
880.097	22729
880.224	22721
880.351	22687
880.478	22580
880.605	22607
880.732	22706
880.859	22843
880.986	22672
881.112	22771
881.239	22557
881.366	22394
881.493	22284
881.619	22284
881.746	22268
881.872	22238
881.999	22238
882.125	22253
882.252	22337
882.378	22303
882.505	22337
882.631	22173
882.757	22048
882.883	22029
883.01	21964
883.136	21888
883.262	21854
883.388	21762
883.514	21903
883.64	22070
883.766	21812
883.892	21835
884.018	21835
884.143	21827
884.269	21854
884.395	21717
884.52	21622
884.646	21591
884.772	21507
884.897	21382
885.023	21583
885.148	21679
885.274	21698
885.399	21717
885.524	21545
885.65	21686
885.775	21561
885.9	21447
886.025	21625
886.15	21641
886.275	21542
886.4	21424
886.525	21511
886.65	21477
886.775	21378
886.9	21614
887.025	21804
887.149	21545
887.274	21443
887.399	21382
887.523	21306
887.648	21233
887.773	21287
887.897	21378
888.021	21393
888.146	21161
888.27	21458
888.395	21496
888.519	21443
888.643	21515
888.767	21370
888.891	21260
889.015	21074
889.139	21218
889.263	21096
889.387	21279
889.511	21329
889.635	21370
889.759	21226
889.883	21184
890.006	21332
890.13	21127
890.254	21001
890.377	21005
890.501	20902
890.624	20944
890.748	20906
890.871	20727
890.995	20735
891.118	20571
891.241	20598
891.364	20743
891.488	20765
891.611	20796
891.734	20674
891.857	20781
891.98	20701
892.103	20621
892.226	20659
892.349	20583
892.471	20454
892.594	20545
892.717	20701
892.839	20537
892.962	20701
893.085	20727
893.207	20693
893.33	20476
893.452	20476
893.575	20693
893.697	20648
893.819	20758
893.941	20788
894.064	20678
894.186	20571
894.308	20579
894.43	20712
894.552	20727
894.674	20663
894.796	20385
894.918	20663
895.04	20522
895.161	20636
895.283	20651
895.405	20590
895.526	20560
895.648	20632
895.769	20556
895.891	20583
896.012	20651
896.134	20609
896.255	20731
896.376	20575
896.498	20499
896.619	20636
896.74	20602
896.861	20583
896.982	20914
897.103	21009
897.224	20819
897.345	20792
897.466	20849
897.587	20819
897.708	20849
897.828	20918
897.949	20804
898.07	20590
898.19	20750
898.311	20834
898.431	20648
898.552	20902
898.672	20948
898.792	20792
898.913	20762
899.033	20689
899.153	20678
899.273	20495
899.393	20571
899.513	20689
899.633	20499
899.753	20613
899.873	20476
899.993	20583
900.113	20492
900.232	20469
900.352	20492
900.472	20400
900.591	20221
900.711	20385
900.83	20210
900.95	20358
901.069	20408
901.189	20199
901.308	20027
901.427	19860
901.546	19883
901.665	19875
901.784	19906
901.904	19769
902.023	19582
902.141	19483
902.26	19411
902.379	19537
902.498	19438
902.617	19297
902.735	19453
902.854	19339
902.973	19327
903.091	19053
903.21	19050
903.328	19008
903.446	18878
903.565	18856
903.683	18863
903.801	18795
903.919	18886
904.038	18844
904.156	18570
904.274	18681
904.392	18585
904.51	18604
904.627	18528
904.745	18707
904.863	18620
904.981	18376
905.098	18243
905.216	18308
905.334	18258
905.451	18247
905.569	18273
905.686	18429
905.803	18285
905.921	18091
906.038	18144
906.155	18095
906.272	18079
906.389	18087
906.506	17859
906.623	17756
906.74	17859
906.857	17726
906.974	17790
907.091	17885
907.208	17893
907.324	17843
907.441	17718
907.557	17623
907.674	17585
907.79	17459
907.907	17505
908.023	17539
908.139	17524
908.256	17429
908.372	17421
908.488	17303
908.604	17280
908.72	17261
908.836	17231
908.952	17239
909.068	17227
909.184	17315
909.3	17296
909.415	17318
909.531	17318
909.647	17014
909.762	16934
909.878	16942
909.993	16965
910.108	16927
910.224	16980
910.339	16949
910.454	16729
910.57	16831
910.685	16698
910.8	16904
910.915	16850
911.03	16831
911.145	16497
911.259	16596
911.374	16523
911.489	16504
911.604	16405
911.718	16234
911.833	16230
911.947	16238
912.062	16120
912.176	16360
912.291	16318
912.405	16272
912.519	16523
912.633	16462
912.748	16265
912.862	16204
912.976	16162
913.09	15964
913.204	16040
913.318	16124
913.431	16204
913.545	16162
913.659	16226
913.772	16002
913.886	15956
914	15797
914.113	15994
914.226	15998
914.34	15945
914.453	15785
914.566	15934
914.68	15903
914.793	15720
914.906	15507
915.019	15412
915.132	15408
915.245	15481
915.358	15515
915.47	15564
915.583	15462
915.696	15507
915.809	15564
915.921	15606
916.034	15507
916.146	15386
916.259	15378
916.371	15466
916.483	15458
916.595	15313
916.708	15336
916.82	15211
916.932	15176
917.044	15138
917.156	15256
917.268	15009
917.38	15089
917.491	15013
917.603	15127
917.715	15226
917.826	15138
917.938	15066
918.049	14956
918.161	15116
918.272	15173
918.384	15233
918.495	15020
918.606	14902
918.717	14975
918.828	14861
918.939	14880
919.05	14743
919.161	14921
919.272	14629
919.383	14781
919.494	14944
919.604	15062
919.715	14952
919.826	14678
919.936	14716
920.047	14906
920.157	14823
920.267	15062
920.378	14682
920.488	14773
920.598	14956
920.708	15058
920.818	14895
920.928	14929
921.038	15081
921.148	15055
921.258	14849
921.368	14739
921.477	14530
921.587	14598
921.697	14366
921.806	14526
921.916	14415
922.025	14237
922.134	14256
922.244	14111
922.353	14313
922.462	14088
922.571	14073
922.68	13917
922.789	13811
922.898	13902
923.007	13795
923.116	13909
923.224	13887
923.333	13769
923.442	13734
923.55	13601
923.659	13712
923.767	13704
923.876	13727
923.984	13681
924.092	13563
924.201	13662
924.309	13575
924.417	13552
924.525	13544
924.633	13609
924.741	14328
924.849	13194
924.956	13403
925.064	13339
925.172	13244
925.279	13285
925.387	13278
925.494	13206
925.602	13320
925.709	13194
925.816	13168
925.924	13202
926.031	13255
926.138	13118
926.245	13179
926.352	13061
926.459	13266
926.566	13244
926.673	13114
926.779	12977
926.886	12977
926.993	12776
927.099	12741
927.206	12795
927.312	12795
927.419	12844
927.525	12806
927.631	12886
927.737	12646
927.843	12726
927.95	12521
928.056	12662
928.162	12642
928.267	12734
928.373	13232
928.479	12738
928.585	12441
928.69	12555
928.796	12563
928.901	12509
929.007	12338
929.112	12521
929.218	12410
929.323	12311
929.428	12323
929.533	12479
929.638	12277
929.743	12220
929.848	12304
929.953	12277
930.058	12152
930.163	12015
930.267	11965
930.372	12110
930.477	12019
930.581	12243
930.685	12095
930.79	11840
930.894	11935
930.998	11790
931.103	11973
931.207	11638
931.311	11570
931.415	11490
931.519	11349
931.623	11208
