Data from test_V78500241_292.txt Node
Date: Fri Mar 25 15:43:49 CST 2022
User: usil
Spectrometer: V785-0024
Trigger mode: 0
Integration Time (sec): 4.000000E-1
Scans to average: 1
Nonlinearity correction enabled: false
Boxcar width: 0
Storing dark spectrum: false
XAxis mode: Wavelengths
Number of Pixels in Spectrum: 1024
>>>>>Begin Spectral Data<<<<<
801.071	29707
801.214	29547
801.356	29258
801.499	29334
801.641	29246
801.783	29250
801.926	29166
802.068	28965
802.211	29113
802.353	28919
802.496	28843
802.638	28866
802.78	28752
802.923	28839
803.065	28752
803.208	28713
803.35	28843
803.492	28991
803.635	29029
803.777	28953
803.919	28999
804.061	29410
804.204	29166
804.346	28972
804.488	28942
804.63	28968
804.773	28801
804.915	28915
805.057	29052
805.199	29056
805.341	29090
805.483	29109
805.626	29025
805.768	28930
805.91	29094
806.052	29216
806.194	29064
806.336	29326
806.478	29048
806.62	29098
806.762	29277
806.904	29459
807.046	29737
807.188	29539
807.33	29589
807.472	29509
807.614	29471
807.756	29482
807.898	29337
808.04	29334
808.182	29311
808.324	29311
808.465	29315
808.607	29543
808.749	29649
808.891	29707
809.033	29931
809.174	29836
809.316	29745
809.458	29684
809.6	29767
809.741	29699
809.883	29843
810.025	29973
810.166	30026
810.308	29916
810.45	30076
810.591	29954
810.733	29790
810.875	29726
811.016	29733
811.158	29596
811.299	29874
811.441	30083
811.582	29920
811.724	29893
811.865	29691
812.007	29653
812.148	29638
812.29	29714
812.431	29874
812.573	30030
812.714	30171
812.855	30247
812.997	30266
813.138	30585
813.279	30414
813.421	30220
813.562	30254
813.703	29916
813.845	29923
813.986	29745
814.127	29570
814.268	29303
814.41	29512
814.551	29372
814.692	29478
814.833	29254
814.974	29204
815.115	29322
815.256	29174
815.397	29231
815.539	29166
815.68	29220
815.821	29128
815.962	29197
816.103	29140
816.244	29086
816.385	28793
816.526	28866
816.666	28622
816.807	28706
816.948	28565
817.089	28672
817.23	28812
817.371	28706
817.512	28599
817.653	28474
817.793	28649
817.934	28653
818.075	28500
818.216	28497
818.356	28348
818.497	28447
818.638	28371
818.778	28246
818.919	28401
819.06	28401
819.2	28299
819.341	28535
819.481	28504
819.622	28599
819.762	28915
819.903	28752
820.043	28729
820.184	28546
820.324	28694
820.465	28767
820.605	28713
820.746	28630
820.886	28577
821.026	28516
821.167	28599
821.307	28607
821.447	28466
821.588	28497
821.728	28188
821.868	28242
822.008	27949
822.149	28021
822.289	27956
822.429	27831
822.569	27671
822.709	27682
822.849	27492
822.99	27420
823.13	27435
823.27	27386
823.41	27359
823.55	27017
823.69	27374
823.83	27306
823.97	27256
824.11	27089
824.25	27070
824.389	27169
824.529	27127
824.669	27169
824.809	27165
824.949	27241
825.089	27260
825.228	27100
825.368	26921
825.508	26883
825.648	26895
825.787	26925
825.927	27108
826.067	26937
826.206	26853
826.346	26971
826.485	26925
826.625	26800
826.765	27020
826.904	26998
827.044	26712
827.183	26606
827.323	26621
827.462	26609
827.601	26765
827.741	26598
827.88	26530
828.02	26511
828.159	26606
828.298	26625
828.437	26655
828.577	26587
828.716	26758
828.855	26499
828.994	26313
829.134	26248
829.273	26309
829.412	26199
829.551	26225
829.69	26294
829.829	26202
829.968	26290
830.107	26290
830.246	26130
830.385	26107
830.524	26122
830.663	26016
830.802	25989
830.941	25734
831.08	25715
831.219	25715
831.357	25784
831.496	26035
831.635	25803
831.774	25822
831.913	25761
832.051	25567
832.19	25620
832.329	25708
832.467	25571
832.606	25479
832.744	25438
832.883	25422
833.022	25411
833.16	25419
833.299	25464
833.437	25495
833.576	25476
833.714	25502
833.852	25571
833.991	25651
834.129	25651
834.267	25483
834.406	25643
834.544	25609
834.682	25628
834.821	25506
834.959	25620
835.097	25422
835.235	25556
835.373	25445
835.511	25358
835.65	25343
835.788	25293
835.926	25099
836.064	25053
836.202	25221
836.34	25350
836.478	25537
836.615	25278
836.753	25350
836.891	25369
837.029	25339
837.167	25312
837.305	25118
837.443	25129
837.58	25091
837.718	25190
837.856	25122
837.993	25042
838.131	25084
838.269	25069
838.406	25019
838.544	24943
838.681	24745
838.819	24681
838.956	24585
839.094	24597
839.231	24490
839.369	24589
839.506	24947
839.643	24726
839.781	24544
839.918	24490
840.055	24528
840.193	24395
840.33	24467
840.467	24574
840.604	24551
840.742	24673
840.879	24384
841.016	24437
841.153	24330
841.29	24414
841.427	24414
841.564	24429
841.701	24391
841.838	24441
841.975	24262
842.112	24323
842.249	24311
842.385	24129
842.522	24365
842.659	24235
842.796	24140
842.933	24178
843.069	24091
843.206	24098
843.343	24057
843.479	24045
843.616	24079
843.752	23950
843.889	24011
844.025	23984
844.162	23836
844.298	23969
844.435	23889
844.571	23821
844.708	23855
844.844	23977
844.98	23939
845.117	23980
845.253	23790
845.389	23821
845.525	23771
845.661	23710
845.798	23714
845.934	23722
846.07	23551
846.206	23604
846.342	23703
846.478	23745
846.614	23501
846.75	23292
846.886	23231
847.022	23330
847.158	23334
847.294	23318
847.429	23197
847.565	23273
847.701	23512
847.837	23064
847.972	23033
848.108	22999
848.244	23029
848.379	22953
848.515	22968
848.65	22850
848.786	22854
848.921	22835
849.057	22995
849.192	23025
849.328	22889
849.463	22881
849.598	22896
849.734	22862
849.869	22755
850.004	22721
850.14	22565
850.275	22683
850.41	22618
850.545	22527
850.68	22504
850.815	22702
850.95	22535
851.085	22835
851.22	22729
851.355	22683
851.49	22481
851.625	22664
851.76	22622
851.895	22478
852.03	22481
852.165	22660
852.299	22660
852.434	22740
852.569	22634
852.703	22535
852.838	22637
852.973	22744
853.107	22668
853.242	22584
853.376	22325
853.511	22371
853.645	22424
853.78	22466
853.914	22367
854.048	22417
854.183	22303
854.317	22432
854.451	22577
854.585	22436
854.72	22481
854.854	22466
854.988	22432
855.122	22379
855.256	22268
855.39	22246
855.524	22413
855.658	22409
855.792	22261
855.926	22379
856.06	22462
856.194	22508
856.327	22428
856.461	22325
856.595	22314
856.729	22424
856.862	22440
856.996	22417
857.13	22493
857.263	22489
857.397	22538
857.53	22337
857.664	22367
857.797	22402
857.931	22550
858.064	22516
858.197	22542
858.331	22352
858.464	22238
858.597	22166
858.731	22265
858.864	22299
858.997	22295
859.13	22295
859.263	22352
859.396	22459
859.529	22382
859.662	22398
859.795	22405
859.928	22462
860.061	22436
860.194	22599
860.327	22348
860.46	22333
860.592	22531
860.725	22478
860.858	22398
860.99	22303
861.123	22200
861.256	22367
861.388	22367
861.521	23003
861.653	22234
861.786	22166
861.918	22226
862.05	22394
862.183	22257
862.315	22265
862.447	22443
862.58	22284
862.712	22112
862.844	22006
862.976	22162
863.108	22124
863.24	22443
863.372	22010
863.504	22006
863.636	22067
863.768	22109
863.9	21895
864.032	21975
864.164	21998
864.296	22032
864.428	22131
864.559	22090
864.691	21991
864.823	22093
864.954	22109
865.086	21991
865.217	21945
865.349	21819
865.48	21850
865.612	21953
865.743	22067
865.875	21934
866.006	21808
866.137	21838
866.269	22002
866.4	21903
866.531	21994
866.662	21770
866.793	21751
866.924	21800
867.055	21907
867.186	21892
867.317	21720
867.448	21808
867.579	21770
867.71	21785
867.841	21736
867.972	21774
868.103	21911
868.233	22082
868.364	21861
868.495	21941
868.625	22055
868.756	22082
868.886	21949
869.017	21979
869.147	22131
869.278	22109
869.408	22139
869.539	22150
869.669	22162
869.799	22070
869.929	22219
870.06	22131
870.19	22413
870.32	22348
870.45	22542
870.58	22596
870.71	22550
870.84	22565
870.97	22493
871.1	22409
871.23	22641
871.36	22622
871.489	22664
871.619	22634
871.749	22649
871.879	22702
872.008	22736
872.138	22675
872.267	22668
872.397	22481
872.526	22523
872.656	22440
872.785	22527
872.915	22588
873.044	22774
873.173	22622
873.303	22824
873.432	22801
873.561	22828
873.69	22618
873.819	22694
873.948	22744
874.077	22687
874.206	22588
874.335	22748
874.464	22812
874.593	22972
874.722	22805
874.851	23022
874.979	22968
875.108	23071
875.237	22790
875.365	22694
875.494	22816
875.623	22915
875.751	22938
875.88	22991
876.008	23079
876.136	23037
876.265	23292
876.393	23463
876.521	23417
876.65	23383
876.778	23296
876.906	23223
877.034	23288
877.162	23200
877.29	23231
877.418	23280
877.546	23204
877.674	23189
877.802	23288
877.93	23166
878.058	23212
878.185	23124
878.313	23288
878.441	23231
878.568	23117
878.696	23109
878.824	23204
878.951	23379
879.079	23322
879.206	23604
879.333	23387
879.461	23242
879.588	23406
879.715	23448
879.842	23581
879.97	23387
880.097	23014
880.224	22946
880.351	23083
880.478	23064
880.605	22965
880.732	22999
880.859	23128
880.986	23025
881.112	23067
881.239	23003
881.366	22862
881.493	22691
881.619	22683
881.746	22622
881.872	22634
881.999	22641
882.125	22592
882.252	22615
882.378	22546
882.505	22683
882.631	22504
882.757	22489
882.883	22394
883.01	22360
883.136	22333
883.262	22223
883.388	22226
883.514	22341
883.64	22424
883.766	22310
883.892	22090
884.018	22196
884.143	22223
884.269	22398
884.395	21953
884.52	21895
884.646	21972
884.772	21930
884.897	21892
885.023	21873
885.148	22090
885.274	22128
885.399	21964
885.524	21880
885.65	22036
885.775	21968
885.9	21888
886.025	21975
886.15	21975
886.275	21865
886.4	21888
886.525	21895
886.65	21918
886.775	21895
886.9	22029
887.025	22162
887.149	22032
887.274	21770
887.399	21686
887.523	21789
887.648	21618
887.773	21739
887.897	21724
888.021	21766
888.146	21583
888.27	21762
888.395	21709
888.519	21660
888.643	21701
888.767	21751
888.891	21644
889.015	21488
889.139	21610
889.263	21481
889.387	21599
889.511	21759
889.635	21644
889.759	21477
889.883	21408
890.006	21595
890.13	21538
890.254	21287
890.377	21241
890.501	21081
890.624	21203
890.748	21096
890.871	21077
890.995	21138
891.118	21032
891.241	21119
891.364	21020
891.488	21214
891.611	20982
891.734	21127
891.857	21116
891.98	21055
892.103	21039
892.226	21138
892.349	21005
892.471	20819
892.594	20902
892.717	21039
892.839	20872
892.962	20838
893.085	20948
893.207	20941
893.33	20861
893.452	20948
893.575	20811
893.697	20864
893.819	21024
893.941	21020
894.064	21074
894.186	20937
894.308	20800
894.43	21039
894.552	20998
894.674	21020
894.796	20849
894.918	20781
895.04	20895
895.161	20990
895.283	20956
895.405	20883
895.526	21017
895.648	20868
895.769	20857
895.891	20887
896.012	20963
896.134	20941
896.255	20914
896.376	20933
896.498	20921
896.619	20948
896.74	20921
896.861	21020
896.982	21268
897.103	21367
897.224	21241
897.345	21169
897.466	21085
897.587	21195
897.708	21165
897.828	21123
897.949	21055
898.07	20937
898.19	21043
898.311	21131
898.431	20994
898.552	21039
898.672	21142
898.792	21142
898.913	20982
899.033	20838
899.153	20876
899.273	20731
899.393	20811
899.513	20758
899.633	20849
899.753	20918
899.873	20807
899.993	20750
900.113	20811
900.232	20731
900.352	20659
900.472	20621
900.591	20621
900.711	20625
900.83	20564
900.95	20689
901.069	20720
901.189	20484
901.308	20263
901.427	20180
901.546	20077
901.665	20119
901.784	20084
901.904	20008
902.023	19913
902.141	19746
902.26	19620
902.379	19685
902.498	19635
902.617	19605
902.735	19685
902.854	19537
902.973	19586
903.091	19327
903.21	19327
903.328	19228
903.446	19179
903.565	19091
903.683	19190
903.801	19088
903.919	19008
904.038	18916
904.156	19019
904.274	18951
904.392	18795
904.51	18703
904.627	18817
904.745	18852
904.863	18894
904.981	18703
905.098	18616
905.216	18570
905.334	18532
905.451	18509
905.569	18460
905.686	18563
905.803	18403
905.921	18281
906.038	18437
906.155	18239
906.272	18167
906.389	18205
906.506	18041
906.623	18136
906.74	17988
906.857	17912
906.974	17908
907.091	17980
907.208	18140
907.324	18034
907.441	17874
907.557	17824
907.674	17748
907.79	17672
907.907	17695
908.023	17699
908.139	17726
908.256	17589
908.372	17627
908.488	17646
908.604	17532
908.72	17414
908.836	17463
908.952	17318
909.068	17516
909.184	17501
909.3	17433
909.415	17429
909.531	17307
909.647	17140
909.762	17094
909.878	17075
909.993	17136
910.108	16965
910.224	17037
910.339	17124
910.454	16961
910.57	16949
910.685	16847
910.8	17174
910.915	17018
911.03	16949
911.145	16752
911.259	16740
911.374	16713
911.489	16558
911.604	16565
911.718	16443
911.833	16348
911.947	16333
912.062	16276
912.176	16398
912.291	16512
912.405	16500
912.519	16607
912.633	16523
912.748	16497
912.862	16379
912.976	16230
913.09	16067
913.204	16143
913.318	16318
913.431	16333
913.545	16196
913.659	16371
913.772	16169
913.886	16040
914	16036
914.113	16067
914.226	16093
914.34	16063
914.453	15880
914.566	15994
914.68	15888
914.793	15747
914.906	15637
915.019	15629
915.132	15561
915.245	15679
915.358	15618
915.47	15591
915.583	15675
915.696	15629
915.809	15717
915.921	15755
916.034	15481
916.146	15507
916.259	15469
916.371	15572
916.483	15595
916.595	15466
916.708	15389
916.82	15408
916.932	15454
917.044	15393
917.156	15382
917.268	15207
917.38	15176
917.491	15222
917.603	15211
917.715	15386
917.826	15268
917.938	15093
918.049	15108
918.161	15157
918.272	15264
918.384	15310
918.495	15218
918.606	15028
918.717	14960
918.828	14986
918.939	15017
919.05	14891
919.161	14990
919.272	14705
919.383	14845
919.494	15036
919.604	15211
919.715	14998
919.826	14944
919.936	14906
920.047	14982
920.157	14937
920.267	15161
920.378	14830
920.488	14944
920.598	14982
920.708	15138
920.818	15104
920.928	15097
921.038	15222
921.148	15127
921.258	14849
921.368	14724
921.477	14670
921.587	14613
921.697	14454
921.806	14648
921.916	14446
922.025	14389
922.134	14317
922.244	14282
922.353	14290
922.462	14206
922.571	14100
922.68	13925
922.789	13909
922.898	13989
923.007	13795
923.116	13845
923.224	13769
923.333	13807
923.442	13723
923.55	13731
923.659	13769
923.767	13738
923.876	13734
923.984	13674
924.092	13689
924.201	13689
924.309	13620
924.417	13655
924.525	13518
924.633	13552
924.741	14522
924.849	13377
924.956	13502
925.064	13282
925.172	13171
925.279	13255
925.387	13278
925.494	13270
925.602	13327
925.709	13392
925.816	13187
925.924	13179
926.031	13324
926.138	13168
926.245	13240
926.352	13152
926.459	13263
926.566	13278
926.673	13149
926.779	13023
926.886	13061
926.993	12844
927.099	12825
927.206	12730
927.312	12825
927.419	12897
927.525	12840
927.631	12829
927.737	12730
927.843	12620
927.95	12467
928.056	12681
928.162	12722
928.267	12688
928.373	13274
928.479	12726
928.585	12414
928.69	12669
928.796	12620
928.901	12536
929.007	12334
929.112	12471
929.218	12506
929.323	12350
929.428	12365
929.533	12456
929.638	12334
929.743	12281
929.848	12300
929.953	12266
930.058	12239
930.163	12106
930.267	12106
930.372	12167
930.477	11973
930.581	12148
930.685	12121
930.79	11954
930.894	11920
930.998	11885
931.103	11958
931.207	11608
931.311	11608
931.415	11478
931.519	11341
931.623	11239
