Data from test_V78500241_2759.txt Node
Date: Fri Mar 25 16:00:54 CST 2022
User: usil
Spectrometer: V785-0024
Trigger mode: 0
Integration Time (sec): 4.000000E-1
Scans to average: 1
Nonlinearity correction enabled: false
Boxcar width: 0
Storing dark spectrum: false
XAxis mode: Wavelengths
Number of Pixels in Spectrum: 1024
>>>>>Begin Spectral Data<<<<<
801.071	29025
801.214	28812
801.356	28538
801.499	28611
801.641	28447
801.783	28481
801.926	28554
802.068	28459
802.211	28440
802.353	28265
802.496	28341
802.638	28265
802.78	28112
802.923	28131
803.065	28109
803.208	28185
803.35	28143
803.492	28314
803.635	28546
803.777	28356
803.919	28455
804.061	28877
804.204	28489
804.346	28367
804.488	28257
804.63	28265
804.773	28405
804.915	28542
805.057	28561
805.199	28421
805.341	28516
805.483	28618
805.626	28557
805.768	28481
805.91	28641
806.052	28592
806.194	28432
806.336	28774
806.478	28637
806.62	28607
806.762	28778
806.904	28904
807.046	29181
807.188	28923
807.33	29006
807.472	28976
807.614	29102
807.756	29014
807.898	28904
808.04	28850
808.182	28824
808.324	29071
808.465	29102
808.607	29212
808.749	29258
808.891	29425
809.033	29611
809.174	29383
809.316	29280
809.458	29258
809.6	29326
809.741	29414
809.883	29425
810.025	29490
810.166	29501
810.308	29493
810.45	29547
810.591	29562
810.733	29463
810.875	29208
811.016	29185
811.158	29254
811.299	29402
811.441	29539
811.582	29463
811.724	29318
811.865	29322
812.007	29220
812.148	29299
812.29	29258
812.431	29364
812.573	29558
812.714	29649
812.855	29756
812.997	29950
813.138	29882
813.279	29889
813.421	29760
813.562	29745
813.703	29726
813.845	29592
813.986	29349
814.127	29029
814.268	29022
814.41	29067
814.551	29022
814.692	29109
814.833	29151
814.974	28911
815.115	29064
815.256	28812
815.397	28972
815.539	29029
815.68	28885
815.821	28694
815.962	28873
816.103	28946
816.244	28869
816.385	28744
816.526	28592
816.666	28428
816.807	28310
816.948	28398
817.089	28382
817.23	28318
817.371	28401
817.512	28424
817.653	28356
817.793	28344
817.934	28299
818.075	28432
818.216	28466
818.356	28344
818.497	28162
818.638	28101
818.778	27926
818.919	28173
819.06	28135
819.2	28226
819.341	28356
819.481	28314
819.622	28466
819.762	28839
819.903	28618
820.043	28557
820.184	28603
820.324	28512
820.465	28424
820.605	28554
820.746	28462
820.886	28409
821.026	28303
821.167	28382
821.307	28615
821.447	28462
821.588	28268
821.728	28185
821.868	27979
822.008	27930
822.149	27880
822.289	27812
822.429	27583
822.569	27549
822.709	27663
822.849	27313
822.99	27397
823.13	27397
823.27	27249
823.41	27245
823.55	27005
823.69	27119
823.83	27161
823.97	27203
824.11	26960
824.25	26921
824.389	27036
824.529	27005
824.669	27013
824.809	27116
824.949	27096
825.089	27138
825.228	27096
825.368	26872
825.508	26838
825.648	26834
825.787	26910
825.927	26899
826.067	26998
826.206	26883
826.346	27005
826.485	26754
826.625	26918
826.765	27017
826.904	26857
827.044	26743
827.183	26686
827.323	26602
827.462	26564
827.601	26636
827.741	26598
827.88	26667
828.02	26625
828.159	26492
828.298	26579
828.437	26678
828.577	26469
828.716	26746
828.855	26545
828.994	26305
829.134	26370
829.273	26275
829.412	26271
829.551	26233
829.69	26195
829.829	26172
829.968	26366
830.107	26343
830.246	26313
830.385	26298
830.524	26180
830.663	26210
830.802	25947
830.941	25932
831.08	25803
831.219	25921
831.357	26046
831.496	26096
831.635	25765
831.774	25837
831.913	25784
832.051	25700
832.19	25693
832.329	25567
832.467	25571
832.606	25537
832.744	25495
832.883	25597
833.022	25578
833.16	25438
833.299	25586
833.437	25487
833.576	25708
833.714	25601
833.852	25689
833.991	25590
834.129	25765
834.267	25677
834.406	25575
834.544	25594
834.682	25601
834.821	25643
834.959	25643
835.097	25552
835.235	25704
835.373	25605
835.511	25548
835.65	25438
835.788	25438
835.926	25320
836.064	25419
836.202	25388
836.34	25468
836.478	25506
836.615	25479
836.753	25483
836.891	25441
837.029	25483
837.167	25403
837.305	25388
837.443	25362
837.58	25324
837.718	25354
837.856	25209
837.993	25164
838.131	25247
838.269	25046
838.406	25069
838.544	25057
838.681	24989
838.819	24894
838.956	24894
839.094	24757
839.231	24798
839.369	24962
839.506	25053
839.643	24913
839.781	24665
839.918	24620
840.055	24745
840.193	24578
840.33	24673
840.467	24696
840.604	24806
840.742	24943
840.879	24513
841.016	24627
841.153	24479
841.29	24635
841.427	24471
841.564	24703
841.701	24566
841.838	24669
841.975	24517
842.112	24650
842.249	24498
842.385	24323
842.522	24559
842.659	24521
842.796	24414
842.933	24338
843.069	24338
843.206	24213
843.343	24559
843.479	24391
843.616	24361
843.752	24152
843.889	24136
844.025	24448
844.162	24125
844.298	24247
844.435	24285
844.571	24285
844.708	24190
844.844	24372
844.98	24144
845.117	24205
845.253	23996
845.389	23980
845.525	24083
845.661	24106
845.798	23790
845.934	23977
846.07	23821
846.206	23961
846.342	23931
846.478	23904
846.614	23718
846.75	23524
846.886	23684
847.022	23524
847.158	23691
847.294	23649
847.429	23589
847.565	23543
847.701	23756
847.837	23440
847.972	23292
848.108	23497
848.244	23471
848.379	23109
848.515	23189
848.65	23155
848.786	23303
848.921	23189
849.057	23349
849.192	23189
849.328	23185
849.463	23246
849.598	23193
849.734	23204
849.869	23003
850.004	22972
850.14	22930
850.275	23003
850.41	22953
850.545	22938
850.68	22896
850.815	22927
850.95	23029
851.085	23128
851.22	23098
851.355	22949
851.49	22927
851.625	22892
851.76	22972
851.895	22877
852.03	22968
852.165	22987
852.299	22961
852.434	23090
852.569	23006
852.703	22885
852.838	23010
852.973	23212
853.107	23025
853.242	22953
853.376	22854
853.511	22786
853.645	22862
853.78	22839
853.914	22809
854.048	22771
854.183	22740
854.317	22767
854.451	23075
854.585	22847
854.72	22786
854.854	22942
854.988	22755
855.122	22809
855.256	22649
855.39	22843
855.524	22866
855.658	22881
855.792	22759
855.926	22809
856.06	22839
856.194	22957
856.327	22626
856.461	22611
856.595	22603
856.729	22694
856.862	22953
856.996	22850
857.13	22896
857.263	22847
857.397	22748
857.53	22930
857.664	22839
857.797	22759
857.931	22942
858.064	22816
858.197	22961
858.331	22691
858.464	22592
858.597	22736
858.731	22668
858.864	22713
858.997	22740
859.13	22683
859.263	22744
859.396	22900
859.529	22740
859.662	22812
859.795	22713
859.928	22831
860.061	22873
860.194	23003
860.327	22835
860.46	22816
860.592	22961
860.725	23022
860.858	22900
860.99	22782
861.123	22748
861.256	22683
861.388	22755
861.521	23406
861.653	22706
861.786	22584
861.918	22527
862.05	22717
862.183	22736
862.315	22816
862.447	22752
862.58	22713
862.712	22584
862.844	22421
862.976	22512
863.108	22592
863.24	22999
863.372	22398
863.504	22561
863.636	22653
863.768	22550
863.9	22512
864.032	22417
864.164	22497
864.296	22325
864.428	22550
864.559	22565
864.691	22584
864.823	22603
864.954	22459
865.086	22481
865.217	22386
865.349	22455
865.48	22348
865.612	22398
865.743	22466
865.875	22436
866.006	22382
866.137	22443
866.269	22280
866.4	22375
866.531	22204
866.662	22246
866.793	22215
866.924	22219
867.055	22268
867.186	22253
867.317	22226
867.448	22154
867.579	22257
867.71	22249
867.841	22188
867.972	22386
868.103	22200
868.233	22234
868.364	22341
868.495	22493
868.625	22512
868.756	22565
868.886	22402
869.017	22443
869.147	22535
869.278	22660
869.408	22474
869.539	22607
869.669	22592
869.799	22504
869.929	22660
870.06	22626
870.19	22801
870.32	22790
870.45	22847
870.58	23094
870.71	22949
870.84	23102
870.97	22869
871.1	23006
871.23	23140
871.36	23117
871.489	23006
871.619	23048
871.749	23193
871.879	23212
872.008	23181
872.138	23086
872.267	23147
872.397	23014
872.526	22946
872.656	23022
872.785	23056
872.915	23064
873.044	23124
873.173	23109
873.303	23227
873.432	23265
873.561	23303
873.69	23162
873.819	23223
873.948	23162
874.077	23185
874.206	23071
874.335	23200
874.464	23299
874.593	23417
874.722	23299
874.851	23391
874.979	23292
875.108	23387
875.237	23208
875.365	23288
875.494	23273
875.623	23414
875.751	23387
875.88	23531
876.008	23539
876.136	23551
876.265	23733
876.393	23828
876.521	23855
876.65	23786
876.778	23707
876.906	23684
877.034	23649
877.162	23741
877.29	23627
877.418	23695
877.546	23741
877.674	23733
877.802	23722
877.93	23707
878.058	23611
878.185	23486
878.313	23642
878.441	23653
878.568	23444
878.696	23672
878.824	23649
878.951	23756
879.079	23707
879.206	24136
879.333	23992
879.461	23897
879.588	23798
879.715	23802
879.842	23923
879.97	23786
880.097	23703
880.224	23661
880.351	23615
880.478	23642
880.605	23471
880.732	23531
880.859	23668
880.986	23623
881.112	23482
881.239	23360
881.366	23311
881.493	23197
881.619	23178
881.746	23174
881.872	23060
881.999	23098
882.125	22919
882.252	23018
882.378	22976
882.505	23250
882.631	22987
882.757	22767
882.883	22831
883.01	22782
883.136	22622
883.262	22653
883.388	22535
883.514	22679
883.64	22763
883.766	22755
883.892	22523
884.018	22580
884.143	22820
884.269	22698
884.395	22516
884.52	22314
884.646	22493
884.772	22318
884.897	22299
885.023	22455
885.148	22436
885.274	22424
885.399	22447
885.524	22443
885.65	22367
885.775	22417
885.9	22310
886.025	22470
886.15	22390
886.275	22226
886.4	22207
886.525	22443
886.65	22287
886.775	22299
886.9	22443
887.025	22565
887.149	22318
887.274	22147
887.399	22112
887.523	22200
887.648	22109
887.773	22070
887.897	22154
888.021	22109
888.146	22150
888.27	22310
888.395	22166
888.519	22150
888.643	22211
888.767	22112
888.891	22101
889.015	21956
889.139	21983
889.263	21918
889.387	21907
889.511	22139
889.635	22074
889.759	21892
889.883	21812
890.006	21968
890.13	21972
890.254	21759
890.377	21907
890.501	21610
890.624	21603
890.748	21663
890.871	21492
890.995	21454
891.118	21393
891.241	21534
891.364	21485
891.488	21557
891.611	21488
891.734	21386
891.857	21439
891.98	21504
892.103	21583
892.226	21511
892.349	21359
892.471	21370
892.594	21291
892.717	21405
892.839	21340
892.962	21405
893.085	21363
893.207	21302
893.33	21233
893.452	21287
893.575	21336
893.697	21325
893.819	21462
893.941	21488
894.064	21420
894.186	21275
894.308	21207
894.43	21450
894.552	21447
894.674	21416
894.796	21157
894.918	21241
895.04	21329
895.161	21222
895.283	21302
895.405	21306
895.526	21351
895.648	21207
895.769	21252
895.891	21359
896.012	21363
896.134	21374
896.255	21272
896.376	21226
896.498	21260
896.619	21268
896.74	21325
896.861	21424
896.982	21667
897.103	21789
897.224	21622
897.345	21534
897.466	21488
897.587	21534
897.708	21648
897.828	21500
897.949	21462
898.07	21340
898.19	21473
898.311	21534
898.431	21492
898.552	21667
898.672	21641
898.792	21568
898.913	21542
899.033	21313
899.153	21272
899.273	21237
899.393	21173
899.513	21329
899.633	21340
899.753	21252
899.873	21112
899.993	21188
900.113	21237
900.232	21112
900.352	21188
900.472	21043
900.591	20998
900.711	21074
900.83	20986
900.95	21142
901.069	21043
901.189	20868
901.308	20724
901.427	20575
901.546	20613
901.665	20541
901.784	20648
901.904	20465
902.023	20362
902.141	20130
902.26	20145
902.379	20134
902.498	20107
902.617	20005
902.735	20206
902.854	20168
902.973	20016
903.091	19712
903.21	19639
903.328	19719
903.446	19590
903.565	19578
903.683	19567
903.801	19419
903.919	19460
904.038	19518
904.156	19217
904.274	19457
904.392	19225
904.51	19278
904.627	19244
904.745	19343
904.863	19339
904.981	19069
905.098	18966
905.216	18973
905.334	18897
905.451	19015
905.569	18928
905.686	19053
905.803	18913
905.921	18719
906.038	18924
906.155	18791
906.272	18650
906.389	18642
906.506	18456
906.623	18555
906.74	18460
906.857	18327
906.974	18308
907.091	18460
907.208	18559
907.324	18502
907.441	18384
907.557	18220
907.674	18239
907.79	18072
907.907	18114
908.023	18232
908.139	18323
908.256	18174
908.372	18083
908.488	18106
908.604	17973
908.72	17889
908.836	17923
908.952	17824
909.068	17824
909.184	18053
909.3	17832
909.415	17878
909.531	17931
909.647	17672
909.762	17566
909.878	17532
909.993	17638
910.108	17539
910.224	17570
910.339	17570
910.454	17376
910.57	17364
910.685	17349
910.8	17623
910.915	17471
911.03	17372
911.145	17197
911.259	17204
911.374	17060
911.489	17045
911.604	17003
911.718	16900
911.833	16858
911.947	16828
912.062	16694
912.176	16892
912.291	16820
912.405	16801
912.519	17075
912.633	16980
912.748	16835
912.862	16774
912.976	16725
913.09	16596
913.204	16694
913.318	16694
913.431	16831
913.545	16767
913.659	16702
913.772	16717
913.886	16481
914	16527
914.113	16542
914.226	16599
914.34	16535
914.453	16386
914.566	16485
914.68	16333
914.793	16314
914.906	16238
915.019	16055
915.132	15994
915.245	16097
915.358	16169
915.47	16192
915.583	15983
915.696	16086
915.809	16147
915.921	16185
916.034	16097
916.146	16010
916.259	15937
916.371	16029
916.483	15987
916.595	15838
916.708	15937
916.82	15823
916.932	15846
917.044	15797
917.156	15751
917.268	15622
917.38	15713
917.491	15751
917.603	15698
917.715	15793
917.826	15785
917.938	15599
918.049	15500
918.161	15591
918.272	15850
918.384	15709
918.495	15580
918.606	15351
918.717	15332
918.828	15439
918.939	15507
919.05	15359
919.161	15424
919.272	15252
919.383	15195
919.494	15401
919.604	15698
919.715	15431
919.826	15302
919.936	15294
920.047	15431
920.157	15374
920.267	15477
920.378	15389
920.488	15302
920.598	15439
920.708	15580
920.818	15488
920.928	15450
921.038	15686
921.148	15690
921.258	15272
921.368	15222
921.477	15108
921.587	15024
921.697	14986
921.806	15017
921.916	14925
922.025	14796
922.134	14811
922.244	14727
922.353	14739
922.462	14564
922.571	14537
922.68	14377
922.789	14282
922.898	14415
923.007	14286
923.116	14370
923.224	14309
923.333	14370
923.442	14214
923.55	14111
923.659	14145
923.767	14191
923.876	14107
923.984	14221
924.092	14107
924.201	14039
924.309	14084
924.417	14035
924.525	13993
924.633	13978
924.741	14830
924.849	13807
924.956	13921
925.064	13772
925.172	13670
925.279	13757
925.387	13708
925.494	13681
925.602	13845
925.709	13712
925.816	13693
925.924	13681
926.031	13655
926.138	13651
926.245	13780
926.352	13578
926.459	13552
926.566	13651
926.673	13632
926.779	13441
926.886	13518
926.993	13339
927.099	13289
927.206	13240
927.312	13244
927.419	13209
927.525	13263
927.631	13247
927.737	13107
927.843	13088
927.95	12993
928.056	12977
928.162	13107
928.267	13069
928.373	13670
928.479	13141
928.585	12993
928.69	13103
928.796	13031
928.901	12932
929.007	12673
929.112	12901
929.218	12920
929.323	12810
929.428	12753
929.533	12897
929.638	12597
929.743	12738
929.848	12703
929.953	12623
930.058	12608
930.163	12384
930.267	12494
930.372	12593
930.477	12388
930.581	12604
930.685	12467
930.79	12304
930.894	12369
930.998	12224
931.103	12369
931.207	12110
931.311	12011
931.415	11931
931.519	11775
931.623	11623
