Data from test_V78500241_2806.txt Node
Date: Fri Mar 25 16:01:14 CST 2022
User: usil
Spectrometer: V785-0024
Trigger mode: 0
Integration Time (sec): 4.000000E-1
Scans to average: 1
Nonlinearity correction enabled: false
Boxcar width: 0
Storing dark spectrum: false
XAxis mode: Wavelengths
Number of Pixels in Spectrum: 1024
>>>>>Begin Spectral Data<<<<<
801.071	29124
801.214	29124
801.356	28847
801.499	28759
801.641	28664
801.783	28516
801.926	28782
802.068	28584
802.211	28717
802.353	28717
802.496	28401
802.638	28443
802.78	28348
802.923	28238
803.065	28257
803.208	28379
803.35	28322
803.492	28557
803.635	28561
803.777	28512
803.919	28664
804.061	28892
804.204	28637
804.346	28504
804.488	28386
804.63	28736
804.773	28641
804.915	28706
805.057	28774
805.199	28736
805.341	28763
805.483	28881
805.626	28934
805.768	28710
805.91	28740
806.052	28752
806.194	28733
806.336	28999
806.478	28816
806.62	28850
806.762	28934
806.904	29056
807.046	29360
807.188	29193
807.33	29296
807.472	29322
807.614	29181
807.756	29406
807.898	29044
808.04	29025
808.182	29147
808.324	29067
808.465	29037
808.607	29410
808.749	29714
808.891	29573
809.033	29630
809.174	29570
809.316	29459
809.458	29482
809.6	29429
809.741	29543
809.883	29668
810.025	29874
810.166	29843
810.308	29687
810.45	29668
810.591	29733
810.733	29497
810.875	29566
811.016	29433
811.158	29383
811.299	29657
811.441	29535
811.582	29661
811.724	29520
811.865	29402
812.007	29467
812.148	29474
812.29	29630
812.431	29794
812.573	29729
812.714	30049
812.855	30209
812.997	30148
813.138	30136
813.279	30270
813.421	30015
813.562	30011
813.703	29859
813.845	29961
813.986	29520
814.127	29299
814.268	29254
814.41	29280
814.551	29204
814.692	29208
814.833	29067
814.974	29220
815.115	29284
815.256	29094
815.397	29128
815.539	29086
815.68	28976
815.821	28984
815.962	28984
816.103	29113
816.244	28892
816.385	28847
816.526	28968
816.666	28672
816.807	28580
816.948	28641
817.089	28691
817.23	28550
817.371	28538
817.512	28554
817.653	28542
817.793	28516
817.934	28417
818.075	28569
818.216	28683
818.356	28546
818.497	28573
818.638	28295
818.778	28276
818.919	28219
819.06	28314
819.2	28455
819.341	28557
819.481	28569
819.622	28801
819.762	28984
819.903	28812
820.043	28713
820.184	28630
820.324	28664
820.465	28710
820.605	28683
820.746	28637
820.886	28622
821.026	28675
821.167	28702
821.307	28752
821.447	28569
821.588	28504
821.728	28413
821.868	28158
822.008	28090
822.149	28067
822.289	27998
822.429	27816
822.569	27778
822.709	27770
822.849	27538
822.99	27709
823.13	27564
823.27	27477
823.41	27435
823.55	27351
823.69	27466
823.83	27382
823.97	27424
824.11	27226
824.25	27131
824.389	27233
824.529	27321
824.669	27203
824.809	27408
824.949	27298
825.089	27298
825.228	27469
825.368	27154
825.508	27135
825.648	27142
825.787	27116
825.927	27176
826.067	27214
826.206	27051
826.346	27218
826.485	27230
826.625	27173
826.765	27226
826.904	27131
827.044	26914
827.183	26895
827.323	26914
827.462	26823
827.601	26883
827.741	26792
827.88	26861
828.02	26815
828.159	26842
828.298	26960
828.437	26940
828.577	27005
828.716	26899
828.855	26811
828.994	26590
829.134	26590
829.273	26518
829.412	26511
829.551	26503
829.69	26590
829.829	26556
829.968	26663
830.107	26526
830.246	26564
830.385	26495
830.524	26438
830.663	26396
830.802	26248
830.941	26069
831.08	26077
831.219	26214
831.357	26305
831.496	26267
831.635	26161
831.774	26092
831.913	25970
832.051	26008
832.19	25845
832.329	25974
832.467	25944
832.606	25837
832.744	25753
832.883	25906
833.022	25879
833.16	25791
833.299	25963
833.437	25890
833.576	26062
833.714	25970
833.852	25970
833.991	25947
834.129	25963
834.267	25986
834.406	25902
834.544	25921
834.682	25795
834.821	25868
834.959	26054
835.097	25898
835.235	25925
835.373	25902
835.511	25898
835.65	25681
835.788	25712
835.926	25693
836.064	25525
836.202	25502
836.34	25776
836.478	25799
836.615	25712
836.753	25632
836.891	25738
837.029	25685
837.167	25841
837.305	25521
837.443	25514
837.58	25525
837.718	25556
837.856	25472
837.993	25422
838.131	25521
838.269	25373
838.406	25403
838.544	25354
838.681	25141
838.819	25244
838.956	25015
839.094	25057
839.231	24992
839.369	25141
839.506	25407
839.643	25255
839.781	24996
839.918	25015
840.055	24977
840.193	25023
840.33	24939
840.467	24817
840.604	24916
840.742	25152
840.879	24700
841.016	24753
841.153	24730
841.29	25004
841.427	24863
841.564	24875
841.701	24875
841.838	24913
841.975	24692
842.112	24844
842.249	24684
842.385	24646
842.522	24989
842.659	24722
842.796	24639
842.933	24623
843.069	24620
843.206	24620
843.343	24776
843.479	24688
843.616	24616
843.752	24475
843.889	24486
844.025	24631
844.162	24407
844.298	24532
844.435	24426
844.571	24342
844.708	24334
844.844	24616
844.98	24528
845.117	24551
845.253	24391
845.389	24273
845.525	24399
845.661	24243
845.798	24068
845.934	24167
846.07	24129
846.206	24072
846.342	24300
846.478	24186
846.614	23961
846.75	23843
846.886	23992
847.022	23885
847.158	23923
847.294	23920
847.429	23863
847.565	23923
847.701	24026
847.837	23623
847.972	23566
848.108	23592
848.244	23680
848.379	23486
848.515	23459
848.65	23395
848.786	23471
848.921	23448
849.057	23554
849.192	23551
849.328	23490
849.463	23337
849.598	23436
849.734	23376
849.869	23364
850.004	23231
850.14	23254
850.275	23204
850.41	23033
850.545	23109
850.68	23048
850.815	23197
850.95	23128
851.085	23436
851.22	23311
851.355	23200
851.49	23200
851.625	23200
851.76	23132
851.895	23010
852.03	23102
852.165	23220
852.299	23318
852.434	23284
852.569	23277
852.703	23166
852.838	23322
852.973	23356
853.107	23452
853.242	23155
853.376	23117
853.511	22942
853.645	22934
853.78	23041
853.914	23033
854.048	23079
854.183	23090
854.317	23090
854.451	23185
854.585	22957
854.72	23041
854.854	22991
854.988	22965
855.122	23117
855.256	22949
855.39	23037
855.524	23223
855.658	23048
855.792	23037
855.926	23037
856.06	23105
856.194	23155
856.327	23052
856.461	22835
856.595	22908
856.729	23071
856.862	23197
856.996	23014
857.13	22987
857.263	23067
857.397	23124
857.53	23022
857.664	23094
857.797	23056
857.931	23143
858.064	23181
858.197	23178
858.331	23048
858.464	22987
858.597	22953
858.731	22915
858.864	23155
858.997	22946
859.13	23025
859.263	23052
859.396	23128
859.529	22995
859.662	22987
859.795	22965
859.928	23136
860.061	23086
860.194	23212
860.327	23060
860.46	23037
860.592	23041
860.725	23227
860.858	23181
860.99	23083
861.123	22908
861.256	23044
861.388	22995
861.521	23676
861.653	22866
861.786	22831
861.918	22869
862.05	22904
862.183	23052
862.315	22976
862.447	22999
862.58	22892
862.712	22698
862.844	22797
862.976	22694
863.108	22752
863.24	23143
863.372	22649
863.504	22706
863.636	22774
863.768	22866
863.9	22721
864.032	22782
864.164	22634
864.296	22744
864.428	22843
864.559	22774
864.691	22683
864.823	22771
864.954	22664
865.086	22683
865.217	22603
865.349	22546
865.48	22641
865.612	22557
865.743	22805
865.875	22596
866.006	22611
866.137	22664
866.269	22649
866.4	22493
866.531	22565
866.662	22561
866.793	22497
866.924	22554
867.055	22508
867.186	22478
867.317	22519
867.448	22375
867.579	22443
867.71	22405
867.841	22466
867.972	22550
868.103	22592
868.233	22519
868.364	22588
868.495	22512
868.625	22721
868.756	22938
868.886	22748
869.017	22748
869.147	22828
869.278	22915
869.408	22755
869.539	22721
869.669	22816
869.799	22793
869.929	22942
870.06	22885
870.19	23006
870.32	23094
870.45	23147
870.58	23075
870.71	23227
870.84	23200
870.97	23185
871.1	23227
871.23	23433
871.36	23303
871.489	23246
871.619	23345
871.749	23246
871.879	23353
872.008	23421
872.138	23258
872.267	23414
872.397	23288
872.526	23337
872.656	23166
872.785	23185
872.915	23334
873.044	23414
873.173	23311
873.303	23414
873.432	23634
873.561	23520
873.69	23421
873.819	23391
873.948	23440
874.077	23360
874.206	23364
874.335	23410
874.464	23509
874.593	23448
874.722	23646
874.851	23604
874.979	23596
875.108	23562
875.237	23570
875.365	23562
875.494	23566
875.623	23661
875.751	23615
875.88	23596
876.008	23710
876.136	23802
876.265	23958
876.393	24106
876.521	23973
876.65	24060
876.778	23882
876.906	23843
877.034	23965
877.162	23851
877.29	23764
877.418	23973
877.546	24003
877.674	23889
877.802	23821
877.93	23969
878.058	23821
878.185	23737
878.313	23752
878.441	23904
878.568	23710
878.696	23836
878.824	23969
878.951	23912
879.079	24144
879.206	24232
879.333	24136
879.461	23958
879.588	24136
879.715	24095
879.842	24277
879.97	23901
880.097	23828
880.224	23729
880.351	23863
880.478	23798
880.605	23718
880.732	23680
880.859	23977
880.986	23699
881.112	23665
881.239	23596
881.366	23459
881.493	23387
881.619	23216
881.746	23326
881.872	23349
881.999	23155
882.125	23212
882.252	23318
882.378	23242
882.505	23353
882.631	23094
882.757	22999
882.883	22980
883.01	22953
883.136	22877
883.262	22809
883.388	22854
883.514	22877
883.64	23022
883.766	22889
883.892	22713
884.018	22744
884.143	22900
884.269	22911
884.395	22645
884.52	22542
884.646	22588
884.772	22554
884.897	22603
885.023	22694
885.148	22740
885.274	22805
885.399	22729
885.524	22641
885.65	22554
885.775	22580
885.9	22596
886.025	22706
886.15	22668
886.275	22466
886.4	22554
886.525	22516
886.65	22546
886.775	22516
886.9	22740
887.025	22748
887.149	22569
887.274	22405
887.399	22314
887.523	22474
887.648	22314
887.773	22257
887.897	22360
888.021	22306
888.146	22265
888.27	22352
888.395	22348
888.519	22329
888.643	22333
888.767	22421
888.891	22154
889.015	22154
889.139	22211
889.263	22006
889.387	22314
889.511	22295
889.635	22333
889.759	22253
889.883	22013
890.006	22082
890.13	22226
890.254	21991
890.377	21987
890.501	21884
890.624	21827
890.748	21899
890.871	21861
890.995	21606
891.118	21660
891.241	21701
891.364	21614
891.488	21770
891.611	21663
891.734	21709
891.857	21679
891.98	21759
892.103	21732
892.226	21545
892.349	21599
892.471	21439
892.594	21652
892.717	21644
892.839	21561
892.962	21519
893.085	21694
893.207	21561
893.33	21393
893.452	21549
893.575	21606
893.697	21549
893.819	21694
893.941	21743
894.064	21641
894.186	21439
894.308	21473
894.43	21466
894.552	21762
894.674	21679
894.796	21386
894.918	21424
895.04	21538
895.161	21583
895.283	21572
895.405	21389
895.526	21477
895.648	21545
895.769	21549
895.891	21477
896.012	21587
896.134	21591
896.255	21473
896.376	21530
896.498	21416
896.619	21519
896.74	21511
896.861	21561
896.982	21827
897.103	21895
897.224	21861
897.345	21625
897.466	21606
897.587	21766
897.708	21797
897.828	21778
897.949	21663
898.07	21542
898.19	21728
898.311	21770
898.431	21671
898.552	21747
898.672	21698
898.792	21770
898.913	21663
899.033	21439
899.153	21469
899.273	21466
899.393	21397
899.513	21370
899.633	21439
899.753	21397
899.873	21374
899.993	21477
900.113	21408
900.232	21447
900.352	21260
900.472	21112
900.591	21272
900.711	21310
900.83	21154
900.95	21306
901.069	21222
901.189	21154
901.308	20853
901.427	20758
901.546	20739
901.665	20697
901.784	20792
901.904	20636
902.023	20625
902.141	20275
902.26	20351
902.379	20389
902.498	20324
902.617	20164
902.735	20351
902.854	20157
902.973	20134
903.091	20039
903.21	19944
903.328	19833
903.446	19799
903.565	19662
903.683	19765
903.801	19567
903.919	19704
904.038	19628
904.156	19400
904.274	19422
904.392	19350
904.51	19445
904.627	19396
904.745	19575
904.863	19343
904.981	19221
905.098	19152
905.216	19156
905.334	19225
905.451	19213
905.569	19000
905.686	19065
905.803	19141
905.921	18875
906.038	19012
906.155	18943
906.272	18859
906.389	18757
906.506	18525
906.623	18810
906.74	18616
906.857	18601
906.974	18467
907.091	18578
907.208	18639
907.324	18707
907.441	18486
907.557	18410
907.674	18338
907.79	18243
907.907	18304
908.023	18365
908.139	18342
908.256	18194
908.372	18243
908.488	18110
908.604	18076
908.72	18015
908.836	18026
908.952	18049
909.068	18140
909.184	18140
909.3	17931
909.415	18106
909.531	18091
909.647	17851
909.762	17786
909.878	17817
909.993	17684
910.108	17653
910.224	17642
910.339	17805
910.454	17570
910.57	17474
910.685	17376
910.8	17608
910.915	17653
911.03	17493
911.145	17383
911.259	17299
911.374	17299
911.489	17280
911.604	17200
911.718	17075
911.833	17067
911.947	16949
912.062	16843
912.176	17071
912.291	17109
912.405	17094
912.519	17170
912.633	17200
912.748	17170
912.862	17075
912.976	16839
913.09	16797
913.204	16835
913.318	16847
913.431	16949
913.545	16927
913.659	16896
913.772	16797
913.886	16748
914	16653
914.113	16793
914.226	16778
914.34	16641
914.453	16455
914.566	16637
914.68	16523
914.793	16443
914.906	16291
915.019	16238
915.132	16291
915.245	16211
915.358	16299
915.47	16287
915.583	16105
915.696	16299
915.809	16268
915.921	16325
916.034	16112
916.146	16036
916.259	16082
916.371	16200
916.483	16166
916.595	16071
916.708	16131
916.82	15991
916.932	15987
917.044	15838
917.156	15888
917.268	15759
917.38	15778
917.491	15842
917.603	15770
917.715	15907
917.826	15827
917.938	15789
918.049	15671
918.161	15819
918.272	15972
918.384	15819
918.495	15690
918.606	15679
918.717	15591
918.828	15519
918.939	15595
919.05	15458
919.161	15507
919.272	15374
919.383	15298
919.494	15652
919.604	15690
919.715	15580
919.826	15382
919.936	15481
920.047	15610
920.157	15587
920.267	15595
920.378	15507
920.488	15496
920.598	15656
920.708	15793
920.818	15576
920.928	15648
921.038	15804
921.148	15785
921.258	15405
921.368	15408
921.477	15287
921.587	15291
921.697	15051
921.806	15298
921.916	15032
922.025	14948
922.134	14823
922.244	14765
922.353	14853
922.462	14697
922.571	14686
922.68	14473
922.789	14408
922.898	14442
923.007	14404
923.116	14442
923.224	14499
923.333	14545
923.442	14290
923.55	14374
923.659	14332
923.767	14343
923.876	14278
923.984	14176
924.092	14195
924.201	14168
924.309	14172
924.417	14221
924.525	14100
924.633	14115
924.741	15020
924.849	13925
924.956	14077
925.064	13780
925.172	13928
925.279	13852
925.387	13849
925.494	13860
925.602	13932
925.709	13925
925.816	13788
925.924	13803
926.031	13856
926.138	13677
926.245	13807
926.352	13636
926.459	13742
926.566	13803
926.673	13731
926.779	13601
926.886	13575
926.993	13384
927.099	13441
927.206	13312
927.312	13362
927.419	13316
927.525	13381
927.631	13308
927.737	13232
927.843	13221
927.95	13129
928.056	13122
928.162	13240
928.267	13236
928.373	13681
928.479	13324
928.585	13053
928.69	13095
928.796	13118
928.901	13076
929.007	12825
929.112	12951
929.218	12943
929.323	12909
929.428	12882
929.533	12985
929.638	12776
929.743	12798
929.848	12768
929.953	12707
930.058	12692
930.163	12479
930.267	12570
930.372	12673
930.477	12486
930.581	12711
930.685	12642
930.79	12376
930.894	12445
930.998	12361
931.103	12475
931.207	12129
931.311	12068
931.415	12007
931.519	11764
931.623	11752
