Data from test_V78500241_636.txt Node
Date: Fri Mar 25 15:46:12 CST 2022
User: usil
Spectrometer: V785-0024
Trigger mode: 0
Integration Time (sec): 4.000000E-1
Scans to average: 1
Nonlinearity correction enabled: false
Boxcar width: 0
Storing dark spectrum: false
XAxis mode: Wavelengths
Number of Pixels in Spectrum: 1024
>>>>>Begin Spectral Data<<<<<
801.071	28356
801.214	28120
801.356	27732
801.499	27755
801.641	27759
801.783	27781
801.926	27770
802.068	27770
802.211	27576
802.353	27488
802.496	27473
802.638	27393
802.78	27416
802.923	27397
803.065	27256
803.208	27496
803.35	27340
803.492	27397
803.635	27557
803.777	27515
803.919	27637
804.061	27816
804.204	27682
804.346	27473
804.488	27450
804.63	27462
804.773	27386
804.915	27686
805.057	27713
805.199	27675
805.341	27690
805.483	27614
805.626	27732
805.768	27603
805.91	27831
806.052	27759
806.194	27660
806.336	27869
806.478	27705
806.62	27778
806.762	27797
806.904	28063
807.046	28230
807.188	28234
807.33	28215
807.472	28177
807.614	28131
807.756	28226
807.898	27991
808.04	28010
808.182	27979
808.324	28059
808.465	28021
808.607	28192
808.749	28398
808.891	28428
809.033	28554
809.174	28527
809.316	28478
809.458	28489
809.6	28440
809.741	28493
809.883	28668
810.025	28672
810.166	28710
810.308	28634
810.45	28557
810.591	28660
810.733	28451
810.875	28337
811.016	28287
811.158	28314
811.299	28542
811.441	28504
811.582	28447
811.724	28535
811.865	28424
812.007	28344
812.148	28379
812.29	28443
812.431	28577
812.573	28736
812.714	28942
812.855	28919
812.997	29052
813.138	28999
813.279	29307
813.421	28987
813.562	28805
813.703	28786
813.845	28691
813.986	28272
814.127	28120
814.268	28040
814.41	28135
814.551	28044
814.692	28082
814.833	28120
814.974	27983
815.115	28025
815.256	27994
815.397	27953
815.539	28044
815.68	27922
815.821	27884
815.962	27873
816.103	27918
816.244	27781
816.385	27781
816.526	27785
816.666	27496
816.807	27306
816.948	27488
817.089	27538
817.23	27462
817.371	27386
817.512	27534
817.653	27545
817.793	27370
817.934	27412
818.075	27363
818.216	27367
818.356	27443
818.497	27214
818.638	27146
818.778	27264
818.919	27344
819.06	27203
819.2	27439
819.341	27386
819.481	27211
819.622	27682
819.762	27766
819.903	27717
820.043	27568
820.184	27416
820.324	27488
820.465	27542
820.605	27431
820.746	27622
820.886	27504
821.026	27435
821.167	27507
821.307	27507
821.447	27367
821.588	27283
821.728	27195
821.868	26967
822.008	26944
822.149	26952
822.289	26701
822.429	26533
822.569	26583
822.709	26526
822.849	26408
822.99	26332
823.13	26324
823.27	26225
823.41	26320
823.55	26199
823.69	26229
823.83	26218
823.97	26138
824.11	25890
824.25	26084
824.389	25993
824.529	26031
824.669	26027
824.809	26210
824.949	26065
825.089	26043
825.228	26046
825.368	25833
825.508	25795
825.648	25921
825.787	25947
825.927	25917
826.067	25803
826.206	25921
826.346	25917
826.485	26001
826.625	25978
826.765	25947
826.904	25978
827.044	25761
827.183	25635
827.323	25734
827.462	25700
827.601	25708
827.741	25635
827.88	25620
828.02	25415
828.159	25476
828.298	25674
828.437	25670
828.577	25605
828.716	25647
828.855	25434
828.994	25407
829.134	25217
829.273	25403
829.412	25183
829.551	25293
829.69	25247
829.829	25209
829.968	25350
830.107	25148
830.246	25312
830.385	25187
830.524	25129
830.663	25095
830.802	25114
830.941	24882
831.08	25008
831.219	25118
831.357	25141
831.496	25137
831.635	24939
831.774	24760
831.913	24833
832.051	24806
832.19	24722
832.329	24757
832.467	24696
832.606	24426
832.744	24544
832.883	24494
833.022	24528
833.16	24658
833.299	24681
833.437	24483
833.576	24627
833.714	24700
833.852	24711
833.991	24810
834.129	24719
834.267	24798
834.406	24707
834.544	24661
834.682	24711
834.821	24707
834.959	24654
835.097	24623
835.235	24665
835.373	24639
835.511	24589
835.65	24498
835.788	24395
835.926	24350
836.064	24277
836.202	24361
836.34	24589
836.478	24555
836.615	24563
836.753	24532
836.891	24536
837.029	24441
837.167	24395
837.305	24262
837.443	24540
837.58	24308
837.718	24353
837.856	24285
837.993	24266
838.131	24273
838.269	24159
838.406	24190
838.544	24049
838.681	24003
838.819	24034
838.956	23767
839.094	23729
839.231	23710
839.369	23897
839.506	24216
839.643	24045
839.781	23771
839.918	23726
840.055	23836
840.193	23718
840.33	23745
840.467	23767
840.604	23817
840.742	23977
840.879	23383
841.016	23619
841.153	23741
841.29	23767
841.427	23627
841.564	23798
841.701	23581
841.838	23566
841.975	23509
842.112	23581
842.249	23551
842.385	23547
842.522	23661
842.659	23421
842.796	23433
842.933	23315
843.069	23341
843.206	23345
843.343	23391
843.479	23414
843.616	23486
843.752	23216
843.889	23227
844.025	23429
844.162	23185
844.298	23265
844.435	23216
844.571	23132
844.708	23254
844.844	23315
844.98	23235
845.117	23299
845.253	23086
845.389	23121
845.525	23132
845.661	23003
845.798	22957
845.934	23102
846.07	22847
846.206	22968
846.342	23105
846.478	23029
846.614	22717
846.75	22672
846.886	22615
847.022	22691
847.158	22706
847.294	22759
847.429	22694
847.565	22725
847.701	22896
847.837	22440
847.972	22379
848.108	22474
848.244	22481
848.379	22257
848.515	22207
848.65	22322
848.786	22303
848.921	22276
849.057	22310
849.192	22375
849.328	22432
849.463	22318
849.598	22230
849.734	22128
849.869	22055
850.004	22169
850.14	22029
850.275	22002
850.41	21975
850.545	22032
850.68	21975
850.815	22074
850.95	21975
851.085	22162
851.22	22204
851.355	22078
851.49	22013
851.625	22036
851.76	22051
851.895	22002
852.03	21888
852.165	21972
852.299	22002
852.434	22074
852.569	22173
852.703	21964
852.838	22097
852.973	22169
853.107	22177
853.242	21903
853.376	21934
853.511	21770
853.645	21755
853.78	21964
853.914	21865
854.048	21720
854.183	21835
854.317	21899
854.451	22070
854.585	21827
854.72	21911
854.854	21838
854.988	21747
855.122	21823
855.256	21770
855.39	21804
855.524	21888
855.658	21892
855.792	21808
855.926	21785
856.06	21926
856.194	21903
856.327	21945
856.461	21797
856.595	21804
856.729	21797
856.862	21949
856.996	21907
857.13	21972
857.263	21888
857.397	21991
857.53	21903
857.664	21888
857.797	21838
857.931	21930
858.064	21857
858.197	21991
858.331	21884
858.464	21755
858.597	21751
858.731	21812
858.864	21732
858.997	21743
859.13	21831
859.263	21956
859.396	21785
859.529	21713
859.662	21907
859.795	21747
859.928	21831
860.061	21953
860.194	21964
860.327	21895
860.46	21869
860.592	21922
860.725	22036
860.858	21934
860.99	21941
861.123	21778
861.256	21766
861.388	21861
861.521	22489
861.653	21778
861.786	21504
861.918	21766
862.05	21629
862.183	21724
862.315	21736
862.447	21842
862.58	21648
862.712	21530
862.844	21477
862.976	21690
863.108	21656
863.24	21911
863.372	21466
863.504	21652
863.636	21469
863.768	21545
863.9	21606
864.032	21428
864.164	21519
864.296	21629
864.428	21625
864.559	21679
864.691	21717
864.823	21572
864.954	21622
865.086	21488
865.217	21408
865.349	21428
865.48	21439
865.612	21378
865.743	21618
865.875	21466
866.006	21336
866.137	21447
866.269	21382
866.4	21439
866.531	21313
866.662	21264
866.793	21332
866.924	21443
867.055	21504
867.186	21272
867.317	21302
867.448	21306
867.579	21199
867.71	21279
867.841	21393
867.972	21363
868.103	21302
868.233	21439
868.364	21313
868.495	21321
868.625	21614
868.756	21705
868.886	21488
869.017	21606
869.147	21625
869.278	21667
869.408	21557
869.539	21610
869.669	21701
869.799	21701
869.929	21717
870.06	21690
870.19	21983
870.32	21789
870.45	21930
870.58	21975
870.71	22010
870.84	21937
870.97	22013
871.1	21987
871.23	22173
871.36	22131
871.489	22090
871.619	22116
871.749	22166
871.879	22112
872.008	22348
872.138	22204
872.267	22158
872.397	22097
872.526	21979
872.656	22166
872.785	22021
872.915	22128
873.044	22253
873.173	22295
873.303	22105
873.432	22257
873.561	22348
873.69	22287
873.819	22272
873.948	22299
874.077	22230
874.206	22154
874.335	22223
874.464	22348
874.593	22398
874.722	22360
874.851	22421
874.979	22413
875.108	22485
875.237	22459
875.365	22371
875.494	22447
875.623	22611
875.751	22382
875.88	22382
876.008	22653
876.136	22679
876.265	22786
876.393	22991
876.521	22923
876.65	22938
876.778	22843
876.906	22755
877.034	22694
877.162	22778
877.29	22725
877.418	22801
877.546	22767
877.674	22816
877.802	22637
877.93	22885
878.058	22782
878.185	22611
878.313	22763
878.441	22831
878.568	22523
878.696	22630
878.824	22835
878.951	22824
879.079	22892
879.206	22999
879.333	22972
879.461	22782
879.588	22930
879.715	22934
879.842	23220
879.97	22858
880.097	22694
880.224	22672
880.351	22637
880.478	22504
880.605	22592
880.732	22607
880.859	22831
880.986	22588
881.112	22592
881.239	22443
881.366	22344
881.493	22249
881.619	22192
881.746	22272
881.872	22048
881.999	22078
882.125	22002
882.252	22211
882.378	22097
882.505	22295
882.631	21899
882.757	21869
882.883	21926
883.01	21937
883.136	21835
883.262	21694
883.388	21720
883.514	21873
883.64	21831
883.766	21717
883.892	21618
884.018	21660
884.143	21736
884.269	21842
884.395	21469
884.52	21534
884.646	21641
884.772	21515
884.897	21355
885.023	21644
885.148	21538
885.274	21610
885.399	21614
885.524	21431
885.65	21523
885.775	21545
885.9	21473
886.025	21591
886.15	21629
886.275	21473
886.4	21397
886.525	21374
886.65	21523
886.775	21363
886.9	21625
887.025	21648
887.149	21428
887.274	21317
887.399	21230
887.523	21093
887.648	21291
887.773	21184
887.897	21389
888.021	21226
888.146	21313
888.27	21252
888.395	21336
888.519	21355
888.643	21348
888.767	21249
888.891	21150
889.015	21066
889.139	21176
889.263	21013
889.387	21176
889.511	21211
889.635	21161
889.759	20929
889.883	20998
890.006	21169
890.13	21112
890.254	20998
890.377	20937
890.501	20815
890.624	20727
890.748	20895
890.871	20739
890.995	20556
891.118	20571
891.241	20552
891.364	20613
891.488	20773
891.611	20617
891.734	20682
891.857	20644
891.98	20659
892.103	20632
892.226	20659
892.349	20514
892.471	20393
892.594	20495
892.717	20533
892.839	20583
892.962	20617
893.085	20594
893.207	20476
893.33	20389
893.452	20415
893.575	20488
893.697	20583
893.819	20648
893.941	20674
894.064	20632
894.186	20552
894.308	20476
894.43	20602
894.552	20689
894.674	20552
894.796	20355
894.918	20438
895.04	20454
895.161	20522
895.283	20438
895.405	20530
895.526	20484
895.648	20450
895.769	20431
895.891	20617
896.012	20465
896.134	20640
896.255	20423
896.376	20423
896.498	20522
896.619	20560
896.74	20457
896.861	20655
896.982	20811
897.103	20902
897.224	20872
897.345	20693
897.466	20640
897.587	20617
897.708	20838
897.828	20765
897.949	20648
898.07	20461
898.19	20583
898.311	20792
898.431	20632
898.552	20606
898.672	20788
898.792	20773
898.913	20727
899.033	20434
899.153	20602
899.273	20492
899.393	20499
899.513	20469
899.633	20473
899.753	20465
899.873	20389
899.993	20412
900.113	20415
900.232	20461
900.352	20473
900.472	20286
900.591	20153
900.711	20298
900.83	20320
900.95	20377
901.069	20301
901.189	20237
901.308	19928
901.427	19761
901.546	19772
901.665	19868
901.784	19761
901.904	19651
902.023	19651
902.141	19407
902.26	19388
902.379	19426
902.498	19460
902.617	19331
902.735	19343
902.854	19282
902.973	19187
903.091	18943
903.21	18989
903.328	19019
903.446	18977
903.565	18837
903.683	18837
903.801	18589
903.919	18707
904.038	18658
904.156	18604
904.274	18532
904.392	18589
904.51	18494
904.627	18532
904.745	18498
904.863	18616
904.981	18334
905.098	18186
905.216	18167
905.334	18254
905.451	18190
905.569	18140
905.686	18285
905.803	18117
905.921	17882
906.038	18072
906.155	18091
906.272	17847
906.389	18003
906.506	17775
906.623	17805
906.74	17752
906.857	17676
906.974	17699
907.091	17828
907.208	17863
907.324	17764
907.441	17611
907.557	17471
907.674	17490
907.79	17318
907.907	17455
908.023	17497
908.139	17387
908.256	17391
908.372	17387
908.488	17417
908.604	17197
908.72	17250
908.836	17166
908.952	17159
909.068	17193
909.184	17322
909.3	17197
909.415	17178
909.531	17159
909.647	16892
909.762	16854
909.878	16797
909.993	16892
910.108	16908
910.224	16919
910.339	16881
910.454	16694
910.57	16717
910.685	16615
910.8	16900
910.915	16816
911.03	16611
911.145	16428
911.259	16516
911.374	16440
911.489	16413
911.604	16352
911.718	16230
911.833	16215
911.947	16147
912.062	16021
912.176	16295
912.291	16287
912.405	16219
912.519	16390
912.633	16443
912.748	16162
912.862	16154
912.976	16036
913.09	15861
913.204	15941
913.318	16040
913.431	16120
913.545	16166
913.659	16067
913.772	16093
913.886	15956
914	15827
914.113	15922
914.226	15964
914.34	15903
914.453	15698
914.566	15888
914.68	15736
914.793	15656
914.906	15568
915.019	15420
915.132	15481
915.245	15420
915.358	15435
915.47	15431
915.583	15420
915.696	15370
915.809	15454
915.921	15530
916.034	15340
916.146	15245
916.259	15325
916.371	15420
916.483	15332
916.595	15203
916.708	15226
916.82	15195
916.932	15233
917.044	15157
917.156	15214
917.268	15116
917.38	15119
917.491	15020
917.603	15039
917.715	14994
917.826	15116
917.938	15055
918.049	14800
918.161	14941
918.272	15070
918.384	15100
918.495	15036
918.606	14921
918.717	14788
918.828	14857
918.939	14906
919.05	14750
919.161	14804
919.272	14594
919.383	14655
919.494	14887
919.604	15005
919.715	14777
919.826	14712
919.936	14689
920.047	14941
920.157	14697
920.267	14944
920.378	14861
920.488	14758
920.598	14899
920.708	15119
920.818	14948
920.928	14906
921.038	15131
921.148	15062
921.258	14644
921.368	14629
921.477	14442
921.587	14488
921.697	14275
921.806	14613
921.916	14358
922.025	14149
922.134	14161
922.244	14119
922.353	14195
922.462	14035
922.571	13959
922.68	13818
922.789	13742
922.898	13845
923.007	13734
923.116	13753
923.224	13708
923.333	13738
923.442	13670
923.55	13563
923.659	13590
923.767	13662
923.876	13556
923.984	13681
924.092	13445
924.201	13563
924.309	13537
924.417	13468
924.525	13575
924.633	13457
924.741	14183
924.849	13240
924.956	13320
925.064	13183
925.172	13053
925.279	13236
925.387	13221
925.494	13126
925.602	13266
925.709	13263
925.816	13088
925.924	13217
926.031	13187
926.138	13198
926.245	13149
926.352	13110
926.459	13228
926.566	13247
926.673	13091
926.779	12852
926.886	12989
926.993	12696
927.099	12768
927.206	12749
927.312	12757
927.419	12825
927.525	12665
927.631	12821
927.737	12688
927.843	12574
927.95	12559
928.056	12544
928.162	12623
928.267	12684
928.373	13194
928.479	12616
928.585	12384
928.69	12464
928.796	12494
928.901	12308
929.007	12277
929.112	12502
929.218	12429
929.323	12300
929.428	12258
929.533	12445
929.638	12209
929.743	12186
929.848	12190
929.953	12232
930.058	12190
930.163	11935
930.267	11923
930.372	12175
930.477	11885
930.581	12121
930.685	12003
930.79	11824
930.894	11908
930.998	11836
931.103	11973
931.207	11577
931.311	11509
931.415	11425
931.519	11239
931.623	11147
