Data from test_V78500241_3228.txt Node
Date: Fri Mar 25 16:04:09 CST 2022
User: usil
Spectrometer: V785-0024
Trigger mode: 0
Integration Time (sec): 4.000000E-1
Scans to average: 1
Nonlinearity correction enabled: false
Boxcar width: 0
Storing dark spectrum: false
XAxis mode: Wavelengths
Number of Pixels in Spectrum: 1024
>>>>>Begin Spectral Data<<<<<
801.071	28892
801.214	28946
801.356	28641
801.499	28573
801.641	28375
801.783	28542
801.926	28615
802.068	28626
802.211	28325
802.353	28432
802.496	28215
802.638	28105
802.78	28280
802.923	28181
803.065	28105
803.208	28150
803.35	28249
803.492	28303
803.635	28257
803.777	28329
803.919	28322
804.061	28653
804.204	28451
804.346	28257
804.488	28356
804.63	28531
804.773	28371
804.915	28542
805.057	28459
805.199	28405
805.341	28519
805.483	28569
805.626	28618
805.768	28546
805.91	28573
806.052	28668
806.194	28523
806.336	28820
806.478	28729
806.62	28573
806.762	28748
806.904	28904
807.046	29162
807.188	28930
807.33	29075
807.472	29105
807.614	28953
807.756	29086
807.898	28965
808.04	28869
808.182	28733
808.324	29022
808.465	28976
808.607	29136
808.749	29258
808.891	29307
809.033	29528
809.174	29406
809.316	29330
809.458	29402
809.6	29185
809.741	29356
809.883	29402
810.025	29551
810.166	29562
810.308	29539
810.45	29471
810.591	29520
810.733	29349
810.875	29212
811.016	29296
811.158	29288
811.299	29448
811.441	29551
811.582	29524
811.724	29311
811.865	29132
812.007	29296
812.148	29425
812.29	29292
812.431	29493
812.573	29680
812.714	29653
812.855	29843
812.997	29893
813.138	30095
813.279	29889
813.421	29878
813.562	29771
813.703	29695
813.845	29570
813.986	29200
814.127	29132
814.268	29048
814.41	29003
814.551	29064
814.692	29109
814.833	28896
814.974	28839
815.115	28995
815.256	28991
815.397	28831
815.539	28850
815.68	28820
815.821	28771
815.962	28828
816.103	28885
816.244	28713
816.385	28717
816.526	28641
816.666	28421
816.807	28223
816.948	28375
817.089	28295
817.23	28398
817.371	28344
817.512	28299
817.653	28192
817.793	28261
817.934	28238
818.075	28276
818.216	28352
818.356	28333
818.497	28306
818.638	28150
818.778	28234
818.919	28246
819.06	28082
819.2	28352
819.341	28360
819.481	28424
819.622	28371
819.762	28736
819.903	28535
820.043	28542
820.184	28500
820.324	28573
820.465	28451
820.605	28580
820.746	28413
820.886	28375
821.026	28401
821.167	28436
821.307	28538
821.447	28318
821.588	28303
821.728	28204
821.868	28124
822.008	27770
822.149	27892
822.289	27892
822.429	27523
822.569	27572
822.709	27488
822.849	27306
822.99	27226
823.13	27207
823.27	27291
823.41	27310
823.55	26921
823.69	27089
823.83	27275
823.97	27093
824.11	26960
824.25	26914
824.389	27119
824.529	27165
824.669	27028
824.809	27131
824.949	27112
825.089	27043
825.228	26956
825.368	26990
825.508	26857
825.648	26796
825.787	26899
825.927	26960
826.067	26914
826.206	26883
826.346	26849
826.485	26979
826.625	26758
826.765	26811
826.904	26933
827.044	26773
827.183	26541
827.323	26533
827.462	26655
827.601	26648
827.741	26465
827.88	26659
828.02	26484
828.159	26457
828.298	26689
828.437	26674
828.577	26492
828.716	26674
828.855	26522
828.994	26237
829.134	26347
829.273	26263
829.412	26225
829.551	26237
829.69	26389
829.829	26381
829.968	26453
830.107	26419
830.246	26396
830.385	26328
830.524	26332
830.663	26088
830.802	26088
830.941	25849
831.08	25799
831.219	26008
831.357	26043
831.496	26187
831.635	25951
831.774	25864
831.913	25780
832.051	25757
832.19	25674
832.329	25696
832.467	25685
832.606	25647
832.744	25521
832.883	25601
833.022	25544
833.16	25533
833.299	25529
833.437	25632
833.576	25597
833.714	25582
833.852	25662
833.991	25894
834.129	25757
834.267	25822
834.406	25586
834.544	25658
834.682	25632
834.821	25708
834.959	25731
835.097	25639
835.235	25784
835.373	25620
835.511	25635
835.65	25491
835.788	25396
835.926	25419
836.064	25327
836.202	25225
836.34	25537
836.478	25514
836.615	25407
836.753	25476
836.891	25521
837.029	25628
837.167	25506
837.305	25381
837.443	25346
837.58	25388
837.718	25343
837.856	25339
837.993	25365
838.131	25327
838.269	25228
838.406	25175
838.544	25046
838.681	25023
838.819	24935
838.956	24688
839.094	24734
839.231	24875
839.369	24966
839.506	25244
839.643	25000
839.781	24757
839.918	24658
840.055	24859
840.193	24639
840.33	24688
840.467	24707
840.604	24787
840.742	24970
840.879	24566
841.016	24528
841.153	24623
841.29	24848
841.427	24604
841.564	24601
841.701	24528
841.838	24669
841.975	24700
842.112	24578
842.249	24479
842.385	24452
842.522	24658
842.659	24429
842.796	24525
842.933	24357
843.069	24251
843.206	24372
843.343	24525
843.479	24445
843.616	24399
843.752	24254
843.889	24277
844.025	24338
844.162	24121
844.298	24224
844.435	24205
844.571	24220
844.708	24133
844.844	24262
844.98	24247
845.117	24357
845.253	24220
845.389	24106
845.525	24049
845.661	24083
845.798	23996
845.934	23893
846.07	23821
846.206	23946
846.342	24030
846.478	23954
846.614	23745
846.75	23638
846.886	23676
847.022	23802
847.158	23570
847.294	23676
847.429	23638
847.565	23642
847.701	23840
847.837	23444
847.972	23360
848.108	23463
848.244	23501
848.379	23330
848.515	23227
848.65	23064
848.786	23216
848.921	23124
849.057	23356
849.192	23379
849.328	23299
849.463	23159
849.598	23102
849.734	23155
849.869	23056
850.004	23010
850.14	23044
850.275	22999
850.41	22919
850.545	22850
850.68	22987
850.815	23060
850.95	23079
851.085	23197
851.22	22911
851.355	22976
851.49	23102
851.625	22972
851.76	22900
851.895	22839
852.03	22946
852.165	23037
852.299	22896
852.434	23075
852.569	23200
852.703	22927
852.838	23067
852.973	23109
853.107	23189
853.242	23052
853.376	22847
853.511	22717
853.645	22740
853.78	22946
853.914	22839
854.048	22828
854.183	22771
854.317	22923
854.451	23037
854.585	22869
854.72	22866
854.854	22820
854.988	22710
855.122	22831
855.256	22721
855.39	22786
855.524	22908
855.658	22881
855.792	22816
855.926	22877
856.06	22839
856.194	22908
856.327	22767
856.461	22740
856.595	22793
856.729	22866
856.862	22991
856.996	22858
857.13	22930
857.263	22866
857.397	22896
857.53	22812
857.664	22843
857.797	22824
857.931	23029
858.064	22847
858.197	22854
858.331	22885
858.464	22763
858.597	22782
858.731	22767
858.864	22782
858.997	22752
859.13	22782
859.263	22786
859.396	22885
859.529	22729
859.662	22824
859.795	22805
859.928	22957
860.061	22930
860.194	23090
860.327	22820
860.46	22812
860.592	22908
860.725	22961
860.858	22923
860.99	22900
861.123	22752
861.256	22835
861.388	22767
861.521	23421
861.653	22755
861.786	22588
861.918	22653
862.05	22759
862.183	22687
862.315	22782
862.447	22831
862.58	22702
862.712	22565
862.844	22554
862.976	22653
863.108	22561
863.24	22889
863.372	22493
863.504	22550
863.636	22485
863.768	22390
863.9	22573
864.032	22405
864.164	22516
864.296	22474
864.428	22683
864.559	22440
864.691	22596
864.823	22493
864.954	22538
865.086	22462
865.217	22447
865.349	22478
865.48	22322
865.612	22310
865.743	22459
865.875	22508
866.006	22417
866.137	22356
866.269	22443
866.4	22451
866.531	22306
866.662	22310
866.793	22356
866.924	22352
867.055	22348
867.186	22303
867.317	22333
867.448	22177
867.579	22223
867.71	22226
867.841	22318
867.972	22348
868.103	22333
868.233	22257
868.364	22253
868.495	22459
868.625	22497
868.756	22668
868.886	22557
869.017	22554
869.147	22668
869.278	22736
869.408	22527
869.539	22569
869.669	22713
869.799	22668
869.929	22736
870.06	22630
870.19	22820
870.32	22892
870.45	22892
870.58	22877
870.71	23060
870.84	23037
870.97	23121
871.1	23071
871.23	23014
871.36	23140
871.489	23086
871.619	23102
871.749	23155
871.879	23166
872.008	23277
872.138	23113
872.267	23261
872.397	22995
872.526	22953
872.656	23140
872.785	22957
872.915	23140
873.044	23315
873.173	23181
873.303	23341
873.432	23284
873.561	23181
873.69	23181
873.819	23250
873.948	23364
874.077	23200
874.206	23189
874.335	23155
874.464	23315
874.593	23558
874.722	23425
874.851	23471
874.979	23467
875.108	23353
875.237	23322
875.365	23326
875.494	23337
875.623	23497
875.751	23334
875.88	23368
876.008	23531
876.136	23570
876.265	23771
876.393	23931
876.521	23859
876.65	23904
876.778	23874
876.906	23729
877.034	23630
877.162	23805
877.29	23710
877.418	23752
877.546	23668
877.674	23642
877.802	23630
877.93	23760
878.058	23619
878.185	23539
878.313	23707
878.441	23828
878.568	23608
878.696	23570
878.824	23764
878.951	23714
879.079	23813
879.206	24015
879.333	23946
879.461	23786
879.588	23889
879.715	23908
879.842	23999
879.97	23764
880.097	23672
880.224	23531
880.351	23608
880.478	23554
880.605	23436
880.732	23638
880.859	23832
880.986	23497
881.112	23452
881.239	23493
881.366	23231
881.493	23261
881.619	23056
881.746	23109
881.872	23113
881.999	23113
882.125	22938
882.252	23083
882.378	23033
882.505	23227
882.631	22976
882.757	22725
882.883	22828
883.01	22740
883.136	22736
883.262	22698
883.388	22615
883.514	22786
883.64	22694
883.766	22687
883.892	22580
884.018	22474
884.143	22713
884.269	22797
884.395	22546
884.52	22402
884.646	22440
884.772	22341
884.897	22322
885.023	22466
885.148	22519
885.274	22603
885.399	22523
885.524	22459
885.65	22333
885.775	22500
885.9	22413
886.025	22459
886.15	22497
886.275	22360
886.4	22287
886.525	22299
886.65	22242
886.775	22284
886.9	22493
887.025	22519
887.149	22394
887.274	22097
887.399	22246
887.523	22200
887.648	22204
887.773	22010
887.897	22105
888.021	22192
888.146	22226
888.27	22169
888.395	22173
888.519	22215
888.643	22048
888.767	22207
888.891	22006
889.015	22044
889.139	21876
889.263	21903
889.387	21987
889.511	22131
889.635	22017
889.759	21934
889.883	21915
890.006	21934
890.13	22006
890.254	21816
890.377	21892
890.501	21736
890.624	21606
890.748	21728
890.871	21454
890.995	21507
891.118	21416
891.241	21515
891.364	21424
891.488	21580
891.611	21526
891.734	21485
891.857	21488
891.98	21443
892.103	21408
892.226	21485
892.349	21435
892.471	21222
892.594	21359
892.717	21351
892.839	21359
892.962	21374
893.085	21435
893.207	21336
893.33	21302
893.452	21279
893.575	21408
893.697	21378
893.819	21526
893.941	21591
894.064	21462
894.186	21336
894.308	21211
894.43	21378
894.552	21568
894.674	21519
894.796	21195
894.918	21420
895.04	21302
895.161	21408
895.283	21500
895.405	21264
895.526	21416
895.648	21298
895.769	21420
895.891	21348
896.012	21492
896.134	21355
896.255	21237
896.376	21249
896.498	21283
896.619	21420
896.74	21310
896.861	21496
896.982	21705
897.103	21774
897.224	21492
897.345	21542
897.466	21473
897.587	21488
897.708	21538
897.828	21580
897.949	21439
898.07	21378
898.19	21397
898.311	21603
898.431	21473
898.552	21564
898.672	21564
898.792	21614
898.913	21496
899.033	21462
899.153	21340
899.273	21298
899.393	21287
899.513	21428
899.633	21298
899.753	21264
899.873	21161
899.993	21252
900.113	21135
900.232	21123
900.352	21218
900.472	21203
900.591	21005
900.711	21058
900.83	20998
900.95	21093
901.069	21066
901.189	20963
901.308	20636
901.427	20571
901.546	20609
901.665	20587
901.784	20552
901.904	20461
902.023	20225
902.141	20244
902.26	20199
902.379	20229
902.498	20081
902.617	20111
902.735	20062
902.854	20065
902.973	20054
903.091	19894
903.21	19734
903.328	19791
903.446	19693
903.565	19510
903.683	19613
903.801	19453
903.919	19228
904.038	19476
904.156	19331
904.274	19331
904.392	19209
904.51	19369
904.627	19285
904.745	19259
904.863	19247
904.981	19129
905.098	18913
905.216	18962
905.334	18989
905.451	19034
905.569	19008
905.686	18829
905.803	18985
905.921	18833
906.038	18787
906.155	18620
906.272	18684
906.389	18726
906.506	18616
906.623	18536
906.74	18509
906.857	18311
906.974	18437
907.091	18559
907.208	18654
907.324	18570
907.441	18414
907.557	18178
907.674	18243
907.79	18174
907.907	18190
908.023	18121
908.139	18144
908.256	18194
908.372	18030
908.488	18121
908.604	17988
908.72	17790
908.836	17927
908.952	17813
909.068	17889
909.184	18045
909.3	17908
909.415	17973
909.531	17866
909.647	17657
909.762	17592
909.878	17604
909.993	17585
910.108	17676
910.224	17589
910.339	17516
910.454	17440
910.57	17459
910.685	17334
910.8	17722
910.915	17619
911.03	17414
911.145	17155
911.259	17128
911.374	17170
911.489	17086
911.604	17064
911.718	16896
911.833	16885
911.947	16733
912.062	16721
912.176	16915
912.291	16835
912.405	16885
912.519	17060
912.633	16942
912.748	17045
912.862	16812
912.976	16702
913.09	16603
913.204	16641
913.318	16733
913.431	16763
913.545	16668
913.659	16763
913.772	16672
913.886	16409
914	16580
914.113	16535
914.226	16637
914.34	16481
914.453	16318
914.566	16508
914.68	16295
914.793	16371
914.906	16124
915.019	16154
915.132	16032
915.245	16036
915.358	16169
915.47	16109
915.583	16017
915.696	16063
915.809	16147
915.921	16287
916.034	16063
916.146	15895
916.259	15899
916.371	16040
916.483	16032
916.595	15808
916.708	15949
916.82	15865
916.932	15880
917.044	15819
917.156	15865
917.268	15774
917.38	15747
917.491	15709
917.603	15667
917.715	15804
917.826	15816
917.938	15629
918.049	15500
918.161	15629
918.272	15781
918.384	15743
918.495	15572
918.606	15454
918.717	15382
918.828	15458
918.939	15473
919.05	15317
919.161	15340
919.272	15230
919.383	15233
919.494	15443
919.604	15694
919.715	15382
919.826	15260
919.936	15435
920.047	15485
920.157	15344
920.267	15542
920.378	15336
920.488	15397
920.598	15500
920.708	15713
920.818	15469
920.928	15458
921.038	15717
921.148	15564
921.258	15218
921.368	15283
921.477	15180
921.587	15108
921.697	15047
921.806	15180
921.916	14944
922.025	14705
922.134	14655
922.244	14655
922.353	14731
922.462	14564
922.571	14492
922.68	14328
922.789	14473
922.898	14324
923.007	14278
923.116	14377
923.224	14427
923.333	14313
923.442	14218
923.55	14218
923.659	14172
923.767	14229
923.876	14172
923.984	14164
924.092	14058
924.201	14237
924.309	14050
924.417	14073
924.525	13928
924.633	13993
924.741	14834
924.849	13879
924.956	13928
925.064	13769
925.172	13734
925.279	13693
925.387	13674
925.494	13795
925.602	13845
925.709	13776
925.816	13594
925.924	13563
926.031	13704
926.138	13578
926.245	13632
926.352	13533
926.459	13757
926.566	13742
926.673	13658
926.779	13419
926.886	13457
926.993	13346
927.099	13270
927.206	13343
927.312	13244
927.419	13297
927.525	13278
927.631	13194
927.737	13076
927.843	13103
927.95	12989
928.056	13099
928.162	13110
928.267	13103
928.373	13601
928.479	13168
928.585	12943
928.69	13091
928.796	13050
928.901	12867
929.007	12814
929.112	12890
929.218	12837
929.323	12814
929.428	12760
929.533	12909
929.638	12665
929.743	12745
929.848	12764
929.953	12677
930.058	12582
930.163	12486
930.267	12433
930.372	12612
930.477	12388
930.581	12635
930.685	12494
930.79	12308
930.894	12418
930.998	12319
931.103	12433
931.207	12114
931.311	11904
931.415	11931
931.519	11707
931.623	11714
