Data from test_V78500241_2474.txt Node
Date: Fri Mar 25 15:58:56 CST 2022
User: usil
Spectrometer: V785-0024
Trigger mode: 0
Integration Time (sec): 4.000000E-1
Scans to average: 1
Nonlinearity correction enabled: false
Boxcar width: 0
Storing dark spectrum: false
XAxis mode: Wavelengths
Number of Pixels in Spectrum: 1024
>>>>>Begin Spectral Data<<<<<
801.071	28455
801.214	28561
801.356	28188
801.499	28059
801.641	27968
801.783	28097
801.926	28078
802.068	28051
802.211	27975
802.353	27994
802.496	27816
802.638	27648
802.78	27720
802.923	27656
803.065	27580
803.208	27606
803.35	27663
803.492	27850
803.635	27945
803.777	27854
803.919	27892
804.061	28284
804.204	28021
804.346	27987
804.488	27835
804.63	27960
804.773	27884
804.915	27930
805.057	28097
805.199	27907
805.341	28044
805.483	28044
805.626	27964
805.768	28074
805.91	28116
806.052	28109
806.194	27888
806.336	28226
806.478	28109
806.62	28097
806.762	28249
806.904	28249
807.046	28691
807.188	28367
807.33	28542
807.472	28622
807.614	28516
807.756	28554
807.898	28424
808.04	28322
808.182	28333
808.324	28356
808.465	28546
808.607	28713
808.749	28733
808.891	28847
809.033	28946
809.174	28900
809.316	28740
809.458	28748
809.6	28710
809.741	28980
809.883	28938
810.025	28976
810.166	28942
810.308	28987
810.45	29010
810.591	29025
810.733	28866
810.875	28698
811.016	28717
811.158	28733
811.299	29033
811.441	28949
811.582	29010
811.724	28721
811.865	28793
812.007	28755
812.148	28748
812.29	28778
812.431	29003
812.573	29242
812.714	29231
812.855	29284
812.997	29330
813.138	29505
813.279	29391
813.421	29341
813.562	29258
813.703	29124
813.845	29075
813.986	28725
814.127	28554
814.268	28428
814.41	28466
814.551	28470
814.692	28462
814.833	28303
814.974	28284
815.115	28447
815.256	28409
815.397	28508
815.539	28284
815.68	28325
815.821	28120
815.962	28246
816.103	28226
816.244	28082
816.385	28044
816.526	28078
816.666	27850
816.807	27724
816.948	27850
817.089	27831
817.23	27762
817.371	27698
817.512	27808
817.653	27876
817.793	27705
817.934	27625
818.075	27747
818.216	27785
818.356	27686
818.497	27686
818.638	27492
818.778	27641
818.919	27374
819.06	27591
819.2	27755
819.341	27728
819.481	27652
819.622	27953
819.762	28078
819.903	27968
820.043	28040
820.184	27998
820.324	27797
820.465	27907
820.605	27911
820.746	27930
820.886	27633
821.026	27934
821.167	27949
821.307	27842
821.447	27724
821.588	27728
821.728	27690
821.868	27538
822.008	27344
822.149	27237
822.289	27230
822.429	27154
822.569	26876
822.709	27020
822.849	26842
822.99	26796
823.13	26682
823.27	26872
823.41	26682
823.55	26438
823.69	26644
823.83	26632
823.97	26442
824.11	26530
824.25	26309
824.389	26298
824.529	26499
824.669	26484
824.809	26495
824.949	26530
825.089	26583
825.228	26427
825.368	26298
825.508	26374
825.648	26396
825.787	26366
825.927	26419
826.067	26332
826.206	26404
826.346	26286
826.485	26275
826.625	26355
826.765	26396
826.904	26366
827.044	26111
827.183	26103
827.323	25986
827.462	26062
827.601	26020
827.741	25936
827.88	26046
828.02	25780
828.159	26020
828.298	26115
828.437	26126
828.577	25944
828.716	26119
828.855	26020
828.994	25670
829.134	25723
829.273	25761
829.412	25662
829.551	25727
829.69	25681
829.829	25811
829.968	25708
830.107	25746
830.246	25772
830.385	25628
830.524	25502
830.663	25594
830.802	25430
830.941	25354
831.08	25373
831.219	25289
831.357	25377
831.496	25605
831.635	25316
831.774	25255
831.913	25076
832.051	25129
832.19	25099
832.329	25232
832.467	25088
832.606	24943
832.744	24871
832.883	24989
833.022	24932
833.16	25076
833.299	25027
833.437	24996
833.576	25129
833.714	25080
833.852	25179
833.991	25099
834.129	25110
834.267	25187
834.406	25069
834.544	25171
834.682	25114
834.821	24973
834.959	25088
835.097	25038
835.235	24935
835.373	24844
835.511	25004
835.65	24875
835.788	24935
835.926	24863
836.064	24715
836.202	24787
836.34	24924
836.478	24947
836.615	24829
836.753	24840
836.891	24985
837.029	24844
837.167	24772
837.305	24837
837.443	24760
837.58	24684
837.718	24703
837.856	24798
837.993	24650
838.131	24772
838.269	24528
838.406	24574
838.544	24494
838.681	24372
838.819	24273
838.956	24152
839.094	24174
839.231	24167
839.369	24296
839.506	24585
839.643	24441
839.781	24155
839.918	24041
840.055	24022
840.193	24098
840.33	24003
840.467	24057
840.604	24136
840.742	24391
840.879	23969
841.016	23889
841.153	24041
841.29	24114
841.427	24144
841.564	24060
841.701	23904
841.838	24026
841.975	24049
842.112	23897
842.249	23901
842.385	23916
842.522	23973
842.659	23999
842.796	23779
842.933	23916
843.069	23813
843.206	23695
843.343	23901
843.479	23935
843.616	23813
843.752	23627
843.889	23714
844.025	23718
844.162	23623
844.298	23695
844.435	23714
844.571	23634
844.708	23634
844.844	23703
844.98	23657
845.117	23748
845.253	23589
845.389	23364
845.525	23562
845.661	23433
845.798	23273
845.934	23345
846.07	23402
846.206	23490
846.342	23402
846.478	23383
846.614	23003
846.75	22930
846.886	23044
847.022	23140
847.158	23029
847.294	22930
847.429	23086
847.565	23018
847.701	23330
847.837	22812
847.972	22862
848.108	22923
848.244	22866
848.379	22725
848.515	22588
848.65	22664
848.786	22489
848.921	22698
849.057	22793
849.192	22801
849.328	22736
849.463	22668
849.598	22588
849.734	22626
849.869	22455
850.004	22360
850.14	22413
850.275	22394
850.41	22409
850.545	22382
850.68	22455
850.815	22424
850.95	22402
851.085	22538
851.22	22542
851.355	22337
851.49	22352
851.625	22485
851.76	22478
851.895	22310
852.03	22348
852.165	22440
852.299	22451
852.434	22474
852.569	22466
852.703	22554
852.838	22485
852.973	22500
853.107	22527
853.242	22299
853.376	22398
853.511	22128
853.645	22150
853.78	22394
853.914	22314
854.048	22215
854.183	22173
854.317	22238
854.451	22535
854.585	22143
854.72	22215
854.854	22382
854.988	22162
855.122	22196
855.256	22036
855.39	22268
855.524	22314
855.658	22314
855.792	22196
855.926	22363
856.06	22265
856.194	22398
856.327	22249
856.461	22196
856.595	22166
856.729	22291
856.862	22371
856.996	22173
857.13	22230
857.263	22318
857.397	22352
857.53	22238
857.664	22238
857.797	22143
857.931	22497
858.064	22295
858.197	22268
858.331	22211
858.464	22162
858.597	22188
858.731	22200
858.864	22177
858.997	22101
859.13	22280
859.263	22284
859.396	22322
859.529	22230
859.662	22337
859.795	22257
859.928	22215
860.061	22238
860.194	22398
860.327	22489
860.46	22272
860.592	22295
860.725	22371
860.858	22280
860.99	22333
861.123	22135
861.256	22188
861.388	22177
861.521	22896
861.653	22051
861.786	22032
861.918	22166
862.05	22246
862.183	22029
862.315	22097
862.447	22204
862.58	22109
862.712	21975
862.844	21850
862.976	22010
863.108	21960
863.24	22341
863.372	21930
863.504	21968
863.636	21915
863.768	22139
863.9	21941
864.032	21949
864.164	21884
864.296	21857
864.428	22135
864.559	22029
864.691	22025
864.823	21873
864.954	21964
865.086	21838
865.217	21888
865.349	21888
865.48	21835
865.612	21720
865.743	21983
865.875	21827
866.006	21831
866.137	21983
866.269	21785
866.4	21835
866.531	21705
866.662	21732
866.793	21774
866.924	21778
867.055	21819
867.186	21755
867.317	21732
867.448	21720
867.579	21743
867.71	21686
867.841	21778
867.972	21770
868.103	21622
868.233	21728
868.364	21762
868.495	21857
868.625	21918
868.756	21945
868.886	21880
869.017	21987
869.147	22139
869.278	22093
869.408	22032
869.539	22109
869.669	22143
869.799	21987
869.929	22131
870.06	22109
870.19	22234
870.32	22257
870.45	22291
870.58	22310
870.71	22295
870.84	22474
870.97	22421
871.1	22382
871.23	22626
871.36	22516
871.489	22489
871.619	22432
871.749	22542
871.879	22672
872.008	22618
872.138	22493
872.267	22599
872.397	22478
872.526	22447
872.656	22470
872.785	22481
872.915	22573
873.044	22763
873.173	22565
873.303	22717
873.432	22744
873.561	22778
873.69	22687
873.819	22645
873.948	22691
874.077	22694
874.206	22565
874.335	22542
874.464	22820
874.593	22725
874.722	22797
874.851	22949
874.979	22812
875.108	22946
875.237	22850
875.365	22656
875.494	22831
875.623	22942
875.751	22733
875.88	22828
876.008	22991
876.136	23037
876.265	23296
876.393	23387
876.521	23231
876.65	23280
876.778	23330
876.906	23147
877.034	23136
877.162	23147
877.29	23159
877.418	23204
877.546	23140
877.674	23102
877.802	23269
877.93	23113
878.058	23094
878.185	22877
878.313	23162
878.441	23181
878.568	22995
878.696	23140
878.824	23181
878.951	23265
879.079	23254
879.206	23592
879.333	23265
879.461	23280
879.588	23341
879.715	23345
879.842	23429
879.97	23307
880.097	23006
880.224	22991
880.351	23010
880.478	23105
880.605	22900
880.732	22942
880.859	23220
880.986	23136
881.112	22938
881.239	22816
881.366	22664
881.493	22550
881.619	22546
881.746	22672
881.872	22557
881.999	22569
882.125	22596
882.252	22672
882.378	22504
882.505	22577
882.631	22497
882.757	22348
882.883	22337
883.01	22249
883.136	22303
883.262	22082
883.388	22226
883.514	22352
883.64	22200
883.766	22078
883.892	21934
884.018	22067
884.143	22188
884.269	22261
884.395	21835
884.52	21888
884.646	21816
884.772	21785
884.897	21831
885.023	21953
885.148	21960
885.274	21899
885.399	21930
885.524	21812
885.65	21903
885.775	21937
885.9	21876
886.025	21922
886.15	21964
886.275	21915
886.4	21709
886.525	21812
886.65	21728
886.775	21755
886.9	21987
887.025	22017
887.149	21736
887.274	21629
887.399	21656
887.523	21705
887.648	21561
887.773	21473
887.897	21732
888.021	21682
888.146	21644
888.27	21694
888.395	21736
888.519	21686
888.643	21644
888.767	21785
888.891	21515
889.015	21336
889.139	21393
889.263	21412
889.387	21519
889.511	21663
889.635	21580
889.759	21359
889.883	21435
890.006	21420
890.13	21591
890.254	21374
890.377	21332
890.501	21226
890.624	21070
890.748	21184
890.871	21055
890.995	21001
891.118	21039
891.241	21081
891.364	20952
891.488	21028
891.611	20998
891.734	21013
891.857	21096
891.98	21013
892.103	21047
892.226	20872
892.349	20990
892.471	20845
892.594	20842
892.717	20876
892.839	20872
892.962	20834
893.085	20899
893.207	20891
893.33	20876
893.452	20708
893.575	20887
893.697	20800
893.819	21001
893.941	21070
894.064	20960
894.186	20899
894.308	20659
894.43	20929
894.552	21047
894.674	20967
894.796	20746
894.918	20830
895.04	20762
895.161	20929
895.283	20982
895.405	20910
895.526	20883
895.648	20929
895.769	20941
895.891	20823
896.012	20853
896.134	20857
896.255	20967
896.376	20807
896.498	20872
896.619	20842
896.74	20883
896.861	20910
896.982	21066
897.103	21279
897.224	21146
897.345	21032
897.466	20941
897.587	21055
897.708	21203
897.828	20971
897.949	21123
898.07	20899
898.19	20979
898.311	21211
898.431	20872
898.552	20937
898.672	21192
898.792	21138
898.913	21100
899.033	20986
899.153	20933
899.273	20670
899.393	20845
899.513	20708
899.633	20895
899.753	20765
899.873	20617
899.993	20819
900.113	20777
900.232	20674
900.352	20541
900.472	20579
900.591	20598
900.711	20602
900.83	20492
900.95	20571
901.069	20625
901.189	20393
901.308	20183
901.427	20138
901.546	20221
901.665	20134
901.784	20202
901.904	20027
902.023	19909
902.141	19780
902.26	19616
902.379	19715
902.498	19651
902.617	19578
902.735	19681
902.854	19529
902.973	19624
903.091	19324
903.21	19381
903.328	19320
903.446	19244
903.565	19198
903.683	19114
903.801	19008
903.919	19069
904.038	18977
904.156	18905
904.274	18943
904.392	18970
904.51	18745
904.627	18878
904.745	18875
904.863	18844
904.981	18597
905.098	18616
905.216	18555
905.334	18604
905.451	18585
905.569	18460
905.686	18551
905.803	18551
905.921	18277
906.038	18391
906.155	18376
906.272	18216
906.389	18220
906.506	18060
906.623	18098
906.74	18083
906.857	17882
906.974	17878
907.091	18087
907.208	18171
907.324	18079
907.441	17942
907.557	17840
907.674	17684
907.79	17710
907.907	17767
908.023	17786
908.139	17737
908.256	17707
908.372	17672
908.488	17619
908.604	17455
908.72	17493
908.836	17520
908.952	17490
909.068	17452
909.184	17589
909.3	17493
909.415	17478
909.531	17486
909.647	17132
909.762	17200
909.878	17140
909.993	17330
910.108	17223
910.224	17003
910.339	17170
910.454	17029
910.57	17006
910.685	16873
910.8	17147
910.915	17098
911.03	16911
911.145	16843
911.259	16797
911.374	16839
911.489	16618
911.604	16641
911.718	16504
911.833	16527
911.947	16459
912.062	16337
912.176	16432
912.291	16542
912.405	16523
912.519	16626
912.633	16679
912.748	16554
912.862	16398
912.976	16325
913.09	16219
913.204	16329
913.318	16413
913.431	16352
913.545	16379
913.659	16394
913.772	16234
913.886	16093
914	16120
914.113	16219
914.226	16196
914.34	16147
914.453	15945
914.566	16086
914.68	16025
914.793	15987
914.906	15781
915.019	15759
915.132	15610
915.245	15797
915.358	15728
915.47	15705
915.583	15652
915.696	15713
915.809	15778
915.921	15755
916.034	15595
916.146	15507
916.259	15580
916.371	15606
916.483	15652
916.595	15545
916.708	15481
916.82	15435
916.932	15485
917.044	15450
917.156	15344
917.268	15401
917.38	15321
917.491	15268
917.603	15291
917.715	15439
917.826	15363
917.938	15332
918.049	15131
918.161	15222
918.272	15496
918.384	15435
918.495	15230
918.606	15100
918.717	15108
918.828	15089
918.939	15043
919.05	14952
919.161	15024
919.272	14842
919.383	14918
919.494	15138
919.604	15294
919.715	14925
919.826	14929
919.936	14975
920.047	15131
920.157	15100
920.267	15157
920.378	15009
920.488	14963
920.598	15176
920.708	15313
920.818	15100
920.928	15123
921.038	15287
921.148	15192
921.258	15032
921.368	14838
921.477	14796
921.587	14731
921.697	14617
921.806	14777
921.916	14507
922.025	14503
922.134	14484
922.244	14408
922.353	14339
922.462	14206
922.571	14275
922.68	14100
922.789	14069
922.898	14012
923.007	13887
923.116	14073
923.224	14031
923.333	13993
923.442	13826
923.55	13776
923.659	13860
923.767	14035
923.876	13791
923.984	13837
924.092	13689
924.201	13776
924.309	13761
924.417	13753
924.525	13651
924.633	13620
924.741	14461
924.849	13499
924.956	13605
925.064	13457
925.172	13381
925.279	13430
925.387	13422
925.494	13392
925.602	13533
925.709	13392
925.816	13354
925.924	13339
926.031	13419
926.138	13384
926.245	13407
926.352	13175
926.459	13308
926.566	13400
926.673	13316
926.779	13091
926.886	13160
926.993	13038
927.099	13034
927.206	12977
927.312	12901
927.419	13072
927.525	12916
927.631	13042
927.737	12848
927.843	12867
927.95	12688
928.056	12802
928.162	12821
928.267	12844
928.373	13396
928.479	12897
928.585	12658
928.69	12787
928.796	12692
928.901	12642
929.007	12517
929.112	12696
929.218	12536
929.323	12486
929.428	12563
929.533	12665
929.638	12414
929.743	12513
929.848	12441
929.953	12452
930.058	12308
930.163	12197
930.267	12277
930.372	12330
930.477	12129
930.581	12391
930.685	12251
930.79	12083
930.894	12068
930.998	12057
931.103	12171
931.207	11786
931.311	11741
931.415	11661
931.519	11402
931.623	11334
