Data from test_V78500241_675.txt Node
Date: Fri Mar 25 15:46:28 CST 2022
User: usil
Spectrometer: V785-0024
Trigger mode: 0
Integration Time (sec): 4.000000E-1
Scans to average: 1
Nonlinearity correction enabled: false
Boxcar width: 0
Storing dark spectrum: false
XAxis mode: Wavelengths
Number of Pixels in Spectrum: 1024
>>>>>Begin Spectral Data<<<<<
801.071	28124
801.214	27907
801.356	27663
801.499	27610
801.641	27485
801.783	27447
801.926	27766
802.068	27610
802.211	27469
802.353	27374
802.496	27176
802.638	27283
802.78	27218
802.923	27100
803.065	27173
803.208	27302
803.35	27180
803.492	27397
803.635	27336
803.777	27344
803.919	27427
804.061	27724
804.204	27427
804.346	27386
804.488	27230
804.63	27313
804.773	27302
804.915	27439
805.057	27610
805.199	27367
805.341	27439
805.483	27454
805.626	27439
805.768	27496
805.91	27397
806.052	27625
806.194	27496
806.336	27709
806.478	27511
806.62	27576
806.762	27671
806.904	27823
807.046	27979
807.188	28006
807.33	27854
807.472	27972
807.614	27972
807.756	27956
807.898	27960
808.04	27732
808.182	27759
808.324	27838
808.465	27869
808.607	28002
808.749	28013
808.891	28207
809.033	28367
809.174	28173
809.316	28234
809.458	28287
809.6	28436
809.741	28337
809.883	28436
810.025	28542
810.166	28451
810.308	28455
810.45	28554
810.591	28382
810.733	28093
810.875	28223
811.016	27994
811.158	28135
811.299	28234
811.441	28337
811.582	28299
811.724	28230
811.865	28109
812.007	28147
812.148	28055
812.29	28303
812.431	28268
812.573	28455
812.714	28733
812.855	28637
812.997	28839
813.138	29113
813.279	28854
813.421	28805
813.562	28512
813.703	28592
813.845	28394
813.986	28154
814.127	28055
814.268	28013
814.41	27918
814.551	27838
814.692	27945
814.833	27774
814.974	27945
815.115	27789
815.256	27736
815.397	27781
815.539	27652
815.68	27622
815.821	27656
815.962	27633
816.103	27762
816.244	27633
816.385	27492
816.526	27268
816.666	27245
816.807	27207
816.948	27195
817.089	27260
817.23	27287
817.371	27127
817.512	27291
817.653	27302
817.793	27074
817.934	27184
818.075	27222
818.216	27112
818.356	27138
818.497	27043
818.638	27055
818.778	26967
818.919	26971
819.06	27055
819.2	27047
819.341	27294
819.481	27169
819.622	27344
819.762	27485
819.903	27424
820.043	27325
820.184	27264
820.324	27154
820.465	27241
820.605	27291
820.746	27313
820.886	27142
821.026	27310
821.167	27359
821.307	27348
821.447	27218
821.588	27165
821.728	26998
821.868	26807
822.008	26758
822.149	26632
822.289	26640
822.429	26290
822.569	26404
822.709	26336
822.849	26199
822.99	26100
823.13	26206
823.27	26054
823.41	25947
823.55	26008
823.69	25845
823.83	26005
823.97	25860
824.11	25811
824.25	25746
824.389	25803
824.529	25955
824.669	25864
824.809	25868
824.949	26039
825.089	26050
825.228	25951
825.368	25689
825.508	25811
825.648	25647
825.787	25738
825.927	25814
826.067	25586
826.206	25765
826.346	25784
826.485	25727
826.625	25670
826.765	25826
826.904	25639
827.044	25483
827.183	25441
827.323	25453
827.462	25479
827.601	25392
827.741	25301
827.88	25525
828.02	25457
828.159	25316
828.298	25369
828.437	25510
828.577	25373
828.716	25590
828.855	25324
828.994	25148
829.134	25145
829.273	25114
829.412	25019
829.551	25122
829.69	25221
829.829	25091
829.968	25000
830.107	25107
830.246	25183
830.385	25034
830.524	25091
830.663	24916
830.802	24711
830.941	24764
831.08	24810
831.219	24772
831.357	24612
831.496	24970
831.635	24734
831.774	24707
831.913	24544
832.051	24608
832.19	24483
832.329	24566
832.467	24483
832.606	24433
832.744	24296
832.883	24399
833.022	24361
833.16	24369
833.299	24422
833.437	24403
833.576	24418
833.714	24388
833.852	24517
833.991	24574
834.129	24551
834.267	24532
834.406	24528
834.544	24589
834.682	24399
834.821	24384
834.959	24521
835.097	24391
835.235	24460
835.373	24456
835.511	24338
835.65	24528
835.788	24239
835.926	24262
836.064	24167
836.202	24129
836.34	24201
836.478	24361
836.615	24201
836.753	24270
836.891	24407
837.029	24224
837.167	24224
837.305	24235
837.443	24098
837.58	24167
837.718	24171
837.856	24209
837.993	24045
838.131	24072
838.269	23878
838.406	23912
838.544	23817
838.681	23836
838.819	23608
838.956	23592
839.094	23471
839.231	23630
839.369	23752
839.506	23889
839.643	23821
839.781	23551
839.918	23627
840.055	23684
840.193	23440
840.33	23478
840.467	23581
840.604	23474
840.742	23840
840.879	23478
841.016	23398
841.153	23265
841.29	23608
841.427	23516
841.564	23501
841.701	23554
841.838	23433
841.975	23315
842.112	23398
842.249	23303
842.385	23337
842.522	23391
842.659	23292
842.796	23265
842.933	23326
843.069	23162
843.206	23337
843.343	23345
843.479	23303
843.616	23166
843.752	23025
843.889	22919
844.025	23181
844.162	22862
844.298	23136
844.435	23041
844.571	23022
844.708	23075
844.844	23109
844.98	23067
845.117	23071
845.253	22824
845.389	22927
845.525	22896
845.661	22763
845.798	22793
845.934	22816
846.07	22790
846.206	22835
846.342	22946
846.478	22664
846.614	22649
846.75	22379
846.886	22432
847.022	22611
847.158	22428
847.294	22531
847.429	22599
847.565	22485
847.701	22744
847.837	22211
847.972	22257
848.108	22337
848.244	22200
848.379	22093
848.515	22074
848.65	22044
848.786	22067
848.921	22055
849.057	22230
849.192	22177
849.328	22181
849.463	22074
849.598	22074
849.734	21975
849.869	21903
850.004	21949
850.14	21842
850.275	21873
850.41	21720
850.545	21739
850.68	21774
850.815	21953
850.95	21797
851.085	22097
851.22	22040
851.355	21911
851.49	21861
851.625	21808
851.76	21827
851.895	21751
852.03	21732
852.165	21838
852.299	21846
852.434	21884
852.569	21861
852.703	21835
852.838	21899
852.973	21941
853.107	21941
853.242	21736
853.376	21720
853.511	21530
853.645	21709
853.78	21766
853.914	21663
854.048	21572
854.183	21644
854.317	21610
854.451	21819
854.585	21698
854.72	21633
854.854	21660
854.988	21561
855.122	21599
855.256	21450
855.39	21648
855.524	21698
855.658	21682
855.792	21724
855.926	21781
856.06	21759
856.194	21732
856.327	21641
856.461	21526
856.595	21679
856.729	21717
856.862	21835
856.996	21682
857.13	21690
857.263	21785
857.397	21671
857.53	21618
857.664	21713
857.797	21679
857.931	21755
858.064	21720
858.197	21785
858.331	21705
858.464	21572
858.597	21450
858.731	21561
858.864	21671
858.997	21496
859.13	21717
859.263	21797
859.396	21865
859.529	21755
859.662	21557
859.795	21606
859.928	21606
860.061	21759
860.194	21880
860.327	21641
860.46	21614
860.592	21778
860.725	21812
860.858	21747
860.99	21633
861.123	21667
861.256	21663
861.388	21557
861.521	22204
861.653	21656
861.786	21523
861.918	21507
862.05	21500
862.183	21530
862.315	21557
862.447	21701
862.58	21519
862.712	21439
862.844	21443
862.976	21363
863.108	21492
863.24	21743
863.372	21291
863.504	21344
863.636	21302
863.768	21424
863.9	21428
864.032	21367
864.164	21378
864.296	21538
864.428	21439
864.559	21511
864.691	21355
864.823	21553
864.954	21329
865.086	21454
865.217	21146
865.349	21268
865.48	21294
865.612	21351
865.743	21466
865.875	21298
866.006	21256
866.137	21310
866.269	21272
866.4	21184
866.531	21180
866.662	20986
866.793	21165
866.924	21154
867.055	21214
867.186	21176
867.317	21176
867.448	21100
867.579	21195
867.71	21085
867.841	21085
867.972	21192
868.103	21169
868.233	21154
868.364	21264
868.495	21283
868.625	21420
868.756	21545
868.886	21310
869.017	21317
869.147	21583
869.278	21481
869.408	21507
869.539	21435
869.669	21485
869.799	21412
869.929	21530
870.06	21648
870.19	21660
870.32	21743
870.45	21759
870.58	21861
870.71	21987
870.84	21808
870.97	21781
871.1	21857
871.23	22025
871.36	22025
871.489	21915
871.619	21934
871.749	21960
871.879	22063
872.008	22120
872.138	22120
872.267	22021
872.397	21960
872.526	21823
872.656	21747
872.785	21934
872.915	22021
873.044	22051
873.173	22177
873.303	22032
873.432	22105
873.561	22093
873.69	21994
873.819	21831
873.948	22200
874.077	22109
874.206	22055
874.335	22036
874.464	22105
874.593	22246
874.722	22154
874.851	22428
874.979	22219
875.108	22306
875.237	22143
875.365	22128
875.494	22261
875.623	22341
875.751	22303
875.88	22276
876.008	22360
876.136	22386
876.265	22771
876.393	22706
876.521	22698
876.65	22706
876.778	22569
876.906	22584
877.034	22512
877.162	22717
877.29	22596
877.418	22637
877.546	22569
877.674	22527
877.802	22653
877.93	22660
878.058	22527
878.185	22550
878.313	22668
878.441	22557
878.568	22413
878.696	22607
878.824	22694
878.951	22634
879.079	22797
879.206	22767
879.333	22782
879.461	22622
879.588	22782
879.715	22843
879.842	22877
879.97	22702
880.097	22451
880.224	22466
880.351	22405
880.478	22489
880.605	22303
880.732	22356
880.859	22584
880.986	22466
881.112	22409
881.239	22322
881.366	22139
881.493	22135
881.619	22002
881.746	22078
881.872	22002
881.999	21991
882.125	21865
882.252	21968
882.378	21895
882.505	22051
882.631	21743
882.757	21679
882.883	21827
883.01	21644
883.136	21618
883.262	21477
883.388	21515
883.514	21625
883.64	21785
883.766	21572
883.892	21302
884.018	21401
884.143	21633
884.269	21701
884.395	21348
884.52	21195
884.646	21443
884.772	21218
884.897	21256
885.023	21245
885.148	21424
885.274	21454
885.399	21526
885.524	21344
885.65	21321
885.775	21367
885.9	21294
886.025	21401
886.15	21386
886.275	21252
886.4	21100
886.525	21298
886.65	21195
886.775	21256
886.9	21420
887.025	21431
887.149	21359
887.274	21184
887.399	21074
887.523	21081
887.648	21066
887.773	20948
887.897	21096
888.021	21176
888.146	21180
888.27	21184
888.395	21138
888.519	21180
888.643	21062
888.767	21074
888.891	21020
889.015	20967
889.139	21028
889.263	20883
889.387	20952
889.511	21089
889.635	20967
889.759	20952
889.883	20895
890.006	20849
890.13	20933
890.254	20777
890.377	20796
890.501	20632
890.624	20514
890.748	20636
890.871	20632
890.995	20469
891.118	20317
891.241	20571
891.364	20469
891.488	20651
891.611	20446
891.734	20476
891.857	20427
891.98	20408
892.103	20549
892.226	20343
892.349	20404
892.471	20282
892.594	20370
892.717	20480
892.839	20347
892.962	20385
893.085	20419
893.207	20324
893.33	20180
893.452	20336
893.575	20301
893.697	20355
893.819	20545
893.941	20541
894.064	20465
894.186	20252
894.308	20221
894.43	20377
894.552	20473
894.674	20320
894.796	20263
894.918	20339
895.04	20313
895.161	20389
895.283	20351
895.405	20256
895.526	20366
895.648	20408
895.769	20256
895.891	20404
896.012	20514
896.134	20377
896.255	20313
896.376	20317
896.498	20400
896.619	20301
896.74	20347
896.861	20366
896.982	20674
897.103	20815
897.224	20640
897.345	20636
897.466	20625
897.587	20507
897.708	20667
897.828	20556
897.949	20537
898.07	20427
898.19	20370
898.311	20636
898.431	20545
898.552	20583
898.672	20640
898.792	20712
898.913	20667
899.033	20370
899.153	20431
899.273	20248
899.393	20153
899.513	20381
899.633	20381
899.753	20286
899.873	20145
899.993	20362
900.113	20225
900.232	20317
900.352	20214
900.472	20187
900.591	20073
900.711	20267
900.83	20107
900.95	20024
901.069	20210
901.189	20035
901.308	19769
901.427	19601
901.546	19643
901.665	19658
901.784	19651
901.904	19510
902.023	19480
902.141	19266
902.26	19274
902.379	19148
902.498	19190
902.617	19175
902.735	19213
902.854	19107
902.973	19118
903.091	18886
903.21	18760
903.328	18928
903.446	18726
903.565	18707
903.683	18688
903.801	18460
903.919	18658
904.038	18566
904.156	18479
904.274	18589
904.392	18403
904.51	18342
904.627	18353
904.745	18448
904.863	18448
904.981	18220
905.098	18106
905.216	18030
905.334	18041
905.451	18163
905.569	18114
905.686	18091
905.803	18072
905.921	17950
906.038	17961
906.155	17889
906.272	17771
906.389	17794
906.506	17687
906.623	17558
906.74	17718
906.857	17547
906.974	17436
907.091	17703
907.208	17714
907.324	17604
907.441	17611
907.557	17353
907.674	17231
907.79	17246
907.907	17193
908.023	17265
908.139	17330
908.256	17315
908.372	17311
908.488	17109
908.604	17174
908.72	17067
908.836	16972
908.952	17041
909.068	17060
909.184	17155
909.3	17018
909.415	17105
909.531	17037
909.647	16881
909.762	16752
909.878	16767
909.993	16774
910.108	16698
910.224	16664
910.339	16877
910.454	16603
910.57	16497
910.685	16531
910.8	16816
910.915	16698
911.03	16508
911.145	16382
911.259	16314
911.374	16375
911.489	16246
911.604	16268
911.718	16067
911.833	16101
911.947	16029
912.062	15915
912.176	16071
912.291	16188
912.405	16154
912.519	16272
912.633	16386
912.748	16078
912.862	16105
912.976	15972
913.09	15755
913.204	15850
913.318	15884
913.431	16017
913.545	15979
913.659	15964
913.772	15789
913.886	15686
914	15747
914.113	15770
914.226	15774
914.34	15743
914.453	15663
914.566	15778
914.68	15595
914.793	15488
914.906	15344
915.019	15313
915.132	15275
915.245	15230
915.358	15252
915.47	15302
915.583	15355
915.696	15233
915.809	15378
915.921	15435
916.034	15142
916.146	15184
916.259	15127
916.371	15241
916.483	15279
916.595	15074
916.708	15108
916.82	15154
916.932	15146
917.044	15089
917.156	15047
917.268	14891
917.38	15001
917.491	14872
917.603	14963
917.715	14963
917.826	15104
917.938	14849
918.049	14826
918.161	14979
918.272	14975
918.384	14967
918.495	14914
918.606	14625
918.717	14571
918.828	14804
918.939	14804
919.05	14617
919.161	14640
919.272	14556
919.383	14488
919.494	14636
919.604	14834
919.715	14686
919.826	14644
919.936	14621
920.047	14739
920.157	14773
920.267	14857
920.378	14724
920.488	14606
920.598	14712
920.708	14929
920.818	14804
920.928	14777
921.038	14933
921.148	14891
921.258	14602
921.368	14503
921.477	14408
921.587	14419
921.697	14278
921.806	14389
921.916	14240
922.025	14054
922.134	14020
922.244	13963
922.353	14046
922.462	13856
922.571	13871
922.68	13769
922.789	13704
922.898	13670
923.007	13693
923.116	13628
923.224	13647
923.333	13662
923.442	13499
923.55	13449
923.659	13601
923.767	13548
923.876	13495
923.984	13616
924.092	13426
924.201	13419
924.309	13422
924.417	13502
924.525	13316
924.633	13274
924.741	14210
924.849	13160
924.956	13301
925.064	13095
925.172	13019
925.279	13091
925.387	13088
925.494	13114
925.602	13278
925.709	13183
925.816	12989
925.924	13053
926.031	13088
926.138	13027
926.245	13031
926.352	12920
926.459	13053
926.566	13061
926.673	12894
926.779	12821
926.886	12871
926.993	12635
927.099	12597
927.206	12635
927.312	12547
927.419	12593
927.525	12646
927.631	12673
927.737	12532
927.843	12574
927.95	12369
928.056	12422
928.162	12418
928.267	12479
928.373	13187
928.479	12517
928.585	12369
928.69	12372
928.796	12456
928.901	12296
929.007	12186
929.112	12289
929.218	12384
929.323	12266
929.428	12121
929.533	12342
929.638	12167
929.743	12140
929.848	12110
929.953	12167
930.058	11961
930.163	11851
930.267	11996
930.372	11931
930.477	11817
930.581	11946
930.685	11958
930.79	11737
930.894	11813
930.998	11722
931.103	11908
931.207	11512
931.311	11490
931.415	11303
931.519	11143
931.623	11178
