Data from test_V78500241_740.txt Node
Date: Fri Mar 25 15:46:55 CST 2022
User: usil
Spectrometer: V785-0024
Trigger mode: 0
Integration Time (sec): 4.000000E-1
Scans to average: 1
Nonlinearity correction enabled: false
Boxcar width: 0
Storing dark spectrum: false
XAxis mode: Wavelengths
Number of Pixels in Spectrum: 1024
>>>>>Begin Spectral Data<<<<<
801.071	28185
801.214	28086
801.356	27804
801.499	27812
801.641	27614
801.783	27591
801.926	27599
802.068	27637
802.211	27507
802.353	27458
802.496	27203
802.638	27218
802.78	27344
802.923	27214
803.065	27237
803.208	27237
803.35	27374
803.492	27321
803.635	27306
803.777	27386
803.919	27496
804.061	27671
804.204	27583
804.346	27405
804.488	27408
804.63	27545
804.773	27321
804.915	27591
805.057	27595
805.199	27606
805.341	27629
805.483	27587
805.626	27564
805.768	27557
805.91	27720
806.052	27587
806.194	27523
806.336	27895
806.478	27701
806.62	27766
806.762	27808
806.904	27960
807.046	28181
807.188	28181
807.33	28074
807.472	28059
807.614	28082
807.756	28097
807.898	27930
808.04	27857
808.182	27846
808.324	27930
808.465	27835
808.607	28154
808.749	28257
808.891	28314
809.033	28382
809.174	28401
809.316	28295
809.458	28306
809.6	28405
809.741	28405
809.883	28440
810.025	28538
810.166	28569
810.308	28573
810.45	28527
810.591	28485
810.733	28432
810.875	28257
811.016	28253
811.158	28192
811.299	28405
811.441	28409
811.582	28310
811.724	28443
811.865	28272
812.007	28333
812.148	28341
812.29	28325
812.431	28508
812.573	28645
812.714	28759
812.855	28812
812.997	28828
813.138	28976
813.279	28980
813.421	28793
813.562	28759
813.703	28474
813.845	28588
813.986	28284
814.127	28249
814.268	28040
814.41	27987
814.551	27949
814.692	28021
814.833	28169
814.974	27892
815.115	28086
815.256	27789
815.397	27911
815.539	27835
815.68	27686
815.821	27736
815.962	27641
816.103	27713
816.244	27603
816.385	27648
816.526	27648
816.666	27431
816.807	27275
816.948	27363
817.089	27561
817.23	27367
817.371	27264
817.512	27310
817.653	27222
817.793	27302
817.934	27344
818.075	27241
818.216	27233
818.356	27184
818.497	27237
818.638	26979
818.778	27032
818.919	27108
819.06	27211
819.2	27154
819.341	27184
819.481	27321
819.622	27511
819.762	27686
819.903	27648
820.043	27408
820.184	27458
820.324	27427
820.465	27557
820.605	27374
820.746	27408
820.886	27237
821.026	27302
821.167	27382
821.307	27473
821.447	27405
821.588	27279
821.728	27173
821.868	26899
822.008	26800
822.149	26895
822.289	26727
822.429	26465
822.569	26495
822.709	26423
822.849	26195
822.99	26282
823.13	26298
823.27	26271
823.41	26065
823.55	26084
823.69	26149
823.83	26161
823.97	25974
824.11	25921
824.25	25906
824.389	25906
824.529	25887
824.669	25871
824.809	26069
824.949	26065
825.089	26111
825.228	25955
825.368	25849
825.508	25776
825.648	25681
825.787	25864
825.927	25852
826.067	25791
826.206	25757
826.346	25917
826.485	25887
826.625	25772
826.765	25784
826.904	25894
827.044	25575
827.183	25506
827.323	25502
827.462	25635
827.601	25529
827.741	25460
827.88	25392
828.02	25358
828.159	25491
828.298	25521
828.437	25479
828.577	25426
828.716	25548
828.855	25426
828.994	25156
829.134	25179
829.273	25358
829.412	25206
829.551	25038
829.69	25263
829.829	25301
829.968	25217
830.107	25335
830.246	25179
830.385	25209
830.524	25175
830.663	24977
830.802	24901
830.941	24791
831.08	24783
831.219	24920
831.357	24935
831.496	25080
831.635	24760
831.774	24688
831.913	24726
832.051	24871
832.19	24601
832.329	24620
832.467	24433
832.606	24517
832.744	24525
832.883	24391
833.022	24471
833.16	24505
833.299	24505
833.437	24593
833.576	24574
833.714	24551
833.852	24452
833.991	24696
834.129	24669
834.267	24608
834.406	24612
834.544	24502
834.682	24582
834.821	24525
834.959	24776
835.097	24445
835.235	24517
835.373	24566
835.511	24505
835.65	24429
835.788	24429
835.926	24254
836.064	24159
836.202	24262
836.34	24376
836.478	24540
836.615	24365
836.753	24445
836.891	24467
837.029	24304
837.167	24258
837.305	24216
837.443	24254
837.58	24205
837.718	24262
837.856	24300
837.993	24235
838.131	24232
838.269	24095
838.406	24102
838.544	23946
838.681	23923
838.819	23878
838.956	23649
839.094	23756
839.231	23653
839.369	23866
839.506	24121
839.643	23893
839.781	23661
839.918	23589
840.055	23699
840.193	23623
840.33	23668
840.467	23630
840.604	23524
840.742	23946
840.879	23444
841.016	23592
841.153	23600
841.29	23718
841.427	23577
841.564	23615
841.701	23661
841.838	23531
841.975	23509
842.112	23497
842.249	23452
842.385	23353
842.522	23516
842.659	23421
842.796	23303
842.933	23433
843.069	23197
843.206	23246
843.343	23414
843.479	23376
843.616	23315
843.752	23132
843.889	23124
844.025	23155
844.162	23147
844.298	23140
844.435	23128
844.571	23105
844.708	23231
844.844	23216
844.98	23220
845.117	23212
845.253	23071
845.389	23010
845.525	23010
845.661	22942
845.798	22927
845.934	22938
846.07	22858
846.206	22923
846.342	23003
846.478	22771
846.614	22603
846.75	22596
846.886	22626
847.022	22698
847.158	22554
847.294	22645
847.429	22645
847.565	22630
847.701	22748
847.837	22379
847.972	22253
848.108	22386
848.244	22329
848.379	22246
848.515	22112
848.65	22131
848.786	22082
848.921	22166
849.057	22272
849.192	22226
849.328	22314
849.463	22044
849.598	22154
849.734	22124
849.869	22025
850.004	21907
850.14	21918
850.275	21926
850.41	21865
850.545	21930
850.68	21785
850.815	21956
850.95	21975
851.085	22025
851.22	21945
851.355	21994
851.49	21907
851.625	21861
851.76	21960
851.895	21850
852.03	21892
852.165	21876
852.299	21960
852.434	22116
852.569	21915
852.703	21911
852.838	22032
852.973	22074
853.107	21991
853.242	21899
853.376	21770
853.511	21709
853.645	21694
853.78	21804
853.914	21778
854.048	21800
854.183	21789
854.317	21785
854.451	22006
854.585	21679
854.72	21686
854.854	21937
854.988	21804
855.122	21800
855.256	21652
855.39	21675
855.524	21785
855.658	21770
855.792	21755
855.926	21842
856.06	21846
856.194	21804
856.327	21720
856.461	21610
856.595	21778
856.729	21778
856.862	21975
856.996	21800
857.13	21808
857.263	21884
857.397	21781
857.53	21694
857.664	21797
857.797	21701
857.931	21762
858.064	21808
858.197	21850
858.331	21850
858.464	21572
858.597	21603
858.731	21804
858.864	21774
858.997	21736
859.13	21713
859.263	21747
859.396	21850
859.529	21736
859.662	21728
859.795	21720
859.928	21637
860.061	21846
860.194	21991
860.327	21739
860.46	21915
860.592	21873
860.725	21903
860.858	21865
860.99	21850
861.123	21739
861.256	21663
861.388	21808
861.521	22432
861.653	21717
861.786	21523
861.918	21519
862.05	21713
862.183	21595
862.315	21652
862.447	21736
862.58	21622
862.712	21492
862.844	21401
862.976	21447
863.108	21557
863.24	21956
863.372	21435
863.504	21526
863.636	21469
863.768	21542
863.9	21408
864.032	21291
864.164	21428
864.296	21500
864.428	21492
864.559	21481
864.691	21618
864.823	21405
864.954	21526
865.086	21488
865.217	21389
865.349	21355
865.48	21378
865.612	21332
865.743	21439
865.875	21378
866.006	21325
866.137	21260
866.269	21370
866.4	21397
866.531	21222
866.662	21184
866.793	21340
866.924	21348
867.055	21214
867.186	21329
867.317	21207
867.448	21142
867.579	21367
867.71	21176
867.841	21074
867.972	21340
868.103	21226
868.233	21321
868.364	21340
868.495	21344
868.625	21519
868.756	21652
868.886	21458
869.017	21477
869.147	21583
869.278	21618
869.408	21492
869.539	21618
869.669	21504
869.799	21606
869.929	21622
870.06	21580
870.19	21857
870.32	21770
870.45	21911
870.58	21918
870.71	21911
870.84	22150
870.97	21869
871.1	21911
871.23	22074
871.36	22135
871.489	21987
871.619	22067
871.749	22036
871.879	22112
872.008	22295
872.138	22173
872.267	22059
872.397	21930
872.526	21899
872.656	21918
872.785	21953
872.915	22211
873.044	22188
873.173	22070
873.303	22124
873.432	22055
873.561	22215
873.69	22150
873.819	22109
873.948	22299
874.077	22219
874.206	22010
874.335	22112
874.464	22147
874.593	22337
874.722	22409
874.851	22390
874.979	22413
875.108	22375
875.237	22299
875.365	22272
875.494	22451
875.623	22413
875.751	22318
875.88	22436
876.008	22367
876.136	22443
876.265	22771
876.393	22801
876.521	22828
876.65	22869
876.778	22725
876.906	22706
877.034	22687
877.162	22793
877.29	22630
877.418	22759
877.546	22801
877.674	22679
877.802	22565
877.93	22778
878.058	22641
878.185	22618
878.313	22835
878.441	22725
878.568	22478
878.696	22664
878.824	22774
878.951	22809
879.079	22782
879.206	22999
879.333	22934
879.461	22713
879.588	22828
879.715	22911
879.842	23003
879.97	22763
880.097	22538
880.224	22443
880.351	22466
880.478	22527
880.605	22417
880.732	22478
880.859	22717
880.986	22504
881.112	22542
881.239	22382
881.366	22371
881.493	22303
881.619	22101
881.746	22120
881.872	22196
881.999	22002
882.125	22010
882.252	22097
882.378	21972
882.505	22166
882.631	21937
882.757	21800
882.883	21865
883.01	21857
883.136	21751
883.262	21679
883.388	21641
883.514	21838
883.64	21819
883.766	21641
883.892	21496
884.018	21663
884.143	21770
884.269	21838
884.395	21462
884.52	21382
884.646	21374
884.772	21329
884.897	21291
885.023	21428
885.148	21488
885.274	21618
885.399	21500
885.524	21462
885.65	21370
885.775	21549
885.9	21408
886.025	21511
886.15	21492
886.275	21386
886.4	21340
886.525	21363
886.65	21283
886.775	21252
886.9	21542
887.025	21648
887.149	21401
887.274	21245
887.399	21294
887.523	21131
887.648	21207
887.773	21138
887.897	21237
888.021	21199
888.146	21165
888.27	21233
888.395	21203
888.519	21230
888.643	21154
888.767	21279
888.891	21142
889.015	20998
889.139	20998
889.263	20963
889.387	21142
889.511	21176
889.635	20994
889.759	21039
889.883	20891
890.006	20933
890.13	21047
890.254	20887
890.377	20777
890.501	20712
890.624	20739
890.748	20804
890.871	20727
890.995	20636
891.118	20461
891.241	20514
891.364	20480
891.488	20686
891.611	20518
891.734	20530
891.857	20606
891.98	20552
892.103	20640
892.226	20594
892.349	20575
892.471	20385
892.594	20560
892.717	20476
892.839	20309
892.962	20495
893.085	20408
893.207	20457
893.33	20324
893.452	20336
893.575	20366
893.697	20431
893.819	20617
893.941	20621
894.064	20579
894.186	20328
894.308	20324
894.43	20594
894.552	20495
894.674	20442
894.796	20366
894.918	20537
895.04	20450
895.161	20488
895.283	20374
895.405	20347
895.526	20336
895.648	20336
895.769	20423
895.891	20419
896.012	20533
896.134	20518
896.255	20313
896.376	20419
896.498	20495
896.619	20503
896.74	20404
896.861	20511
896.982	20777
897.103	20811
897.224	20682
897.345	20617
897.466	20686
897.587	20701
897.708	20853
897.828	20667
897.949	20621
898.07	20465
898.19	20632
898.311	20689
898.431	20651
898.552	20705
898.672	20594
898.792	20655
898.913	20594
899.033	20499
899.153	20408
899.273	20320
899.393	20320
899.513	20370
899.633	20332
899.753	20355
899.873	20263
899.993	20427
900.113	20324
900.232	20358
900.352	20450
900.472	20119
900.591	20134
900.711	20164
900.83	20187
900.95	20286
901.069	20206
901.189	20096
901.308	19803
901.427	19780
901.546	19677
901.665	19879
901.784	19727
901.904	19605
902.023	19487
902.141	19244
902.26	19407
902.379	19422
902.498	19232
902.617	19198
902.735	19293
902.854	19209
902.973	19141
903.091	18954
903.21	19034
903.328	19004
903.446	18791
903.565	18711
903.683	18639
903.801	18681
903.919	18703
904.038	18703
904.156	18414
904.274	18608
904.392	18399
904.51	18384
904.627	18479
904.745	18506
904.863	18479
904.981	18289
905.098	18136
905.216	18129
905.334	18159
905.451	18095
905.569	18133
905.686	18178
905.803	18144
905.921	17893
906.038	18022
906.155	18003
906.272	17870
906.389	17828
906.506	17752
906.623	17798
906.74	17775
906.857	17615
906.974	17596
907.091	17661
907.208	17802
907.324	17752
907.441	17642
907.557	17440
907.674	17326
907.79	17372
907.907	17452
908.023	17459
908.139	17417
908.256	17334
908.372	17246
908.488	17345
908.604	17071
908.72	17079
908.836	17181
908.952	17060
909.068	17124
909.184	17159
909.3	17136
909.415	17136
909.531	17056
909.647	16801
909.762	16877
909.878	16717
909.993	16881
910.108	16812
910.224	16752
910.339	16797
910.454	16759
910.57	16641
910.685	16630
910.8	16759
910.915	16752
911.03	16645
911.145	16489
911.259	16481
911.374	16424
911.489	16318
911.604	16261
911.718	16162
911.833	16109
911.947	16131
912.062	16063
912.176	16196
912.291	16086
912.405	16105
912.519	16341
912.633	16310
912.748	16188
912.862	16139
912.976	15979
913.09	15953
913.204	15876
913.318	15991
913.431	16097
913.545	16063
913.659	16036
913.772	15846
913.886	15895
914	15686
914.113	15800
914.226	15899
914.34	15789
914.453	15800
914.566	15831
914.68	15736
914.793	15641
914.906	15401
915.019	15332
915.132	15370
915.245	15420
915.358	15367
915.47	15294
915.583	15268
915.696	15317
915.809	15439
915.921	15477
916.034	15313
916.146	15252
916.259	15104
916.371	15416
916.483	15279
916.595	15214
916.708	15207
916.82	15214
916.932	15138
917.044	15081
917.156	15039
917.268	15043
917.38	14994
917.491	15070
917.603	15005
917.715	15154
917.826	15104
917.938	14914
918.049	14788
918.161	14963
918.272	15081
918.384	15074
918.495	14948
918.606	14785
918.717	14670
918.828	14845
918.939	14849
919.05	14632
919.161	14811
919.272	14537
919.383	14678
919.494	14842
919.604	14857
919.715	14762
919.826	14693
919.936	14746
920.047	14788
920.157	14720
920.267	14906
920.378	14727
920.488	14667
920.598	14868
920.708	15009
920.818	14883
920.928	14876
921.038	14948
921.148	14925
921.258	14632
921.368	14522
921.477	14499
921.587	14450
921.697	14324
921.806	14393
921.916	14244
922.025	14202
922.134	14244
922.244	14016
922.353	14210
922.462	13989
922.571	13894
922.68	13776
922.789	13723
922.898	13685
923.007	13670
923.116	13769
923.224	13643
923.333	13685
923.442	13563
923.55	13609
923.659	13674
923.767	13571
923.876	13518
923.984	13590
924.092	13400
924.201	13495
924.309	13487
924.417	13487
924.525	13430
924.633	13480
924.741	14248
924.849	13141
924.956	13343
925.064	13209
925.172	13065
925.279	13122
925.387	13198
925.494	13160
925.602	13228
925.709	13152
925.816	13069
925.924	13000
926.031	13137
926.138	13114
926.245	13091
926.352	13076
926.459	13160
926.566	13118
926.673	13038
926.779	12886
926.886	12825
926.993	12757
927.099	12722
927.206	12635
927.312	12623
927.419	12726
927.525	12707
927.631	12722
927.737	12547
927.843	12509
927.95	12429
928.056	12555
928.162	12521
928.267	12627
928.373	13198
928.479	12544
928.585	12311
928.69	12555
928.796	12574
928.901	12353
929.007	12178
929.112	12315
929.218	12346
929.323	12281
929.428	12201
929.533	12365
929.638	12213
929.743	12205
929.848	12228
929.953	12220
930.058	12072
930.163	11950
930.267	11878
930.372	12060
930.477	11889
930.581	12121
930.685	12015
930.79	11733
930.894	11775
930.998	11745
931.103	11908
931.207	11535
931.311	11520
931.415	11410
931.519	11242
931.623	11170
