Data from test_V78500241_1958.txt Node
Date: Fri Mar 25 15:55:21 CST 2022
User: usil
Spectrometer: V785-0024
Trigger mode: 0
Integration Time (sec): 4.000000E-1
Scans to average: 1
Nonlinearity correction enabled: false
Boxcar width: 0
Storing dark spectrum: false
XAxis mode: Wavelengths
Number of Pixels in Spectrum: 1024
>>>>>Begin Spectral Data<<<<<
801.071	28668
801.214	28538
801.356	28497
801.499	28360
801.641	28291
801.783	28116
801.926	28257
802.068	28177
802.211	28196
802.353	28082
802.496	27941
802.638	27949
802.78	27812
802.923	27808
803.065	27717
803.208	27869
803.35	27899
803.492	28032
803.635	28109
803.777	28040
803.919	28112
804.061	28455
804.204	28230
804.346	28097
804.488	27945
804.63	28051
804.773	28002
804.915	28093
805.057	28223
805.199	28059
805.341	28276
805.483	28341
805.626	28341
805.768	28314
805.91	28207
806.052	28379
806.194	28246
806.336	28219
806.478	28200
806.62	28417
806.762	28527
806.904	28588
807.046	28835
807.188	28592
807.33	28755
807.472	28892
807.614	28660
807.756	28896
807.898	28523
808.04	28363
808.182	28516
808.324	28599
808.465	28626
808.607	28824
808.749	28938
808.891	29102
809.033	29151
809.174	29010
809.316	28949
809.458	29022
809.6	28949
809.741	29025
809.883	29155
810.025	29170
810.166	29208
810.308	29185
810.45	29064
810.591	29254
810.733	28984
810.875	28930
811.016	28995
811.158	28816
811.299	29109
811.441	29143
811.582	29128
811.724	28987
811.865	29018
812.007	28858
812.148	28984
812.29	28946
812.431	29075
812.573	29299
812.714	29452
812.855	29497
812.997	29528
813.138	29570
813.279	29573
813.421	29467
813.562	29364
813.703	29322
813.845	29174
813.986	28953
814.127	28774
814.268	28717
814.41	28672
814.551	28603
814.692	28717
814.833	28649
814.974	28710
815.115	28527
815.256	28474
815.397	28516
815.539	28436
815.68	28519
815.821	28257
815.962	28447
816.103	28348
816.244	28329
816.385	28249
816.526	28246
816.666	28139
816.807	27895
816.948	28021
817.089	28093
817.23	28029
817.371	27926
817.512	27930
817.653	27838
817.793	27873
817.934	27922
818.075	27975
818.216	27838
818.356	28090
818.497	27888
818.638	27595
818.778	27686
818.919	27808
819.06	27759
819.2	27812
819.341	27934
819.481	28025
819.622	28150
819.762	28329
819.903	28306
820.043	28211
820.184	28101
820.324	27975
820.465	28154
820.605	28070
820.746	27968
820.886	27888
821.026	28090
821.167	28067
821.307	28059
821.447	27998
821.588	27816
821.728	27800
821.868	27568
822.008	27359
822.149	27306
822.289	27519
822.429	27272
822.569	27112
822.709	27154
822.849	26925
822.99	27013
823.13	26819
823.27	26929
823.41	26811
823.55	26590
823.69	26785
823.83	26773
823.97	26621
824.11	26465
824.25	26488
824.389	26564
824.529	26579
824.669	26522
824.809	26617
824.949	26693
825.089	26651
825.228	26663
825.368	26362
825.508	26313
825.648	26442
825.787	26492
825.927	26503
826.067	26427
826.206	26549
826.346	26465
826.485	26453
826.625	26564
826.765	26606
826.904	26530
827.044	26180
827.183	26298
827.323	26320
827.462	26115
827.601	26176
827.741	26206
827.88	26149
828.02	26043
828.159	26122
828.298	26122
828.437	26225
828.577	26256
828.716	26157
828.855	26096
828.994	25845
829.134	26062
829.273	25860
829.412	25822
829.551	25791
829.69	25845
829.829	25955
829.968	25921
830.107	25807
830.246	25845
830.385	25913
830.524	25822
830.663	25658
830.802	25620
830.941	25578
831.08	25331
831.219	25559
831.357	25510
831.496	25662
831.635	25556
831.774	25445
831.913	25320
832.051	25171
832.19	25198
832.329	25308
832.467	25152
832.606	25053
832.744	25156
832.883	25190
833.022	25095
833.16	25236
833.299	25145
833.437	25198
833.576	25259
833.714	25213
833.852	25202
833.991	25202
834.129	25320
834.267	25282
834.406	25179
834.544	25133
834.682	25171
834.821	25263
834.959	25312
835.097	25107
835.235	25175
835.373	25213
835.511	25141
835.65	24970
835.788	25069
835.926	24924
836.064	24764
836.202	24776
836.34	25034
836.478	25156
836.615	24977
836.753	25088
836.891	25133
837.029	24939
837.167	25004
837.305	24905
837.443	24852
837.58	24859
837.718	24897
837.856	24840
837.993	24829
838.131	24886
838.269	24711
838.406	24844
838.544	24684
838.681	24563
838.819	24566
838.956	24319
839.094	24258
839.231	24395
839.369	24544
839.506	24589
839.643	24475
839.781	24289
839.918	24311
840.055	24395
840.193	24281
840.33	24235
840.467	24277
840.604	24315
840.742	24483
840.879	23958
841.016	24083
841.153	24045
841.29	24251
841.427	24304
841.564	24194
841.701	24216
841.838	24171
841.975	24038
842.112	24148
842.249	24140
842.385	24015
842.522	24091
842.659	24079
842.796	23942
842.933	24015
843.069	23920
843.206	23965
843.343	24015
843.479	23939
843.616	23977
843.752	23760
843.889	23775
844.025	23904
844.162	23764
844.298	23893
844.435	23699
844.571	23710
844.708	23764
844.844	23973
844.98	23779
845.117	23859
845.253	23733
845.389	23623
845.525	23687
845.661	23596
845.798	23509
845.934	23440
846.07	23467
846.206	23459
846.342	23512
846.478	23467
846.614	23296
846.75	23277
846.886	23159
847.022	23292
847.158	23193
847.294	23254
847.429	23315
847.565	23185
847.701	23440
847.837	22911
847.972	22980
848.108	23052
848.244	22953
848.379	22824
848.515	22710
848.65	22763
848.786	22717
848.921	22683
849.057	22911
849.192	22869
849.328	22790
849.463	22778
849.598	22713
849.734	22694
849.869	22683
850.004	22592
850.14	22603
850.275	22664
850.41	22535
850.545	22542
850.68	22459
850.815	22443
850.95	22546
851.085	22702
851.22	22630
851.355	22710
851.49	22550
851.625	22527
851.76	22596
851.895	22512
852.03	22344
852.165	22440
852.299	22683
852.434	22656
852.569	22580
852.703	22527
852.838	22645
852.973	22630
853.107	22771
853.242	22443
853.376	22417
853.511	22318
853.645	22341
853.78	22459
853.914	22371
854.048	22504
854.183	22325
854.317	22325
854.451	22500
854.585	22379
854.72	22382
854.854	22478
854.988	22382
855.122	22322
855.256	22249
855.39	22333
855.524	22375
855.658	22409
855.792	22341
855.926	22348
856.06	22428
856.194	22398
856.327	22386
856.461	22158
856.595	22314
856.729	22306
856.862	22637
856.996	22363
857.13	22504
857.263	22489
857.397	22485
857.53	22322
857.664	22481
857.797	22371
857.931	22402
858.064	22341
858.197	22367
858.331	22268
858.464	22246
858.597	22284
858.731	22272
858.864	22253
858.997	22341
859.13	22287
859.263	22219
859.396	22390
859.529	22268
859.662	22371
859.795	22371
859.928	22413
860.061	22603
860.194	22577
860.327	22542
860.46	22493
860.592	22531
860.725	22432
860.858	22527
860.99	22356
861.123	22246
861.256	22265
861.388	22325
861.521	23090
861.653	22143
861.786	22116
861.918	22215
862.05	22207
862.183	22295
862.315	22295
862.447	22375
862.58	22314
862.712	22131
862.844	22025
862.976	22230
863.108	22150
863.24	22561
863.372	21998
863.504	21930
863.636	22154
863.768	22143
863.9	21956
864.032	21975
864.164	22112
864.296	22116
864.428	22242
864.559	22147
864.691	22082
864.823	22124
864.954	22010
865.086	22017
865.217	22006
865.349	21964
865.48	21892
865.612	22021
865.743	21945
865.875	21945
866.006	21930
866.137	21930
866.269	21918
866.4	21899
866.531	21831
866.662	21804
866.793	21983
866.924	21956
867.055	21865
867.186	21994
867.317	21934
867.448	21819
867.579	21884
867.71	21816
867.841	21884
867.972	22017
868.103	21800
868.233	21888
868.364	21880
868.495	21835
868.625	22097
868.756	22246
868.886	21983
869.017	21968
869.147	22188
869.278	22147
869.408	22150
869.539	22139
869.669	22287
869.799	22154
869.929	22177
870.06	22238
870.19	22413
870.32	22375
870.45	22535
870.58	22500
870.71	22694
870.84	22771
870.97	22656
871.1	22436
871.23	22618
871.36	22790
871.489	22546
871.619	22828
871.749	22698
871.879	22752
872.008	22889
872.138	22668
872.267	22778
872.397	22611
872.526	22367
872.656	22683
872.785	22618
872.915	22801
873.044	22877
873.173	22679
873.303	22778
873.432	22782
873.561	22801
873.69	22698
873.819	22828
873.948	22847
874.077	22744
874.206	22801
874.335	22702
874.464	22847
874.593	22934
874.722	22911
874.851	22930
874.979	23010
875.108	22927
875.237	22965
875.365	22831
875.494	22797
875.623	22904
875.751	22900
875.88	22923
876.008	23060
876.136	23067
876.265	23414
876.393	23463
876.521	23463
876.65	23509
876.778	23288
876.906	23307
877.034	23322
877.162	23364
877.29	23231
877.418	23322
877.546	23223
877.674	23311
877.802	23254
877.93	23261
878.058	23117
878.185	23109
878.313	23166
878.441	23318
878.568	23079
878.696	23147
878.824	23258
878.951	23318
879.079	23395
879.206	23474
879.333	23459
879.461	23334
879.588	23459
879.715	23387
879.842	23512
879.97	23318
880.097	23162
880.224	23128
880.351	23109
880.478	23151
880.605	23071
880.732	23006
880.859	23197
880.986	23124
881.112	23109
881.239	23018
881.366	22919
881.493	22694
881.619	22824
881.746	22710
881.872	22645
881.999	22641
882.125	22603
882.252	22668
882.378	22656
882.505	22713
882.631	22459
882.757	22363
882.883	22337
883.01	22371
883.136	22284
883.262	22116
883.388	22044
883.514	22249
883.64	22333
883.766	22223
883.892	22010
884.018	22051
884.143	22371
884.269	22382
884.395	22013
884.52	21915
884.646	21926
884.772	21949
884.897	21800
885.023	21956
885.148	22055
885.274	22124
885.399	22120
885.524	21994
885.65	22051
885.775	21915
885.9	21854
886.025	22025
886.15	22101
886.275	21876
886.4	21827
886.525	21953
886.65	22002
886.775	21930
886.9	22044
887.025	22112
887.149	21998
887.274	21770
887.399	21732
887.523	21778
887.648	21648
887.773	21682
887.897	21713
888.021	21808
888.146	21739
888.27	21720
888.395	21930
888.519	21781
888.643	21629
888.767	21663
888.891	21599
889.015	21477
889.139	21545
889.263	21553
889.387	21515
889.511	21736
889.635	21637
889.759	21466
889.883	21477
890.006	21397
890.13	21530
890.254	21435
890.377	21405
890.501	21283
890.624	21199
890.748	21233
890.871	21157
890.995	21150
891.118	20982
891.241	21154
891.364	21039
891.488	21245
891.611	21077
891.734	21017
891.857	21051
891.98	21036
892.103	21119
892.226	20998
892.349	21028
892.471	20823
892.594	20998
892.717	21036
892.839	20971
892.962	20956
893.085	21043
893.207	20956
893.33	20868
893.452	20914
893.575	20960
893.697	20918
893.819	21176
893.941	21199
894.064	21173
894.186	20845
894.308	20838
894.43	21028
894.552	21074
894.674	21009
894.796	20887
894.918	20906
895.04	20899
895.161	21032
895.283	20998
895.405	20845
895.526	20937
895.648	20971
895.769	20937
895.891	21058
896.012	21013
896.134	20895
896.255	21096
896.376	20948
896.498	20975
896.619	20952
896.74	20948
896.861	21013
896.982	21279
897.103	21545
897.224	21226
897.345	21230
897.466	21207
897.587	21195
897.708	21192
897.828	21176
897.949	21142
898.07	20910
898.19	21161
898.311	21226
898.431	21146
898.552	21093
898.672	21142
898.792	21310
898.913	21104
899.033	20975
899.153	20937
899.273	20823
899.393	20800
899.513	20861
899.633	20944
899.753	20948
899.873	20842
899.993	20902
900.113	20792
900.232	20777
900.352	20754
900.472	20674
900.591	20541
900.711	20838
900.83	20613
900.95	20811
901.069	20678
901.189	20556
901.308	20305
901.427	20267
901.546	20275
901.665	20237
901.784	20233
901.904	20081
902.023	19909
902.141	19890
902.26	19761
902.379	19791
902.498	19757
902.617	19772
902.735	19856
902.854	19731
902.973	19567
903.091	19411
903.21	19377
903.328	19392
903.446	19274
903.565	19118
903.683	19255
903.801	19027
903.919	19301
904.038	19103
904.156	19023
904.274	18901
904.392	18985
904.51	18859
904.627	18882
904.745	18958
904.863	18939
904.981	18715
905.098	18570
905.216	18612
905.334	18642
905.451	18551
905.569	18574
905.686	18593
905.803	18532
905.921	18388
906.038	18437
906.155	18422
906.272	18277
906.389	18350
906.506	18205
906.623	18087
906.74	18178
906.857	18041
906.974	18064
907.091	18136
907.208	18148
907.324	18072
907.441	18034
907.557	17958
907.674	17916
907.79	17821
907.907	17870
908.023	17779
908.139	17870
908.256	17817
908.372	17718
908.488	17733
908.604	17726
908.72	17566
908.836	17543
908.952	17509
909.068	17604
909.184	17760
909.3	17554
909.415	17611
909.531	17596
909.647	17273
909.762	17292
909.878	17315
909.993	17311
910.108	17136
910.224	17147
910.339	17143
910.454	17094
910.57	17025
910.685	16892
910.8	17269
910.915	17239
911.03	17090
911.145	16877
911.259	16736
911.374	16854
911.489	16771
911.604	16653
911.718	16577
911.833	16679
911.947	16546
912.062	16409
912.176	16630
912.291	16603
912.405	16634
912.519	16778
912.633	16637
912.748	16603
912.862	16630
912.976	16303
913.09	16234
913.204	16276
913.318	16424
913.431	16466
913.545	16512
913.659	16394
913.772	16413
913.886	16154
914	16169
914.113	16211
914.226	16280
914.34	16226
914.453	16010
914.566	16158
914.68	16074
914.793	15915
914.906	15873
915.019	15751
915.132	15679
915.245	15709
915.358	15785
915.47	15865
915.583	15781
915.696	15789
915.809	15930
915.921	15964
916.034	15755
916.146	15652
916.259	15625
916.371	15762
916.483	15774
916.595	15557
916.708	15660
916.82	15591
916.932	15462
917.044	15515
917.156	15526
917.268	15458
917.38	15405
917.491	15306
917.603	15359
917.715	15523
917.826	15439
917.938	15382
918.049	15275
918.161	15363
918.272	15454
918.384	15408
918.495	15344
918.606	15055
918.717	15119
918.828	15112
918.939	15214
919.05	15135
919.161	15093
919.272	15017
919.383	14982
919.494	15142
919.604	15321
919.715	15131
919.826	14952
919.936	15070
920.047	15093
920.157	15112
920.267	15329
920.378	15184
920.488	15154
920.598	15233
920.708	15431
920.818	15260
920.928	15135
921.038	15313
921.148	15310
921.258	14906
921.368	14998
921.477	14769
921.587	14819
921.697	14693
921.806	14853
921.916	14606
922.025	14492
922.134	14511
922.244	14454
922.353	14533
922.462	14404
922.571	14328
922.68	14065
922.789	14073
922.898	13993
923.007	14001
923.116	14119
923.224	14005
923.333	14012
923.442	13921
923.55	13788
923.659	14035
923.767	14016
923.876	13799
923.984	13909
924.092	13761
924.201	13856
924.309	13822
924.417	13788
924.525	13811
924.633	13776
924.741	14701
924.849	13559
924.956	13685
925.064	13514
925.172	13457
925.279	13441
925.387	13472
925.494	13468
925.602	13594
925.709	13605
925.816	13377
925.924	13373
926.031	13457
926.138	13377
926.245	13510
926.352	13255
926.459	13468
926.566	13472
926.673	13400
926.779	13137
926.886	13152
926.993	13103
927.099	12981
927.206	13042
927.312	12932
927.419	13072
927.525	13019
927.631	12943
927.737	12993
927.843	12840
927.95	12787
928.056	12783
928.162	12897
928.267	12829
928.373	13480
928.479	12886
928.585	12563
928.69	12844
928.796	12753
928.901	12692
929.007	12585
929.112	12669
929.218	12677
929.323	12555
929.428	12631
929.533	12654
929.638	12517
929.743	12456
929.848	12544
929.953	12441
930.058	12376
930.163	12243
930.267	12213
930.372	12452
930.477	12186
930.581	12445
930.685	12232
930.79	12079
930.894	12136
930.998	12079
931.103	12258
931.207	11840
931.311	11866
931.415	11657
931.519	11471
931.623	11497
