Data from test_V78500241_1938.txt Node
Date: Fri Mar 25 15:55:13 CST 2022
User: usil
Spectrometer: V785-0024
Trigger mode: 0
Integration Time (sec): 4.000000E-1
Scans to average: 1
Nonlinearity correction enabled: false
Boxcar width: 0
Storing dark spectrum: false
XAxis mode: Wavelengths
Number of Pixels in Spectrum: 1024
>>>>>Begin Spectral Data<<<<<
801.071	28733
801.214	28607
801.356	28333
801.499	28207
801.641	28333
801.783	28192
801.926	28177
802.068	28257
802.211	28173
802.353	28101
802.496	27941
802.638	28006
802.78	27934
802.923	27778
803.065	27724
803.208	27747
803.35	27823
803.492	27941
803.635	28063
803.777	28013
803.919	28109
804.061	28363
804.204	28158
804.346	28021
804.488	28013
804.63	28169
804.773	28055
804.915	28074
805.057	28405
805.199	28147
805.341	28120
805.483	28257
805.626	28188
805.768	28135
805.91	28299
806.052	28211
806.194	28226
806.336	28493
806.478	28177
806.62	28181
806.762	28405
806.904	28527
807.046	28782
807.188	28755
807.33	28611
807.472	28854
807.614	28679
807.756	28630
807.898	28641
808.04	28474
808.182	28451
808.324	28588
808.465	28569
808.607	28805
808.749	28908
808.891	29075
809.033	28999
809.174	28888
809.316	28942
809.458	28828
809.6	28946
809.741	29064
809.883	28953
810.025	29204
810.166	29166
810.308	29220
810.45	29113
810.591	29166
810.733	29010
810.875	28862
811.016	28957
811.158	28923
811.299	29105
811.441	29113
811.582	29086
811.724	28991
811.865	28991
812.007	28862
812.148	29075
812.29	28961
812.431	29140
812.573	29261
812.714	29474
812.855	29379
812.997	29577
813.138	29718
813.279	29661
813.421	29570
813.562	29364
813.703	29250
813.845	29147
813.986	28831
814.127	28641
814.268	28626
814.41	28664
814.551	28626
814.692	28664
814.833	28596
814.974	28683
815.115	28774
815.256	28516
815.397	28542
815.539	28554
815.68	28367
815.821	28470
815.962	28500
816.103	28478
816.244	28360
816.385	28348
816.526	28158
816.666	28002
816.807	27873
816.948	27991
817.089	28074
817.23	28029
817.371	27941
817.512	28059
817.653	28021
817.793	27808
817.934	27945
818.075	27926
818.216	27888
818.356	27838
818.497	27823
818.638	27770
818.778	27663
818.919	27785
819.06	27846
819.2	27808
819.341	27930
819.481	27987
819.622	28162
819.762	28234
819.903	28196
820.043	28169
820.184	28063
820.324	28177
820.465	28280
820.605	28131
820.746	28116
820.886	27972
821.026	28169
821.167	27945
821.307	28078
821.447	28025
821.588	27823
821.728	27698
821.868	27530
822.008	27344
822.149	27420
822.289	27458
822.429	27138
822.569	27116
822.709	27123
822.849	26902
822.99	27024
823.13	26944
823.27	26796
823.41	26804
823.55	26701
823.69	26834
823.83	26853
823.97	26625
824.11	26674
824.25	26526
824.389	26507
824.529	26655
824.669	26602
824.809	26807
824.949	26568
825.089	26560
825.228	26598
825.368	26370
825.508	26419
825.648	26442
825.787	26594
825.927	26560
826.067	26560
826.206	26522
826.346	26552
826.485	26670
826.625	26301
826.765	26575
826.904	26480
827.044	26336
827.183	26275
827.323	26225
827.462	26138
827.601	26256
827.741	26176
827.88	26157
828.02	26065
828.159	26149
828.298	26103
828.437	26126
828.577	26077
828.716	26126
828.855	26122
828.994	25902
829.134	25887
829.273	25898
829.412	25685
829.551	25944
829.69	25772
829.829	25830
829.968	25883
830.107	25776
830.246	25868
830.385	25803
830.524	25685
830.663	25632
830.802	25597
830.941	25422
831.08	25392
831.219	25616
831.357	25426
831.496	25639
831.635	25441
831.774	25392
831.913	25259
832.051	25164
832.19	25171
832.329	25183
832.467	25145
832.606	25088
832.744	25076
832.883	25053
833.022	25137
833.16	25217
833.299	25118
833.437	25183
833.576	25148
833.714	25095
833.852	25240
833.991	25240
834.129	25377
834.267	25285
834.406	25122
834.544	25232
834.682	25266
834.821	25118
834.959	25304
835.097	25152
835.235	25251
835.373	25095
835.511	25160
835.65	25065
835.788	24992
835.926	25053
836.064	24681
836.202	24837
836.34	25076
836.478	25118
836.615	25046
836.753	25118
836.891	25057
837.029	24947
837.167	24783
837.305	25019
837.443	24977
837.58	24966
837.718	24886
837.856	24882
837.993	24772
838.131	24833
838.269	24806
838.406	24715
838.544	24669
838.681	24532
838.819	24521
838.956	24285
839.094	24228
839.231	24357
839.369	24555
839.506	24559
839.643	24445
839.781	24380
839.918	24190
840.055	24251
840.193	24262
840.33	24194
840.467	24251
840.604	24251
840.742	24426
840.879	24072
841.016	24129
841.153	24106
841.29	24327
841.427	24201
841.564	24224
841.701	24152
841.838	24159
841.975	24194
842.112	24053
842.249	23984
842.385	23935
842.522	24209
842.659	24072
842.796	23897
842.933	23927
843.069	23977
843.206	23882
843.343	23935
843.479	24041
843.616	24098
843.752	23783
843.889	23851
844.025	23908
844.162	23691
844.298	23878
844.435	23786
844.571	23653
844.708	23855
844.844	23882
844.98	23863
845.117	23916
845.253	23714
845.389	23752
845.525	23718
845.661	23710
845.798	23417
845.934	23604
846.07	23448
846.206	23474
846.342	23619
846.478	23391
846.614	23235
846.75	23124
846.886	23155
847.022	23318
847.158	23227
847.294	23174
847.429	23200
847.565	23246
847.701	23334
847.837	22919
847.972	22824
848.108	23140
848.244	23022
848.379	22850
848.515	22752
848.65	22565
848.786	22816
848.921	22839
849.057	23048
849.192	22972
849.328	22778
849.463	22801
849.598	22767
849.734	22710
849.869	22645
850.004	22512
850.14	22535
850.275	22523
850.41	22451
850.545	22367
850.68	22474
850.815	22550
850.95	22535
851.085	22713
851.22	22706
851.355	22493
851.49	22531
851.625	22607
851.76	22512
851.895	22485
852.03	22455
852.165	22519
852.299	22622
852.434	22702
852.569	22516
852.703	22694
852.838	22736
852.973	22577
853.107	22653
853.242	22443
853.376	22386
853.511	22185
853.645	22249
853.78	22504
853.914	22249
854.048	22344
854.183	22481
854.317	22394
854.451	22645
854.585	22519
854.72	22337
854.854	22455
854.988	22382
855.122	22413
855.256	22284
855.39	22223
855.524	22474
855.658	22409
855.792	22421
855.926	22485
856.06	22470
856.194	22443
856.327	22455
856.461	22219
856.595	22428
856.729	22417
856.862	22402
856.996	22356
857.13	22363
857.263	22489
857.397	22382
857.53	22428
857.664	22325
857.797	22386
857.931	22519
858.064	22386
858.197	22508
858.331	22394
858.464	22371
858.597	22215
858.731	22382
858.864	22356
858.997	22375
859.13	22223
859.263	22390
859.396	22436
859.529	22409
859.662	22447
859.795	22261
859.928	22371
860.061	22672
860.194	22550
860.327	22432
860.46	22382
860.592	22424
860.725	22489
860.858	22481
860.99	22333
861.123	22261
861.256	22405
861.388	22409
861.521	23181
861.653	22424
861.786	22207
861.918	22242
862.05	22337
862.183	22310
862.315	22314
862.447	22432
862.58	22318
862.712	22036
862.844	21956
862.976	22131
863.108	22166
863.24	22485
863.372	22002
863.504	22177
863.636	22048
863.768	22188
863.9	22051
864.032	22082
864.164	22010
864.296	22029
864.428	22131
864.559	22147
864.691	22147
864.823	22097
864.954	22173
865.086	22048
865.217	22059
865.349	22025
865.48	22063
865.612	22070
865.743	22223
865.875	21983
866.006	21846
866.137	21994
866.269	22017
866.4	21922
866.531	21941
866.662	21804
866.793	21903
866.924	21880
867.055	21945
867.186	21945
867.317	21915
867.448	21778
867.579	21850
867.71	21934
867.841	21888
867.972	21747
868.103	21911
868.233	21915
868.364	21831
868.495	21956
868.625	22150
868.756	22188
868.886	22067
869.017	22249
869.147	22242
869.278	22261
869.408	22211
869.539	22253
869.669	22242
869.799	22234
869.929	22390
870.06	22348
870.19	22565
870.32	22508
870.45	22474
870.58	22500
870.71	22615
870.84	22596
870.97	22470
871.1	22618
871.23	22725
871.36	22721
871.489	22626
871.619	22828
871.749	22755
871.879	22653
872.008	22801
872.138	22759
872.267	22725
872.397	22573
872.526	22573
872.656	22607
872.785	22485
872.915	22736
873.044	22835
873.173	22752
873.303	22706
873.432	22691
873.561	22828
873.69	22790
873.819	22733
873.948	22831
874.077	22683
874.206	22672
874.335	22790
874.464	22839
874.593	22968
874.722	22949
874.851	22995
874.979	23022
875.108	23010
875.237	22946
875.365	22831
875.494	22930
875.623	23083
875.751	22900
875.88	22911
876.008	22965
876.136	23105
876.265	23376
876.393	23505
876.521	23512
876.65	23414
876.778	23433
876.906	23235
877.034	23330
877.162	23330
877.29	23288
877.418	23315
877.546	23410
877.674	23261
877.802	23326
877.93	23288
878.058	23303
878.185	23189
878.313	23223
878.441	23250
878.568	23159
878.696	23337
878.824	23235
878.951	23414
879.079	23505
879.206	23543
879.333	23391
879.461	23379
879.588	23318
879.715	23356
879.842	23531
879.97	23284
880.097	23098
880.224	23117
880.351	23178
880.478	23170
880.605	22953
880.732	23025
880.859	23311
880.986	23037
881.112	23086
881.239	22987
881.366	22953
881.493	22850
881.619	22634
881.746	22592
881.872	22793
881.999	22691
882.125	22721
882.252	22698
882.378	22687
882.505	22649
882.631	22546
882.757	22405
882.883	22333
883.01	22432
883.136	22337
883.262	22299
883.388	22207
883.514	22310
883.64	22295
883.766	22295
883.892	22017
884.018	22025
884.143	22348
884.269	22310
884.395	22010
884.52	21918
884.646	21983
884.772	21861
884.897	21934
885.023	22013
885.148	22131
885.274	22059
885.399	22048
885.524	21915
885.65	21994
885.775	22036
885.9	21941
886.025	22055
886.15	21991
886.275	21907
886.4	21930
886.525	21953
886.65	21857
886.775	21930
886.9	22101
887.025	22253
887.149	21922
887.274	21694
887.399	21751
887.523	21751
887.648	21595
887.773	21739
887.897	21789
888.021	21785
888.146	21736
888.27	21778
888.395	21781
888.519	21899
888.643	21751
888.767	21747
888.891	21603
889.015	21591
889.139	21625
889.263	21424
889.387	21648
889.511	21755
889.635	21587
889.759	21572
889.883	21587
890.006	21542
890.13	21568
890.254	21515
890.377	21462
890.501	21291
890.624	21176
890.748	21279
890.871	21222
890.995	21070
891.118	21089
891.241	21169
891.364	21135
891.488	21279
891.611	21100
891.734	21066
891.857	21077
891.98	20967
892.103	21192
892.226	21096
892.349	20990
892.471	20975
892.594	21036
892.717	21009
892.839	20781
892.962	20982
893.085	20971
893.207	20982
893.33	21005
893.452	20910
893.575	20994
893.697	21028
893.819	21104
893.941	21085
894.064	21157
894.186	20944
894.308	20849
894.43	21058
894.552	21096
894.674	21089
894.796	20796
894.918	21028
895.04	20857
895.161	21100
895.283	21100
895.405	20906
895.526	20876
895.648	20899
895.769	21020
895.891	20967
896.012	20956
896.134	21028
896.255	20861
896.376	20876
896.498	20891
896.619	21013
896.74	20975
896.861	20979
896.982	21332
897.103	21298
897.224	21283
897.345	21230
897.466	21074
897.587	21260
897.708	21214
897.828	21180
897.949	21020
898.07	21013
898.19	21146
898.311	21214
898.431	21154
898.552	21157
898.672	21188
898.792	21332
898.913	21207
899.033	21032
899.153	20944
899.273	21039
899.393	20933
899.513	20887
899.633	21013
899.753	21028
899.873	20842
899.993	20948
900.113	20811
900.232	20842
900.352	20811
900.472	20792
900.591	20609
900.711	20613
900.83	20632
900.95	20777
901.069	20670
901.189	20541
901.308	20320
901.427	20237
901.546	20138
901.665	20275
901.784	20336
901.904	20046
902.023	20073
902.141	19795
902.26	19761
902.379	19818
902.498	19753
902.617	19658
902.735	19753
902.854	19685
902.973	19712
903.091	19365
903.21	19377
903.328	19445
903.446	19316
903.565	19209
903.683	19209
903.801	19118
903.919	19255
904.038	19152
904.156	19008
904.274	18996
904.392	18916
904.51	18905
904.627	18989
904.745	18924
904.863	18947
904.981	18779
905.098	18604
905.216	18692
905.334	18696
905.451	18616
905.569	18589
905.686	18582
905.803	18661
905.921	18437
906.038	18471
906.155	18353
906.272	18361
906.389	18330
906.506	18182
906.623	18095
906.74	18083
906.857	17965
906.974	18034
907.091	18228
907.208	18194
907.324	18125
907.441	18079
907.557	17866
907.674	17836
907.79	17737
907.907	17874
908.023	17904
908.139	17836
908.256	17866
908.372	17775
908.488	17691
908.604	17589
908.72	17604
908.836	17596
908.952	17577
909.068	17471
909.184	17726
909.3	17634
909.415	17627
909.531	17490
909.647	17318
909.762	17364
909.878	17265
909.993	17360
910.108	17155
910.224	17223
910.339	17246
910.454	17117
910.57	17117
910.685	16965
910.8	17200
910.915	17155
911.03	17022
911.145	16828
911.259	16904
911.374	16835
911.489	16816
911.604	16626
911.718	16626
911.833	16531
911.947	16478
912.062	16447
912.176	16573
912.291	16603
912.405	16561
912.519	16736
912.633	16797
912.748	16584
912.862	16546
912.976	16447
913.09	16265
913.204	16386
913.318	16356
913.431	16443
913.545	16436
913.659	16489
913.772	16367
913.886	16192
914	16185
914.113	16249
914.226	16360
914.34	16173
914.453	16173
914.566	16246
914.68	16017
914.793	16006
914.906	15934
915.019	15797
915.132	15762
915.245	15656
915.358	15724
915.47	15831
915.583	15660
915.696	15778
915.809	15766
915.921	15888
916.034	15732
916.146	15690
916.259	15648
916.371	15869
916.483	15591
916.595	15717
916.708	15553
916.82	15500
916.932	15557
917.044	15511
917.156	15523
917.268	15428
917.38	15450
917.491	15272
917.603	15386
917.715	15435
917.826	15599
917.938	15340
918.049	15283
918.161	15344
918.272	15466
918.384	15443
918.495	15382
918.606	15131
918.717	15089
918.828	15173
918.939	15169
919.05	15055
919.161	15097
919.272	15100
919.383	15013
919.494	15070
919.604	15275
919.715	15150
919.826	14971
919.936	15047
920.047	15176
920.157	15070
920.267	15317
920.378	15131
920.488	15070
920.598	15291
920.708	15408
920.818	15279
920.928	15230
921.038	15348
921.148	15359
921.258	15028
921.368	15001
921.477	14902
921.587	14781
921.697	14682
921.806	14743
921.916	14697
922.025	14541
922.134	14522
922.244	14347
922.353	14446
922.462	14332
922.571	14263
922.68	14221
922.789	14046
922.898	14107
923.007	14027
923.116	14123
923.224	14130
923.333	14164
923.442	13951
923.55	13841
923.659	13986
923.767	13959
923.876	13894
923.984	13974
924.092	13738
924.201	13772
924.309	13837
924.417	13791
924.525	13784
924.633	13757
924.741	14655
924.849	13578
924.956	13803
925.064	13533
925.172	13381
925.279	13476
925.387	13502
925.494	13594
925.602	13502
925.709	13491
925.816	13365
925.924	13510
926.031	13559
926.138	13388
926.245	13529
926.352	13285
926.459	13384
926.566	13415
926.673	13407
926.779	13213
926.886	13221
926.993	13042
927.099	13034
927.206	12947
927.312	12981
927.419	13061
927.525	13034
927.631	12966
927.737	12977
927.843	12848
927.95	12726
928.056	12806
928.162	12878
928.267	12890
928.373	13548
928.479	12882
928.585	12616
928.69	12791
928.796	12787
928.901	12703
929.007	12502
929.112	12639
929.218	12688
929.323	12563
929.428	12513
929.533	12711
929.638	12422
929.743	12536
929.848	12532
929.953	12540
930.058	12399
930.163	12171
930.267	12201
930.372	12369
930.477	12205
930.581	12350
930.685	12254
930.79	12152
930.894	12087
930.998	12079
931.103	12155
931.207	11859
931.311	11760
931.415	11661
931.519	11551
931.623	11452
