Data from test_V78500241_43.txt Node
Date: Fri Mar 25 15:42:06 CST 2022
User: usil
Spectrometer: V785-0024
Trigger mode: 0
Integration Time (sec): 4.000000E-1
Scans to average: 1
Nonlinearity correction enabled: false
Boxcar width: 0
Storing dark spectrum: false
XAxis mode: Wavelengths
Number of Pixels in Spectrum: 1024
>>>>>Begin Spectral Data<<<<<
801.071	28478
801.214	28436
801.356	28234
801.499	28059
801.641	27956
801.783	27880
801.926	28036
802.068	27922
802.211	27911
802.353	27812
802.496	27511
802.638	27606
802.78	27564
802.923	27450
803.065	27504
803.208	27374
803.35	27439
803.492	27663
803.635	27542
803.777	27606
803.919	27717
804.061	27964
804.204	27747
804.346	27447
804.488	27420
804.63	27606
804.773	27405
804.915	27648
805.057	27682
805.199	27458
805.341	27561
805.483	27675
805.626	27663
805.768	27492
805.91	27641
806.052	27526
806.194	27458
806.336	27903
806.478	27633
806.62	27614
806.762	27747
806.904	27914
807.046	28025
807.188	28101
807.33	27930
807.472	28070
807.614	27797
807.756	27918
807.898	27846
808.04	27720
808.182	27743
808.324	27930
808.465	27667
808.607	27911
808.749	28051
808.891	28177
809.033	28230
809.174	28124
809.316	28044
809.458	28116
809.6	28059
809.741	28105
809.883	28207
810.025	28287
810.166	28223
810.308	28382
810.45	28360
810.591	28261
810.733	28013
810.875	28006
811.016	27873
811.158	27816
811.299	28135
811.441	28204
811.582	28204
811.724	27918
811.865	28051
812.007	27949
812.148	27941
812.29	28086
812.431	28116
812.573	28192
812.714	28322
812.855	28394
812.997	28481
813.138	28675
813.279	28512
813.421	28557
813.562	28440
813.703	28337
813.845	28131
813.986	27755
814.127	27663
814.268	27549
814.41	27576
814.551	27485
814.692	27705
814.833	27549
814.974	27488
815.115	27462
815.256	27408
815.397	27264
815.539	27363
815.68	27272
815.821	27195
815.962	27321
816.103	27096
816.244	27070
816.385	27074
816.526	26918
816.666	26678
816.807	26606
816.948	26739
817.089	26914
817.23	26625
817.371	26621
817.512	26705
817.653	26476
817.793	26621
817.934	26488
818.075	26545
818.216	26564
818.356	26492
818.497	26400
818.638	26103
818.778	26206
818.919	26389
819.06	26362
819.2	26492
819.341	26461
819.481	26431
819.622	26644
819.762	26727
819.903	26693
820.043	26659
820.184	26609
820.324	26533
820.465	26602
820.605	26579
820.746	26511
820.886	26374
821.026	26511
821.167	26507
821.307	26594
821.447	26480
821.588	26271
821.728	26317
821.868	25894
822.008	25906
822.149	26008
822.289	25936
822.429	25727
822.569	25635
822.709	25616
822.849	25358
822.99	25358
823.13	25232
823.27	25259
823.41	25232
823.55	25103
823.69	25194
823.83	25274
823.97	24958
824.11	24958
824.25	25012
824.389	25050
824.529	25061
824.669	24977
824.809	25091
824.949	24947
825.089	25019
825.228	24863
825.368	24696
825.508	24681
825.648	24745
825.787	24707
825.927	24779
826.067	24673
826.206	24703
826.346	24707
826.485	24768
826.625	24677
826.765	24848
826.904	24658
827.044	24372
827.183	24384
827.323	24330
827.462	24330
827.601	24422
827.741	24323
827.88	24357
828.02	24243
828.159	24285
828.298	24372
828.437	24399
828.577	24410
828.716	24407
828.855	24285
828.994	24038
829.134	24091
829.273	24125
829.412	23980
829.551	23851
829.69	23988
829.829	24057
829.968	24068
830.107	24041
830.246	23984
830.385	23920
830.524	23973
830.663	23855
830.802	23627
830.941	23585
831.08	23539
831.219	23627
831.357	23665
831.496	23695
831.635	23478
831.774	23596
831.913	23353
832.051	23436
832.19	23330
832.329	23322
832.467	23223
832.606	23197
832.744	23117
832.883	23113
833.022	23109
833.16	23162
833.299	23178
833.437	23200
833.576	23239
833.714	23140
833.852	23185
833.991	23242
834.129	23273
834.267	23223
834.406	23197
834.544	23166
834.682	23178
834.821	23083
834.959	23349
835.097	23227
835.235	23197
835.373	23162
835.511	23121
835.65	23094
835.788	22991
835.926	22911
836.064	22687
836.202	22793
836.34	22995
836.478	22968
836.615	22858
836.753	22961
836.891	23022
837.029	23014
837.167	22968
837.305	22774
837.443	22881
837.58	22892
837.718	22839
837.856	22987
837.993	22713
838.131	22694
838.269	22782
838.406	22793
838.544	22634
838.681	22402
838.819	22352
838.956	22200
839.094	22219
839.231	22135
839.369	22325
839.506	22573
839.643	22478
839.781	22287
839.918	22131
840.055	22154
840.193	22162
840.33	22139
840.467	22124
840.604	22124
840.742	22360
840.879	21975
841.016	22002
841.153	22021
841.29	22120
841.427	22082
841.564	21979
841.701	21998
841.838	22067
841.975	21945
842.112	22013
842.249	21987
842.385	21759
842.522	22029
842.659	21915
842.796	21743
842.933	21930
843.069	21728
843.206	21694
843.343	21956
843.479	21835
843.616	21778
843.752	21469
843.889	21561
844.025	21591
844.162	21523
844.298	21587
844.435	21412
844.571	21519
844.708	21557
844.844	21644
844.98	21679
845.117	21648
845.253	21530
845.389	21321
845.525	21466
845.661	21256
845.798	21127
845.934	21294
846.07	21260
846.206	21230
846.342	21329
846.478	21131
846.614	21093
846.75	20952
846.886	20929
847.022	21043
847.158	21047
847.294	21066
847.429	20823
847.565	20990
847.701	21272
847.837	20705
847.972	20640
848.108	20838
848.244	20838
848.379	20583
848.515	20503
848.65	20377
848.786	20457
848.921	20476
849.057	20625
849.192	20613
849.328	20533
849.463	20530
849.598	20412
849.734	20305
849.869	20259
850.004	20317
850.14	20408
850.275	20351
850.41	20161
850.545	20145
850.68	20191
850.815	20214
850.95	20256
851.085	20263
851.22	20358
851.355	20214
851.49	20149
851.625	20054
851.76	20161
851.895	20119
852.03	20126
852.165	20145
852.299	20202
852.434	20305
852.569	20275
852.703	20210
852.838	20301
852.973	20381
853.107	20252
853.242	20130
853.376	20073
853.511	19936
853.645	19947
853.78	20149
853.914	19993
854.048	19986
854.183	19982
854.317	19967
854.451	20164
854.585	20103
854.72	20043
854.854	20126
854.988	19898
855.122	19986
855.256	19852
855.39	20027
855.524	20157
855.658	20096
855.792	19982
855.926	20024
856.06	20073
856.194	20043
856.327	20024
856.461	19974
856.595	20016
856.729	19967
856.862	20058
856.996	20073
857.13	19974
857.263	20111
857.397	19944
857.53	19940
857.664	20016
857.797	20043
857.931	20138
858.064	20008
858.197	20027
858.331	19951
858.464	19906
858.597	19845
858.731	19852
858.864	19928
858.997	19807
859.13	19917
859.263	19833
859.396	19959
859.529	19868
859.662	19887
859.795	19928
859.928	20001
860.061	20069
860.194	20073
860.327	19925
860.46	19906
860.592	20100
860.725	19989
860.858	19913
860.99	19845
861.123	19887
861.256	19852
861.388	19807
861.521	20568
861.653	19807
861.786	19769
861.918	19841
862.05	19818
862.183	19883
862.315	20073
862.447	20218
862.58	19951
862.712	19674
862.844	19666
862.976	19772
863.108	19727
863.24	20077
863.372	19525
863.504	19632
863.636	19590
863.768	19727
863.9	19540
864.032	19422
864.164	19620
864.296	19616
864.428	19731
864.559	19704
864.691	19674
864.823	19559
864.954	19552
865.086	19712
865.217	19624
865.349	19419
865.48	19445
865.612	19464
865.743	19590
865.875	19556
866.006	19472
866.137	19480
866.269	19518
866.4	19533
866.531	19468
866.662	19343
866.793	19540
866.924	19502
867.055	19449
867.186	19441
867.317	19464
867.448	19327
867.579	19457
867.71	19285
867.841	19430
867.972	19419
868.103	19407
868.233	19491
868.364	19460
868.495	19441
868.625	19776
868.756	19738
868.886	19590
869.017	19590
869.147	19875
869.278	19898
869.408	19826
869.539	19753
869.669	19765
869.799	19708
869.929	19727
870.06	19791
870.19	20020
870.32	19940
870.45	20077
870.58	20100
870.71	20317
870.84	20286
870.97	20031
871.1	20001
871.23	20210
871.36	20259
871.489	20183
871.619	20195
871.749	20309
871.879	20434
872.008	20362
872.138	20259
872.267	20278
872.397	20176
872.526	20054
872.656	20187
872.785	20031
872.915	20393
873.044	20332
873.173	20294
873.303	20419
873.432	20286
873.561	20385
873.69	20355
873.819	20271
873.948	20408
874.077	20389
874.206	20206
874.335	20233
874.464	20415
874.593	20495
874.722	20598
874.851	20655
874.979	20590
875.108	20670
875.237	20499
875.365	20499
875.494	20636
875.623	20640
875.751	20583
875.88	20507
876.008	20705
876.136	20739
876.265	21020
876.393	21093
876.521	20990
876.65	21036
876.778	20971
876.906	20963
877.034	20929
877.162	20861
877.29	20815
877.418	21051
877.546	20880
877.674	20979
877.802	20876
877.93	20944
878.058	20914
878.185	20727
878.313	20883
878.441	20906
878.568	20800
878.696	20861
878.824	20929
878.951	21074
879.079	21077
879.206	21226
879.333	21077
879.461	20952
879.588	21108
879.715	21142
879.842	21230
879.97	21036
880.097	20823
880.224	20868
880.351	20773
880.478	20826
880.605	20807
880.732	20788
880.859	20933
880.986	20819
881.112	20861
881.239	20636
881.366	20617
881.493	20568
881.619	20381
881.746	20320
881.872	20355
881.999	20328
882.125	20233
882.252	20438
882.378	20415
882.505	20552
882.631	20358
882.757	20157
882.883	20221
883.01	20229
883.136	20126
883.262	19967
883.388	19925
883.514	20130
883.64	20199
883.766	20119
883.892	19818
884.018	19963
884.143	20077
884.269	20145
884.395	19795
884.52	19738
884.646	19849
884.772	19639
884.897	19643
885.023	19826
885.148	19875
885.274	19807
885.399	19822
885.524	19803
885.65	19719
885.775	19791
885.9	19769
886.025	19875
886.15	19841
886.275	19822
886.4	19681
886.525	19662
886.65	19746
886.775	19677
886.9	19811
887.025	19909
887.149	19655
887.274	19594
887.399	19525
887.523	19521
887.648	19464
887.773	19449
887.897	19502
888.021	19460
888.146	19415
888.27	19563
888.395	19601
888.519	19628
888.643	19537
888.767	19655
888.891	19407
889.015	19308
889.139	19365
889.263	19255
889.387	19388
889.511	19464
889.635	19373
889.759	19266
889.883	19304
890.006	19331
890.13	19441
890.254	19190
890.377	19244
890.501	18981
890.624	18894
890.748	19133
890.871	18993
890.995	18924
891.118	18772
891.241	18958
891.364	18951
891.488	18966
891.611	19000
891.734	18829
891.857	19015
891.98	18760
892.103	18943
892.226	18981
892.349	18825
892.471	18696
892.594	18859
892.717	18856
892.839	18840
892.962	18719
893.085	18894
893.207	18833
893.33	18798
893.452	18833
893.575	18878
893.697	18757
893.819	18954
893.941	19069
894.064	18966
894.186	18802
894.308	18840
894.43	18852
894.552	18993
894.674	18966
894.796	18741
894.918	18795
895.04	18760
895.161	18970
895.283	18833
895.405	18791
895.526	18932
895.648	18787
895.769	18757
895.891	18909
896.012	19004
896.134	19015
896.255	18993
896.376	18886
896.498	18802
896.619	19061
896.74	18878
896.861	18913
896.982	19278
897.103	19453
897.224	19244
897.345	19202
897.466	19148
897.587	19168
897.708	19228
897.828	19031
897.949	19080
898.07	19000
898.19	19107
898.311	19213
898.431	19088
898.552	19206
898.672	19175
898.792	19088
898.913	19008
899.033	18966
899.153	18924
899.273	18791
899.393	18920
899.513	18810
899.633	18840
899.753	18810
899.873	18711
899.993	18821
900.113	18741
900.232	18665
900.352	18722
900.472	18757
900.591	18639
900.711	18528
900.83	18582
900.95	18703
901.069	18730
901.189	18551
901.308	18311
901.427	18197
901.546	18201
901.665	18258
901.784	18239
901.904	18136
902.023	18057
902.141	17779
902.26	17756
902.379	17805
902.498	17847
902.617	17741
902.735	17855
902.854	17680
902.973	17703
903.091	17459
903.21	17368
903.328	17512
903.446	17345
903.565	17193
903.683	17296
903.801	17143
903.919	17200
904.038	17162
904.156	17064
904.274	17094
904.392	16995
904.51	16923
904.627	16953
904.745	17045
904.863	17086
904.981	16877
905.098	16664
905.216	16653
905.334	16759
905.451	16645
905.569	16630
905.686	16733
905.803	16569
905.921	16474
906.038	16607
906.155	16459
906.272	16314
906.389	16329
906.506	16223
906.623	16215
906.74	16226
906.857	16029
906.974	16131
907.091	16284
907.208	16417
907.324	16109
907.441	16158
907.557	15926
907.674	15850
907.79	15816
907.907	15869
908.023	15884
908.139	15903
908.256	15850
908.372	15728
908.488	15652
908.604	15568
908.72	15534
908.836	15671
908.952	15644
909.068	15568
909.184	15637
909.3	15557
909.415	15553
909.531	15504
909.647	15443
909.762	15287
909.878	15340
909.993	15329
910.108	15332
910.224	15264
910.339	15169
910.454	15108
910.57	15116
910.685	15062
910.8	15268
910.915	15245
911.03	15047
911.145	14956
911.259	14918
911.374	14864
911.489	14853
911.604	14773
911.718	14636
911.833	14674
911.947	14533
912.062	14545
912.176	14678
912.291	14739
912.405	14571
912.519	14785
912.633	14853
912.748	14655
912.862	14533
912.976	14427
913.09	14320
913.204	14412
913.318	14473
913.431	14541
913.545	14503
913.659	14541
913.772	14343
913.886	14389
914	14191
914.113	14408
914.226	14381
914.34	14355
914.453	14161
914.566	14389
914.68	14115
914.793	14138
914.906	14001
915.019	13894
915.132	13803
915.245	13955
915.358	13909
915.47	13989
915.583	13955
915.696	13967
915.809	14058
915.921	14103
916.034	13795
916.146	13811
916.259	13814
916.371	13909
916.483	13852
916.595	13784
916.708	13799
916.82	13742
916.932	13727
917.044	13677
917.156	13700
917.268	13601
917.38	13609
917.491	13559
917.603	13620
917.715	13674
917.826	13685
917.938	13483
918.049	13430
918.161	13628
918.272	13708
918.384	13658
918.495	13582
918.606	13403
918.717	13324
918.828	13396
918.939	13293
919.05	13304
919.161	13354
919.272	13209
919.383	13202
919.494	13396
919.604	13586
919.715	13381
919.826	13304
919.936	13308
920.047	13415
920.157	13324
920.267	13575
920.378	13369
920.488	13362
920.598	13533
920.708	13613
920.818	13556
920.928	13441
921.038	13643
921.148	13647
921.258	13316
921.368	13232
921.477	13118
921.587	13065
921.697	12981
921.806	13156
921.916	13019
922.025	12871
922.134	12730
922.244	12688
922.353	12837
922.462	12612
922.571	12646
922.68	12486
922.789	12346
922.898	12418
923.007	12330
923.116	12418
923.224	12327
923.333	12346
923.442	12308
923.55	12262
923.659	12247
923.767	12315
923.876	12213
923.984	12247
924.092	12239
924.201	12114
924.309	12167
924.417	12254
924.525	12136
924.633	12110
924.741	13103
924.849	11893
924.956	12022
925.064	12030
925.172	11832
925.279	11904
925.387	11935
925.494	11927
925.602	12114
925.709	11980
925.816	11920
925.924	11885
926.031	11996
926.138	11786
926.245	11885
926.352	11783
926.459	11878
926.566	11885
926.673	11832
926.779	11699
926.886	11608
926.993	11490
927.099	11532
927.206	11471
927.312	11387
927.419	11551
927.525	11474
927.631	11577
927.737	11493
927.843	11376
927.95	11280
928.056	11322
928.162	11433
928.267	11360
928.373	11969
928.479	11433
928.585	11174
928.69	11311
928.796	11326
928.901	11239
929.007	11045
929.112	11242
929.218	11258
929.323	11124
929.428	11113
929.533	11258
929.638	10999
929.743	11094
929.848	11128
929.953	11014
930.058	10911
930.163	10843
930.267	10843
930.372	10953
930.477	10801
930.581	11052
930.685	10839
930.79	10683
930.894	10630
930.998	10607
931.103	10790
931.207	10413
931.311	10348
931.415	10272
931.519	10139
931.623	10143
