Data from test_V78500241_1969.txt Node
Date: Fri Mar 25 15:55:26 CST 2022
User: usil
Spectrometer: V785-0024
Trigger mode: 0
Integration Time (sec): 4.000000E-1
Scans to average: 1
Nonlinearity correction enabled: false
Boxcar width: 0
Storing dark spectrum: false
XAxis mode: Wavelengths
Number of Pixels in Spectrum: 1024
>>>>>Begin Spectral Data<<<<<
801.071	28809
801.214	28679
801.356	28485
801.499	28401
801.641	28322
801.783	28188
801.926	28379
802.068	28287
802.211	28284
802.353	28154
802.496	27911
802.638	27918
802.78	27816
802.923	27876
803.065	27869
803.208	27953
803.35	27911
803.492	28063
803.635	28200
803.777	27934
803.919	28181
804.061	28489
804.204	28181
804.346	28139
804.488	28120
804.63	28147
804.773	28070
804.915	28242
805.057	28382
805.199	28120
805.341	28356
805.483	28447
805.626	28299
805.768	28192
805.91	28306
806.052	28379
806.194	28276
806.336	28474
806.478	28287
806.62	28268
806.762	28394
806.904	28713
807.046	28786
807.188	28683
807.33	28729
807.472	28767
807.614	28698
807.756	28805
807.898	28641
808.04	28634
808.182	28497
808.324	28675
808.465	28615
808.607	28991
808.749	28961
808.891	29109
809.033	29220
809.174	29079
809.316	28778
809.458	29025
809.6	28850
809.741	29159
809.883	29113
810.025	29208
810.166	29261
810.308	29220
810.45	29250
810.591	29200
810.733	29022
810.875	28980
811.016	28812
811.158	28930
811.299	29075
811.441	29105
811.582	29170
811.724	29003
811.865	29124
812.007	29018
812.148	29025
812.29	29067
812.431	29102
812.573	29341
812.714	29410
812.855	29531
812.997	29611
813.138	29767
813.279	29672
813.421	29577
813.562	29619
813.703	29288
813.845	29284
813.986	28984
814.127	28873
814.268	28736
814.41	28634
814.551	28656
814.692	28706
814.833	28622
814.974	28588
815.115	28672
815.256	28618
815.397	28489
815.539	28535
815.68	28436
815.821	28478
815.962	28527
816.103	28523
816.244	28242
816.385	28234
816.526	28287
816.666	28116
816.807	27956
816.948	28234
817.089	27926
817.23	27930
817.371	28032
817.512	27941
817.653	28017
817.793	27861
817.934	27975
818.075	28120
818.216	28082
818.356	28036
818.497	27797
818.638	27781
818.778	27816
818.919	27671
819.06	27922
819.2	27804
819.341	27937
819.481	28078
819.622	28097
819.762	28409
819.903	28303
820.043	28112
820.184	28116
820.324	28147
820.465	28211
820.605	28105
820.746	28158
820.886	27865
821.026	28086
821.167	28120
821.307	28044
821.447	28055
821.588	27914
821.728	27717
821.868	27663
822.008	27545
822.149	27625
822.289	27603
822.429	27348
822.569	27260
822.709	27233
822.849	26975
822.99	27017
823.13	26887
823.27	26796
823.41	26765
823.55	26697
823.69	26785
823.83	26842
823.97	26735
824.11	26644
824.25	26621
824.389	26823
824.529	26701
824.669	26590
824.809	26777
824.949	26746
825.089	26689
825.228	26811
825.368	26514
825.508	26480
825.648	26590
825.787	26602
825.927	26571
826.067	26556
826.206	26503
826.346	26705
826.485	26746
826.625	26446
826.765	26583
826.904	26469
827.044	26233
827.183	26457
827.323	26187
827.462	26431
827.601	26278
827.741	26157
827.88	26176
828.02	26065
828.159	26111
828.298	26218
828.437	26313
828.577	26294
828.716	26294
828.855	26145
828.994	26058
829.134	25841
829.273	25947
829.412	25974
829.551	25849
829.69	25898
829.829	25936
829.968	26008
830.107	26001
830.246	25879
830.385	25913
830.524	25879
830.663	25643
830.802	25677
830.941	25594
831.08	25559
831.219	25506
831.357	25677
831.496	25898
831.635	25544
831.774	25426
831.913	25396
832.051	25274
832.19	25274
832.329	25381
832.467	25289
832.606	25327
832.744	25110
832.883	25160
833.022	25099
833.16	25346
833.299	25285
833.437	25202
833.576	25171
833.714	25293
833.852	25259
833.991	25247
834.129	25411
834.267	25384
834.406	25308
834.544	25362
834.682	25392
834.821	25221
834.959	25453
835.097	25137
835.235	25316
835.373	25156
835.511	25259
835.65	25164
835.788	25156
835.926	24973
836.064	24905
836.202	24962
836.34	25012
836.478	25107
836.615	25061
836.753	25038
836.891	25088
837.029	25156
837.167	24928
837.305	24996
837.443	24985
837.58	24996
837.718	24954
837.856	24894
837.993	24882
838.131	24882
838.269	24776
838.406	24753
838.544	24711
838.681	24517
838.819	24483
838.956	24357
839.094	24304
839.231	24460
839.369	24460
839.506	24715
839.643	24642
839.781	24384
839.918	24304
840.055	24361
840.193	24296
840.33	24334
840.467	24361
840.604	24277
840.742	24608
840.879	24140
841.016	24224
841.153	24186
841.29	24311
841.427	24433
841.564	24300
841.701	24243
841.838	24136
841.975	24121
842.112	24106
842.249	24129
842.385	24026
842.522	24235
842.659	24110
842.796	23954
842.933	24041
843.069	23912
843.206	24034
843.343	24220
843.479	24079
843.616	23992
843.752	23733
843.889	23920
844.025	23950
844.162	23912
844.298	23904
844.435	23775
844.571	23695
844.708	23893
844.844	23912
844.98	23977
845.117	23931
845.253	23726
845.389	23733
845.525	23707
845.661	23581
845.798	23547
845.934	23710
846.07	23444
846.206	23505
846.342	23722
846.478	23566
846.614	23261
846.75	23189
846.886	23200
847.022	23391
847.158	23322
847.294	23231
847.429	23280
847.565	23334
847.701	23433
847.837	22972
847.972	22869
848.108	23048
848.244	23086
848.379	22965
848.515	22850
848.65	22797
848.786	22828
848.921	22793
849.057	23003
849.192	22911
849.328	22854
849.463	22816
849.598	22801
849.734	22725
849.869	22763
850.004	22664
850.14	22630
850.275	22615
850.41	22508
850.545	22550
850.68	22561
850.815	22565
850.95	22603
851.085	22801
851.22	22664
851.355	22622
851.49	22554
851.625	22573
851.76	22596
851.895	22474
852.03	22535
852.165	22596
852.299	22675
852.434	22717
852.569	22710
852.703	22531
852.838	22504
852.973	22641
853.107	22607
853.242	22527
853.376	22459
853.511	22360
853.645	22394
853.78	22493
853.914	22474
854.048	22409
854.183	22478
854.317	22516
854.451	22717
854.585	22379
854.72	22428
854.854	22538
854.988	22303
855.122	22535
855.256	22265
855.39	22402
855.524	22478
855.658	22443
855.792	22474
855.926	22436
856.06	22519
856.194	22516
856.327	22363
856.461	22242
856.595	22436
856.729	22421
856.862	22478
856.996	22500
857.13	22478
857.263	22428
857.397	22459
857.53	22398
857.664	22417
857.797	22424
857.931	22577
858.064	22447
858.197	22557
858.331	22295
858.464	22390
858.597	22276
858.731	22432
858.864	22341
858.997	22322
859.13	22382
859.263	22356
859.396	22561
859.529	22299
859.662	22363
859.795	22409
859.928	22348
860.061	22618
860.194	22599
860.327	22443
860.46	22508
860.592	22512
860.725	22637
860.858	22546
860.99	22485
861.123	22318
861.256	22390
861.388	22424
861.521	23197
861.653	22284
861.786	22223
861.918	22337
862.05	22234
862.183	22333
862.315	22272
862.447	22356
862.58	22436
862.712	22196
862.844	22147
862.976	22272
863.108	22169
863.24	22694
863.372	22112
863.504	22139
863.636	22135
863.768	22306
863.9	22147
864.032	22143
864.164	22109
864.296	22093
864.428	22257
864.559	22253
864.691	22215
864.823	22131
864.954	21972
865.086	22067
865.217	21934
865.349	21937
865.48	21884
865.612	22048
865.743	22093
865.875	22036
866.006	22006
866.137	21876
866.269	22055
866.4	21857
866.531	21857
866.662	21934
866.793	21991
866.924	21994
867.055	22006
867.186	21934
867.317	21945
867.448	21911
867.579	21895
867.71	21895
867.841	21903
867.972	21918
868.103	21800
868.233	21880
868.364	21895
868.495	22032
868.625	22158
868.756	22348
868.886	22086
869.017	22147
869.147	22173
869.278	22322
869.408	22230
869.539	22253
869.669	22253
869.799	22367
869.929	22226
870.06	22360
870.19	22516
870.32	22436
870.45	22577
870.58	22702
870.71	22637
870.84	22569
870.97	22542
871.1	22531
871.23	22748
871.36	22698
871.489	22679
871.619	22694
871.749	22767
871.879	22687
872.008	22946
872.138	22793
872.267	22797
872.397	22584
872.526	22611
872.656	22523
872.785	22527
872.915	22698
873.044	22961
873.173	22736
873.303	22835
873.432	22869
873.561	22961
873.69	22812
873.819	22683
873.948	22873
874.077	22843
874.206	22706
874.335	22759
874.464	22786
874.593	23052
874.722	22923
874.851	23216
874.979	23128
875.108	23044
875.237	22968
875.365	22896
875.494	22938
875.623	22927
875.751	22858
875.88	23014
876.008	23090
876.136	23193
876.265	23299
876.393	23528
876.521	23421
876.65	23360
876.778	23429
876.906	23337
877.034	23265
877.162	23265
877.29	23178
877.418	23292
877.546	23334
877.674	23231
877.802	23284
877.93	23277
878.058	23296
878.185	23223
878.313	23261
878.441	23185
878.568	23159
878.696	23307
878.824	23334
878.951	23398
879.079	23474
879.206	23566
879.333	23531
879.461	23433
879.588	23398
879.715	23501
879.842	23687
879.97	23444
880.097	23185
880.224	23208
880.351	23121
880.478	23280
880.605	23178
880.732	23212
880.859	23353
880.986	23250
881.112	23254
881.239	23098
881.366	22934
881.493	22839
881.619	22637
881.746	22713
881.872	22816
881.999	22675
882.125	22691
882.252	22790
882.378	22782
882.505	22835
882.631	22538
882.757	22508
882.883	22390
883.01	22470
883.136	22322
883.262	22238
883.388	22238
883.514	22352
883.64	22462
883.766	22207
883.892	22226
884.018	22086
884.143	22394
884.269	22493
884.395	22162
884.52	22074
884.646	22051
884.772	22013
884.897	21983
885.023	22139
885.148	22101
885.274	22124
885.399	22143
885.524	22135
885.65	22006
885.775	22215
885.9	22067
886.025	22128
886.15	22162
886.275	22112
886.4	21895
886.525	22059
886.65	21956
886.775	21953
886.9	22105
887.025	22276
887.149	22025
887.274	21880
887.399	21816
887.523	21728
887.648	21800
887.773	21720
887.897	21869
888.021	21850
888.146	21701
888.27	21888
888.395	21846
888.519	21808
888.643	21892
888.767	21838
888.891	21682
889.015	21652
889.139	21625
889.263	21724
889.387	21812
889.511	21804
889.635	21629
889.759	21557
889.883	21549
890.006	21637
890.13	21766
890.254	21728
890.377	21500
890.501	21393
890.624	21287
890.748	21439
890.871	21283
890.995	21108
891.118	21116
891.241	21226
891.364	21138
891.488	21252
891.611	21192
891.734	20990
891.857	21279
891.98	21207
892.103	21252
892.226	21039
892.349	21108
892.471	20971
892.594	21062
892.717	21142
892.839	21093
892.962	21081
893.085	21157
893.207	21032
893.33	20994
893.452	20937
893.575	21123
893.697	20990
893.819	21123
893.941	21241
894.064	21218
894.186	21169
894.308	20861
894.43	21112
894.552	21138
894.674	21013
894.796	21013
894.918	21108
895.04	21051
895.161	21157
895.283	21131
895.405	20918
895.526	21039
895.648	20910
895.769	21131
895.891	20975
896.012	21100
896.134	20998
896.255	20956
896.376	21085
896.498	21028
896.619	20952
896.74	20971
896.861	21017
896.982	21405
897.103	21519
897.224	21264
897.345	21321
897.466	21211
897.587	21218
897.708	21336
897.828	21294
897.949	21214
898.07	21104
898.19	21192
898.311	21313
898.431	21222
898.552	21230
898.672	21214
898.792	21214
898.913	21169
899.033	21207
899.153	21017
899.273	20883
899.393	20979
899.513	21081
899.633	20979
899.753	20906
899.873	20823
899.993	20887
900.113	20731
900.232	20918
900.352	20887
900.472	20785
900.591	20857
900.711	20796
900.83	20670
900.95	20773
901.069	20731
901.189	20659
901.308	20408
901.427	20385
901.546	20370
901.665	20404
901.784	20256
901.904	20240
902.023	20012
902.141	19944
902.26	19814
902.379	19989
902.498	19799
902.617	19772
902.735	19822
902.854	19715
902.973	19746
903.091	19419
903.21	19407
903.328	19476
903.446	19354
903.565	19240
903.683	19137
903.801	19202
903.919	19301
904.038	19069
904.156	19027
904.274	19225
904.392	19061
904.51	19038
904.627	19012
904.745	18993
904.863	18996
904.981	18825
905.098	18738
905.216	18734
905.334	18779
905.451	18650
905.569	18574
905.686	18669
905.803	18658
905.921	18475
906.038	18597
906.155	18437
906.272	18369
906.389	18464
906.506	18228
906.623	18228
906.74	18194
906.857	18148
906.974	18171
907.091	18270
907.208	18292
907.324	18197
907.441	18045
907.557	17965
907.674	17958
907.79	17817
907.907	17893
908.023	17954
908.139	17889
908.256	17840
908.372	17813
908.488	17783
908.604	17748
908.72	17661
908.836	17684
908.952	17604
909.068	17691
909.184	17649
909.3	17608
909.415	17611
909.531	17619
909.647	17330
909.762	17376
909.878	17280
909.993	17280
910.108	17292
910.224	17216
910.339	17345
910.454	17246
910.57	17166
910.685	17121
910.8	17379
910.915	17273
911.03	17151
911.145	16957
911.259	16862
911.374	16866
911.489	16805
911.604	16778
911.718	16675
911.833	16668
911.947	16558
912.062	16508
912.176	16558
912.291	16603
912.405	16660
912.519	16873
912.633	16892
912.748	16679
912.862	16611
912.976	16443
913.09	16394
913.204	16459
913.318	16481
913.431	16527
913.545	16535
913.659	16512
913.772	16394
913.886	16223
914	16265
914.113	16272
914.226	16451
914.34	16272
914.453	16029
914.566	16325
914.68	16188
914.793	16090
914.906	15880
915.019	15918
915.132	15789
915.245	15781
915.358	15888
915.47	15907
915.583	15937
915.696	15846
915.809	15876
915.921	15949
916.034	15755
916.146	15789
916.259	15701
916.371	15835
916.483	15781
916.595	15629
916.708	15599
916.82	15641
916.932	15576
917.044	15542
917.156	15530
917.268	15466
917.38	15561
917.491	15424
917.603	15500
917.715	15538
917.826	15580
917.938	15408
918.049	15317
918.161	15363
918.272	15553
918.384	15481
918.495	15378
918.606	15275
918.717	15020
918.828	15268
918.939	15279
919.05	15089
919.161	15176
919.272	14925
919.383	15066
919.494	15233
919.604	15428
919.715	15123
919.826	15093
919.936	15100
920.047	15142
920.157	15036
920.267	15351
920.378	15173
920.488	15009
920.598	15298
920.708	15454
920.818	15233
920.928	15332
921.038	15412
921.148	15424
921.258	15089
921.368	14963
921.477	14910
921.587	14861
921.697	14773
921.806	14925
921.916	14762
922.025	14526
922.134	14579
922.244	14484
922.353	14480
922.462	14404
922.571	14404
922.68	14199
922.789	14157
922.898	14119
923.007	14103
923.116	14126
923.224	14130
923.333	14046
923.442	14024
923.55	13913
923.659	14084
923.767	14050
923.876	13967
923.984	13951
924.092	13795
924.201	13871
924.309	13849
924.417	13928
924.525	13868
924.633	13852
924.741	14682
924.849	13582
924.956	13765
925.064	13590
925.172	13510
925.279	13540
925.387	13521
925.494	13514
925.602	13674
925.709	13575
925.816	13266
925.924	13449
926.031	13605
926.138	13480
926.245	13514
926.352	13362
926.459	13525
926.566	13434
926.673	13343
926.779	13266
926.886	13228
926.993	13091
927.099	13171
927.206	13046
927.312	13042
927.419	13118
927.525	13164
927.631	13145
927.737	12947
927.843	12901
927.95	12760
928.056	12916
928.162	12882
928.267	12878
928.373	13552
928.479	13031
928.585	12726
928.69	12890
928.796	12840
928.901	12768
929.007	12662
929.112	12730
929.218	12700
929.323	12601
929.428	12623
929.533	12715
929.638	12536
929.743	12525
929.848	12662
929.953	12589
930.058	12441
930.163	12273
930.267	12243
930.372	12369
930.477	12292
930.581	12544
930.685	12361
930.79	12110
930.894	12175
930.998	12083
931.103	12334
931.207	11912
931.311	11817
931.415	11764
931.519	11482
931.623	11592
