Data from test_V78500241_1228.txt Node
Date: Fri Mar 25 15:50:18 CST 2022
User: usil
Spectrometer: V785-0024
Trigger mode: 0
Integration Time (sec): 4.000000E-1
Scans to average: 1
Nonlinearity correction enabled: false
Boxcar width: 0
Storing dark spectrum: false
XAxis mode: Wavelengths
Number of Pixels in Spectrum: 1024
>>>>>Begin Spectral Data<<<<<
801.071	28725
801.214	28592
801.356	28246
801.499	28322
801.641	28223
801.783	28200
801.926	28291
802.068	28188
802.211	28120
802.353	28082
802.496	28029
802.638	27846
802.78	27827
802.923	27720
803.065	27808
803.208	27823
803.35	27774
803.492	27884
803.635	28067
803.777	28017
803.919	28032
804.061	28306
804.204	28063
804.346	28147
804.488	28032
804.63	28082
804.773	28002
804.915	28204
805.057	28249
805.199	28131
805.341	28150
805.483	28284
805.626	28261
805.768	28059
805.91	28303
806.052	28246
806.194	28253
806.336	28371
806.478	28375
806.62	28265
806.762	28371
806.904	28580
807.046	28683
807.188	28713
807.33	28771
807.472	28748
807.614	28668
807.756	28736
807.898	28519
808.04	28557
808.182	28550
808.324	28569
808.465	28645
808.607	28805
808.749	28953
808.891	29109
809.033	29064
809.174	28995
809.316	29102
809.458	28828
809.6	28927
809.741	29128
809.883	29166
810.025	29353
810.166	29235
810.308	29284
810.45	29033
810.591	29254
810.733	29048
810.875	28923
811.016	28805
811.158	28915
811.299	29105
811.441	29132
811.582	29056
811.724	28976
811.865	28881
812.007	28885
812.148	28957
812.29	29052
812.431	29136
812.573	29322
812.714	29250
812.855	29589
812.997	29452
813.138	29737
813.279	29745
813.421	29406
813.562	29372
813.703	29299
813.845	29395
813.986	28877
814.127	28854
814.268	28733
814.41	28687
814.551	28542
814.692	28801
814.833	28584
814.974	28653
815.115	28634
815.256	28500
815.397	28584
815.539	28596
815.68	28436
815.821	28409
815.962	28634
816.103	28451
816.244	28371
816.385	28287
816.526	28287
816.666	28006
816.807	27979
816.948	28177
817.089	28097
817.23	28063
817.371	27903
817.512	27964
817.653	28017
817.793	28006
817.934	27979
818.075	28006
818.216	28036
818.356	27823
818.497	27888
818.638	27759
818.778	27770
818.919	27835
819.06	27732
819.2	27899
819.341	28055
819.481	27998
819.622	28063
819.762	28341
819.903	28253
820.043	28246
820.184	28074
820.324	28051
820.465	28173
820.605	28169
820.746	28207
820.886	28021
821.026	28120
821.167	27983
821.307	28074
821.447	27880
821.588	28017
821.728	27793
821.868	27648
822.008	27450
822.149	27439
822.289	27424
822.429	27249
822.569	27043
822.709	27127
822.849	26975
822.99	26948
823.13	26944
823.27	26963
823.41	26876
823.55	26636
823.69	26777
823.83	26921
823.97	26739
824.11	26663
824.25	26423
824.389	26480
824.529	26701
824.669	26708
824.809	26762
824.949	26621
825.089	26864
825.228	26727
825.368	26522
825.508	26575
825.648	26575
825.787	26511
825.927	26590
826.067	26492
826.206	26644
826.346	26674
826.485	26484
826.625	26511
826.765	26701
826.904	26511
827.044	26206
827.183	26393
827.323	26355
827.462	26214
827.601	26256
827.741	26164
827.88	26301
828.02	26008
828.159	26134
828.298	26115
828.437	26240
828.577	26183
828.716	26256
828.855	25852
828.994	25936
829.134	25928
829.273	25970
829.412	26012
829.551	25784
829.69	25795
829.829	25906
829.968	25982
830.107	26069
830.246	25921
830.385	25795
830.524	25814
830.663	25833
830.802	25647
830.941	25464
831.08	25495
831.219	25506
831.357	25540
831.496	25769
831.635	25616
831.774	25464
831.913	25373
832.051	25285
832.19	25388
832.329	25324
832.467	25137
832.606	25171
832.744	25152
832.883	25129
833.022	25225
833.16	25221
833.299	25175
833.437	25225
833.576	25206
833.714	25335
833.852	25316
833.991	25297
834.129	25388
834.267	25228
834.406	25183
834.544	25278
834.682	25282
834.821	25202
834.959	25388
835.097	25225
835.235	25297
835.373	25065
835.511	25152
835.65	25057
835.788	25228
835.926	25000
836.064	24856
836.202	24856
836.34	25145
836.478	25057
836.615	24966
836.753	25042
836.891	25164
837.029	25091
837.167	25034
837.305	24958
837.443	24947
837.58	24878
837.718	25038
837.856	24848
837.993	24795
838.131	24806
838.269	24741
838.406	24901
838.544	24715
838.681	24559
838.819	24456
838.956	24277
839.094	24372
839.231	24505
839.369	24494
839.506	24593
839.643	24631
839.781	24414
839.918	24315
840.055	24391
840.193	24346
840.33	24262
840.467	24353
840.604	24277
840.742	24639
840.879	24235
841.016	24266
841.153	24254
841.29	24304
841.427	24292
841.564	24232
841.701	24201
841.838	24262
841.975	24171
842.112	24079
842.249	24079
842.385	23954
842.522	24251
842.659	24133
842.796	24163
842.933	24015
843.069	23958
843.206	23942
843.343	24011
843.479	24121
843.616	24060
843.752	23756
843.889	23931
844.025	23878
844.162	23904
844.298	23973
844.435	23832
844.571	23802
844.708	23870
844.844	23836
844.98	23843
845.117	23832
845.253	23726
845.389	23767
845.525	23832
845.661	23604
845.798	23531
845.934	23600
846.07	23417
846.206	23627
846.342	23642
846.478	23448
846.614	23345
846.75	23280
846.886	23216
847.022	23162
847.158	23341
847.294	23159
847.429	23261
847.565	23254
847.701	23535
847.837	23102
847.972	23006
848.108	23056
848.244	23128
848.379	22850
848.515	22889
848.65	22774
848.786	22908
848.921	22862
849.057	22816
849.192	22889
849.328	22911
849.463	22854
849.598	22767
849.734	22801
849.869	22691
850.004	22599
850.14	22725
850.275	22634
850.41	22500
850.545	22542
850.68	22592
850.815	22527
850.95	22687
851.085	22763
851.22	22702
851.355	22542
851.49	22664
851.625	22523
851.76	22580
851.895	22535
852.03	22596
852.165	22664
852.299	22535
852.434	22622
852.569	22782
852.703	22538
852.838	22679
852.973	22668
853.107	22596
853.242	22561
853.376	22497
853.511	22299
853.645	22500
853.78	22630
853.914	22398
854.048	22493
854.183	22451
854.317	22481
854.451	22523
854.585	22337
854.72	22440
854.854	22470
854.988	22333
855.122	22470
855.256	22318
855.39	22382
855.524	22375
855.658	22470
855.792	22466
855.926	22497
856.06	22573
856.194	22447
856.327	22405
856.461	22367
856.595	22356
856.729	22489
856.862	22421
856.996	22508
857.13	22421
857.263	22527
857.397	22481
857.53	22398
857.664	22394
857.797	22519
857.931	22535
858.064	22356
858.197	22474
858.331	22557
858.464	22382
858.597	22379
858.731	22379
858.864	22424
858.997	22455
859.13	22462
859.263	22462
859.396	22542
859.529	22394
859.662	22371
859.795	22386
859.928	22409
860.061	22596
860.194	22752
860.327	22436
860.46	22516
860.592	22580
860.725	22584
860.858	22603
860.99	22405
861.123	22390
861.256	22310
861.388	22356
861.521	23235
861.653	22325
861.786	22135
861.918	22333
862.05	22394
862.183	22299
862.315	22333
862.447	22409
862.58	22382
862.712	22162
862.844	22181
862.976	22147
863.108	22230
863.24	22527
863.372	22074
863.504	22120
863.636	22093
863.768	22021
863.9	22173
864.032	22067
864.164	21998
864.296	22128
864.428	22219
864.559	22093
864.691	22223
864.823	22048
864.954	22150
865.086	22082
865.217	22063
865.349	21918
865.48	21937
865.612	22101
865.743	22116
865.875	22013
866.006	22059
866.137	21903
866.269	22006
866.4	22002
866.531	21911
866.662	21930
866.793	22048
866.924	21991
867.055	22067
867.186	22017
867.317	22040
867.448	21991
867.579	21991
867.71	21770
867.841	21720
867.972	21865
868.103	21865
868.233	21880
868.364	21892
868.495	22082
868.625	22284
868.756	22322
868.886	22131
869.017	22158
869.147	22215
869.278	22253
869.408	22280
869.539	22230
869.669	22360
869.799	22268
869.929	22295
870.06	22124
870.19	22504
870.32	22424
870.45	22546
870.58	22527
870.71	22588
870.84	22653
870.97	22516
871.1	22565
871.23	22820
871.36	22736
871.489	22733
871.619	22645
871.749	22797
871.879	22774
872.008	22713
872.138	22782
872.267	22713
872.397	22653
872.526	22634
872.656	22622
872.785	22649
872.915	22869
873.044	22862
873.173	22717
873.303	22725
873.432	22862
873.561	22915
873.69	22828
873.819	22793
873.948	22755
874.077	22850
874.206	22729
874.335	22869
874.464	22904
874.593	22976
874.722	23033
874.851	23067
874.979	23166
875.108	23029
875.237	22915
875.365	22923
875.494	22957
875.623	23071
875.751	22930
875.88	23029
876.008	23018
876.136	23162
876.265	23406
876.393	23551
876.521	23524
876.65	23406
876.778	23326
876.906	23307
877.034	23318
877.162	23341
877.29	23364
877.418	23406
877.546	23292
877.674	23376
877.802	23376
877.93	23307
878.058	23250
878.185	23254
878.313	23318
878.441	23280
878.568	23166
878.696	23227
878.824	23337
878.951	23296
879.079	23330
879.206	23611
879.333	23414
879.461	23326
879.588	23543
879.715	23482
879.842	23600
879.97	23368
880.097	23277
880.224	23189
880.351	23216
880.478	23261
880.605	23105
880.732	23113
880.859	23398
880.986	23189
881.112	23113
881.239	22987
881.366	22915
881.493	22892
881.619	22816
881.746	22767
881.872	22694
881.999	22664
882.125	22622
882.252	22774
882.378	22763
882.505	22687
882.631	22577
882.757	22409
882.883	22447
883.01	22356
883.136	22276
883.262	22303
883.388	22337
883.514	22371
883.64	22485
883.766	22261
883.892	22131
884.018	22246
884.143	22398
884.269	22337
884.395	22059
884.52	22044
884.646	22120
884.772	21983
884.897	21819
885.023	21979
885.148	22029
885.274	22131
885.399	22101
885.524	22063
885.65	22067
885.775	22093
885.9	22036
886.025	22074
886.15	22196
886.275	22086
886.4	21979
886.525	21960
886.65	21930
886.775	21941
886.9	22166
887.025	22143
887.149	21949
887.274	21842
887.399	21800
887.523	21956
887.648	21610
887.773	21724
887.897	21835
888.021	21911
888.146	21713
888.27	21918
888.395	21785
888.519	21812
888.643	21755
888.767	21766
888.891	21675
889.015	21644
889.139	21580
889.263	21530
889.387	21576
889.511	21778
889.635	21751
889.759	21443
889.883	21599
890.006	21599
890.13	21538
890.254	21492
890.377	21500
890.501	21218
890.624	21184
890.748	21287
890.871	21150
890.995	21051
891.118	21055
891.241	21157
891.364	21192
891.488	21252
891.611	21138
891.734	21165
891.857	21165
891.98	21207
892.103	21039
892.226	21081
892.349	21123
892.471	20960
892.594	21093
892.717	21077
892.839	21039
892.962	20948
893.085	21150
893.207	21005
893.33	20872
893.452	20800
893.575	21146
893.697	20960
893.819	21173
893.941	21108
894.064	21089
894.186	21047
894.308	20975
894.43	21127
894.552	21085
894.674	21077
894.796	20788
894.918	21066
895.04	20967
895.161	21066
895.283	20994
895.405	20975
895.526	21024
895.648	20975
895.769	21058
895.891	20963
896.012	21116
896.134	21066
896.255	20944
896.376	20937
896.498	20925
896.619	21070
896.74	20963
896.861	21081
896.982	21233
897.103	21504
897.224	21180
897.345	21252
897.466	21131
897.587	21142
897.708	21313
897.828	21272
897.949	21112
898.07	20948
898.19	21188
898.311	21386
898.431	21074
898.552	21119
898.672	21291
898.792	21272
898.913	21207
899.033	21138
899.153	20948
899.273	20933
899.393	20899
899.513	21043
899.633	20929
899.753	20933
899.873	20883
899.993	21074
900.113	20963
900.232	20952
900.352	20773
900.472	20727
900.591	20701
900.711	20712
900.83	20644
900.95	20678
901.069	20785
901.189	20495
901.308	20256
901.427	20180
901.546	20328
901.665	20286
901.784	20313
901.904	20225
902.023	20046
902.141	19814
902.26	19887
902.379	19868
902.498	19712
902.617	19731
902.735	19746
902.854	19750
902.973	19620
903.091	19415
903.21	19453
903.328	19419
903.446	19373
903.565	19190
903.683	19255
903.801	19004
903.919	19175
904.038	19228
904.156	18989
904.274	19080
904.392	18920
904.51	18852
904.627	18985
904.745	18989
904.863	19099
904.981	18753
905.098	18604
905.216	18711
905.334	18589
905.451	18715
905.569	18635
905.686	18646
905.803	18669
905.921	18437
906.038	18544
906.155	18612
906.272	18350
906.389	18228
906.506	18095
906.623	18216
906.74	18270
906.857	18041
906.974	18136
907.091	18228
907.208	18330
907.324	18239
907.441	18015
907.557	17939
907.674	17855
907.79	17828
907.907	17874
908.023	17893
908.139	17923
908.256	17779
908.372	17790
908.488	17737
908.604	17687
908.72	17558
908.836	17699
908.952	17581
909.068	17653
909.184	17608
909.3	17490
909.415	17608
909.531	17649
909.647	17307
909.762	17368
909.878	17258
909.993	17334
910.108	17311
910.224	17235
910.339	17277
910.454	17181
910.57	17117
910.685	17003
910.8	17299
910.915	17258
911.03	17117
911.145	16930
911.259	16900
911.374	16957
911.489	16759
911.604	16820
911.718	16615
911.833	16607
911.947	16432
912.062	16466
912.176	16679
912.291	16774
912.405	16622
912.519	16820
912.633	16748
912.748	16577
912.862	16531
912.976	16402
913.09	16402
913.204	16405
913.318	16447
913.431	16459
913.545	16535
913.659	16519
913.772	16318
913.886	16200
914	16223
914.113	16223
914.226	16382
914.34	16268
914.453	16112
914.566	16223
914.68	16067
914.793	16120
914.906	15865
915.019	15694
915.132	15785
915.245	15717
915.358	15827
915.47	15846
915.583	15918
915.696	15827
915.809	15915
915.921	15888
916.034	15709
916.146	15743
916.259	15671
916.371	15717
916.483	15739
916.595	15705
916.708	15671
916.82	15637
916.932	15549
917.044	15606
917.156	15580
917.268	15443
917.38	15584
917.491	15378
917.603	15405
917.715	15496
917.826	15534
917.938	15325
918.049	15211
918.161	15313
918.272	15450
918.384	15500
918.495	15329
918.606	15169
918.717	15032
918.828	15180
918.939	15241
919.05	15043
919.161	15195
919.272	14948
919.383	14967
919.494	15169
919.604	15397
919.715	15081
919.826	15081
919.936	15116
920.047	15142
920.157	15104
920.267	15256
920.378	15157
920.488	15055
920.598	15344
920.708	15431
920.818	15211
920.928	15256
921.038	15382
921.148	15336
921.258	15028
921.368	14895
921.477	14868
921.587	14826
921.697	14682
921.806	14845
921.916	14731
922.025	14541
922.134	14495
922.244	14484
922.353	14457
922.462	14442
922.571	14355
922.68	14134
922.789	14126
922.898	14202
923.007	14035
923.116	14062
923.224	14043
923.333	14065
923.442	13928
923.55	13852
923.659	13947
923.767	14062
923.876	13788
923.984	13959
924.092	13822
924.201	13852
924.309	13811
924.417	13803
924.525	13746
924.633	13814
924.741	14507
924.849	13582
924.956	13685
925.064	13578
925.172	13396
925.279	13495
925.387	13403
925.494	13403
925.602	13681
925.709	13514
925.816	13377
925.924	13434
926.031	13483
926.138	13441
926.245	13476
926.352	13377
926.459	13453
926.566	13457
926.673	13362
926.779	13244
926.886	13190
926.993	13103
927.099	13000
927.206	13015
927.312	13015
927.419	13103
927.525	13042
927.631	13110
927.737	12996
927.843	12894
927.95	12787
928.056	12825
928.162	12890
928.267	12897
928.373	13468
928.479	12909
928.585	12730
928.69	12757
928.796	12779
928.901	12753
929.007	12623
929.112	12677
929.218	12669
929.323	12570
929.428	12563
929.533	12642
929.638	12574
929.743	12426
929.848	12494
929.953	12498
930.058	12437
930.163	12251
930.267	12384
930.372	12380
930.477	12117
930.581	12365
930.685	12254
930.79	12068
930.894	12087
930.998	12079
931.103	12091
931.207	11901
931.311	11870
931.415	11661
931.519	11459
931.623	11512
