Data from test_V78500241_2047.txt Node
Date: Fri Mar 25 15:55:58 CST 2022
User: usil
Spectrometer: V785-0024
Trigger mode: 0
Integration Time (sec): 4.000000E-1
Scans to average: 1
Nonlinearity correction enabled: false
Boxcar width: 0
Storing dark spectrum: false
XAxis mode: Wavelengths
Number of Pixels in Spectrum: 1024
>>>>>Begin Spectral Data<<<<<
801.071	28965
801.214	28904
801.356	28656
801.499	28611
801.641	28500
801.783	28443
801.926	28538
802.068	28538
802.211	28512
802.353	28356
802.496	28131
802.638	28192
802.78	28200
802.923	28051
803.065	28116
803.208	28105
803.35	28192
803.492	28489
803.635	28348
803.777	28303
803.919	28481
804.061	28740
804.204	28356
804.346	28318
804.488	28390
804.63	28405
804.773	28295
804.915	28481
805.057	28527
805.199	28428
805.341	28447
805.483	28584
805.626	28630
805.768	28470
805.91	28557
806.052	28603
806.194	28577
806.336	28710
806.478	28554
806.62	28577
806.762	28683
806.904	28873
807.046	29117
807.188	29075
807.33	29025
807.472	29056
807.614	28854
807.756	29044
807.898	28908
808.04	28858
808.182	28904
808.324	28892
808.465	28847
808.607	29242
808.749	29337
808.891	29334
809.033	29433
809.174	29250
809.316	29242
809.458	29197
809.6	29280
809.741	29379
809.883	29467
810.025	29551
810.166	29551
810.308	29596
810.45	29577
810.591	29436
810.733	29246
810.875	29299
811.016	29235
811.158	29174
811.299	29337
811.441	29471
811.582	29417
811.724	29212
811.865	29322
812.007	29318
812.148	29269
812.29	29265
812.431	29505
812.573	29695
812.714	29729
812.855	29805
812.997	29912
813.138	30125
813.279	29897
813.421	29882
813.562	29642
813.703	29649
813.845	29611
813.986	29307
814.127	29140
814.268	28999
814.41	29064
814.551	28949
814.692	29052
814.833	28892
814.974	28995
815.115	29006
815.256	28908
815.397	28888
815.539	28919
815.68	28736
815.821	28664
815.962	28839
816.103	28831
816.244	28687
816.385	28596
816.526	28637
816.666	28367
816.807	28261
816.948	28455
817.089	28489
817.23	28280
817.371	28200
817.512	28405
817.653	28325
817.793	28230
817.934	28341
818.075	28413
818.216	28379
818.356	28238
818.497	28230
818.638	28002
818.778	28200
818.919	28101
819.06	28257
819.2	28230
819.341	28333
819.481	28272
819.622	28470
819.762	28725
819.903	28519
820.043	28557
820.184	28512
820.324	28390
820.465	28554
820.605	28379
820.746	28344
820.886	28382
821.026	28371
821.167	28443
821.307	28550
821.447	28310
821.588	28379
821.728	28090
821.868	27994
822.008	27922
822.149	27869
822.289	27808
822.429	27808
822.569	27401
822.709	27485
822.849	27336
822.99	27374
823.13	27249
823.27	27439
823.41	27203
823.55	27017
823.69	27192
823.83	27211
823.97	27146
824.11	26895
824.25	26967
824.389	26899
824.529	27112
824.669	27039
824.809	27089
824.949	27066
825.089	26960
825.228	26982
825.368	26948
825.508	26731
825.648	26716
825.787	26868
825.927	26986
826.067	26834
826.206	26830
826.346	26864
826.485	27024
826.625	26861
826.765	26929
826.904	26880
827.044	26815
827.183	26568
827.323	26571
827.462	26697
827.601	26594
827.741	26473
827.88	26720
828.02	26552
828.159	26522
828.298	26663
828.437	26579
828.577	26492
828.716	26659
828.855	26473
828.994	26336
829.134	26339
829.273	26183
829.412	26225
829.551	26225
829.69	26149
829.829	26339
829.968	26404
830.107	26313
830.246	26259
830.385	26195
830.524	26271
830.663	26161
830.802	25921
830.941	25871
831.08	25750
831.219	25940
831.357	25875
831.496	26084
831.635	25875
831.774	25833
831.913	25620
832.051	25666
832.19	25620
832.329	25708
832.467	25567
832.606	25400
832.744	25487
832.883	25556
833.022	25499
833.16	25445
833.299	25445
833.437	25582
833.576	25693
833.714	25548
833.852	25700
833.991	25674
834.129	25761
834.267	25666
834.406	25628
834.544	25529
834.682	25571
834.821	25586
834.959	25597
835.097	25552
835.235	25693
835.373	25594
835.511	25552
835.65	25464
835.788	25392
835.926	25346
836.064	25179
836.202	25194
836.34	25525
836.478	25457
836.615	25392
836.753	25354
836.891	25438
837.029	25438
837.167	25369
837.305	25304
837.443	25175
837.58	25171
837.718	25285
837.856	25198
837.993	25202
838.131	25240
838.269	24977
838.406	25179
838.544	25069
838.681	24875
838.819	24783
838.956	24692
839.094	24525
839.231	24757
839.369	24795
839.506	25107
839.643	24977
839.781	24772
839.918	24631
840.055	24677
840.193	24620
840.33	24471
840.467	24669
840.604	24559
840.742	24802
840.879	24441
841.016	24521
841.153	24471
841.29	24703
841.427	24544
841.564	24486
841.701	24635
841.838	24669
841.975	24407
842.112	24566
842.249	24456
842.385	24277
842.522	24555
842.659	24445
842.796	24414
842.933	24486
843.069	24350
843.206	24372
843.343	24292
843.479	24372
843.616	24429
843.752	24152
843.889	24072
844.025	24311
844.162	23969
844.298	24136
844.435	24057
844.571	24129
844.708	24072
844.844	24243
844.98	24452
845.117	24178
845.253	24182
845.389	24038
845.525	23954
845.661	23988
845.798	23954
845.934	23874
846.07	23767
846.206	23855
846.342	23999
846.478	23809
846.614	23528
846.75	23490
846.886	23566
847.022	23604
847.158	23608
847.294	23528
847.429	23619
847.565	23535
847.701	23718
847.837	23334
847.972	23292
848.108	23406
848.244	23303
848.379	23231
848.515	23254
848.65	23140
848.786	23246
848.921	23235
849.057	23307
849.192	23258
849.328	23155
849.463	23250
849.598	23014
849.734	22965
849.869	23052
850.004	22835
850.14	22896
850.275	22946
850.41	22843
850.545	22919
850.68	22809
850.815	22919
850.95	22904
851.085	23083
851.22	23006
851.355	22999
851.49	22938
851.625	22866
851.76	22927
851.895	22835
852.03	22949
852.165	22972
852.299	22965
852.434	23041
852.569	23025
852.703	22911
852.838	22980
852.973	22995
853.107	23109
853.242	22812
853.376	22748
853.511	22752
853.645	22752
853.78	22866
853.914	22782
854.048	22626
854.183	22831
854.317	22812
854.451	22995
854.585	22771
854.72	22854
854.854	22885
854.988	22653
855.122	22748
855.256	22706
855.39	22691
855.524	22767
855.658	22717
855.792	22805
855.926	22858
856.06	22736
856.194	22847
856.327	22801
856.461	22736
856.595	22634
856.729	22740
856.862	22755
856.996	22748
857.13	22801
857.263	22904
857.397	22812
857.53	22694
857.664	22710
857.797	22767
857.931	22828
858.064	22771
858.197	22904
858.331	22630
858.464	22683
858.597	22615
858.731	22615
858.864	22611
858.997	22656
859.13	22755
859.263	22713
859.396	22721
859.529	22679
859.662	22634
859.795	22721
859.928	22713
860.061	22862
860.194	22923
860.327	22854
860.46	22763
860.592	22828
860.725	23003
860.858	22850
860.99	22698
861.123	22645
861.256	22664
861.388	22771
861.521	23395
861.653	22554
861.786	22455
861.918	22672
862.05	22577
862.183	22641
862.315	22550
862.447	22733
862.58	22607
862.712	22413
862.844	22523
862.976	22660
863.108	22584
863.24	22965
863.372	22417
863.504	22424
863.636	22413
863.768	22481
863.9	22485
864.032	22344
864.164	22402
864.296	22519
864.428	22474
864.559	22379
864.691	22466
864.823	22405
864.954	22432
865.086	22424
865.217	22356
865.349	22257
865.48	22394
865.612	22253
865.743	22523
865.875	22306
866.006	22337
866.137	22295
866.269	22295
866.4	22344
866.531	22093
866.662	22128
866.793	22249
866.924	22249
867.055	22204
867.186	22238
867.317	22226
867.448	22097
867.579	22299
867.71	22074
867.841	22268
867.972	22219
868.103	22177
868.233	22299
868.364	22249
868.495	22363
868.625	22538
868.756	22504
868.886	22459
869.017	22474
869.147	22497
869.278	22504
869.408	22379
869.539	22371
869.669	22546
869.799	22569
869.929	22557
870.06	22584
870.19	22812
870.32	22752
870.45	22786
870.58	22904
870.71	22930
870.84	22911
870.97	22812
871.1	22847
871.23	23159
871.36	22995
871.489	22965
871.619	23003
871.749	23147
871.879	23098
872.008	23159
872.138	23132
872.267	23124
872.397	22949
872.526	22889
872.656	22949
872.785	22972
872.915	23067
873.044	23223
873.173	23105
873.303	23155
873.432	23159
873.561	23204
873.69	23048
873.819	23010
873.948	23193
874.077	23083
874.206	23056
874.335	23178
874.464	23277
874.593	23254
874.722	23223
874.851	23231
874.979	23242
875.108	23288
875.237	23147
875.365	23083
875.494	23292
875.623	23280
875.751	23166
875.88	23337
876.008	23410
876.136	23474
876.265	23722
876.393	23885
876.521	23726
876.65	23699
876.778	23695
876.906	23509
877.034	23596
877.162	23737
877.29	23562
877.418	23657
877.546	23608
877.674	23592
877.802	23638
877.93	23600
878.058	23589
878.185	23566
878.313	23528
878.441	23627
878.568	23566
878.696	23581
878.824	23687
878.951	23642
879.079	23832
879.206	23851
879.333	23821
879.461	23714
879.588	23684
879.715	23908
879.842	23840
879.97	23661
880.097	23444
880.224	23566
880.351	23531
880.478	23493
880.605	23379
880.732	23467
880.859	23748
880.986	23482
881.112	23558
881.239	23284
881.366	23284
881.493	23086
881.619	23025
881.746	23029
881.872	23033
881.999	22934
882.125	22942
882.252	23037
882.378	22968
882.505	23086
882.631	22801
882.757	22771
882.883	22767
883.01	22706
883.136	22668
883.262	22577
883.388	22485
883.514	22736
883.64	22611
883.766	22489
883.892	22508
884.018	22443
884.143	22599
884.269	22713
884.395	22497
884.52	22234
884.646	22310
884.772	22268
884.897	22154
885.023	22394
885.148	22440
885.274	22360
885.399	22409
885.524	22314
885.65	22253
885.775	22310
885.9	22268
886.025	22371
886.15	22409
886.275	22272
886.4	22314
886.525	22207
886.65	22238
886.775	22082
886.9	22360
887.025	22398
887.149	22318
887.274	21991
887.399	22093
887.523	21983
887.648	21956
887.773	21945
887.897	22120
888.021	22124
888.146	21987
888.27	22242
888.395	22192
888.519	22185
888.643	22086
888.767	22166
888.891	21972
889.015	21781
889.139	21956
889.263	21823
889.387	21892
889.511	22010
889.635	21975
889.759	21835
889.883	21907
890.006	21899
890.13	21968
890.254	21838
890.377	21850
890.501	21568
890.624	21610
890.748	21610
890.871	21496
890.995	21408
891.118	21469
891.241	21412
891.364	21302
891.488	21618
891.611	21329
891.734	21435
891.857	21492
891.98	21374
892.103	21477
892.226	21332
892.349	21355
892.471	21226
892.594	21336
892.717	21287
892.839	21279
892.962	21256
893.085	21302
893.207	21306
893.33	21245
893.452	21256
893.575	21329
893.697	21161
893.819	21397
893.941	21549
894.064	21317
894.186	21203
894.308	21325
894.43	21469
894.552	21424
894.674	21291
894.796	21116
894.918	21195
895.04	21226
895.161	21412
895.283	21325
895.405	21222
895.526	21332
895.648	21154
895.769	21283
895.891	21260
896.012	21336
896.134	21329
896.255	21226
896.376	21195
896.498	21112
896.619	21306
896.74	21138
896.861	21363
896.982	21477
897.103	21675
897.224	21523
897.345	21504
897.466	21370
897.587	21420
897.708	21633
897.828	21545
897.949	21313
898.07	21207
898.19	21515
898.311	21538
898.431	21329
898.552	21477
898.672	21538
898.792	21485
898.913	21439
899.033	21340
899.153	21279
899.273	21135
899.393	21291
899.513	21199
899.633	21135
899.753	21222
899.873	21104
899.993	21199
900.113	21138
900.232	21146
900.352	21074
900.472	20986
900.591	20861
900.711	20941
900.83	20857
900.95	21104
901.069	21150
901.189	20830
901.308	20705
901.427	20454
901.546	20571
901.665	20541
901.784	20514
901.904	20339
902.023	20347
902.141	20195
902.26	20050
902.379	20115
902.498	19944
902.617	20077
902.735	20096
902.854	20008
902.973	19833
903.091	19727
903.21	19586
903.328	19689
903.446	19464
903.565	19514
903.683	19540
903.801	19346
903.919	19403
904.038	19381
904.156	19133
904.274	19293
904.392	19274
904.51	19133
904.627	19209
904.745	19221
904.863	19350
904.981	18966
905.098	18947
905.216	18894
905.334	18954
905.451	18894
905.569	18848
905.686	18920
905.803	18928
905.921	18757
906.038	18688
906.155	18635
906.272	18650
906.389	18559
906.506	18338
906.623	18418
906.74	18540
906.857	18254
906.974	18289
907.091	18437
907.208	18604
907.324	18319
907.441	18399
907.557	18125
907.674	18133
907.79	18026
907.907	18152
908.023	18194
908.139	18148
908.256	18098
908.372	17984
908.488	17923
908.604	17824
908.72	17729
908.836	17855
908.952	17828
909.068	17866
909.184	17916
909.3	17733
909.415	17874
909.531	17783
909.647	17562
909.762	17562
909.878	17501
909.993	17459
910.108	17482
910.224	17589
910.339	17360
910.454	17482
910.57	17341
910.685	17341
910.8	17573
910.915	17395
911.03	17307
911.145	17212
911.259	17155
911.374	17121
911.489	16980
911.604	17045
911.718	16816
911.833	16965
911.947	16744
912.062	16687
912.176	16866
912.291	16850
912.405	16953
912.519	17140
912.633	16919
912.748	16908
912.862	16809
912.976	16634
913.09	16561
913.204	16599
913.318	16683
913.431	16778
913.545	16656
913.659	16782
913.772	16603
913.886	16440
914	16512
914.113	16542
914.226	16542
914.34	16535
914.453	16261
914.566	16478
914.68	16192
914.793	16337
914.906	16044
915.019	16074
915.132	15934
915.245	15987
915.358	16013
915.47	16006
915.583	15895
915.696	16071
915.809	16078
915.921	16109
916.034	15854
916.146	15842
916.259	15842
916.371	16002
916.483	15884
916.595	15743
916.708	15793
916.82	15667
916.932	15819
917.044	15804
917.156	15690
917.268	15618
917.38	15743
917.491	15603
917.603	15675
917.715	15774
917.826	15762
917.938	15504
918.049	15405
918.161	15648
918.272	15675
918.384	15713
918.495	15534
918.606	15374
918.717	15321
918.828	15439
918.939	15450
919.05	15275
919.161	15412
919.272	15184
919.383	15245
919.494	15408
919.604	15637
919.715	15260
919.826	15260
919.936	15245
920.047	15466
920.157	15325
920.267	15435
920.378	15351
920.488	15218
920.598	15405
920.708	15595
920.818	15466
920.928	15416
921.038	15568
921.148	15526
921.258	15306
921.368	15214
921.477	15024
921.587	15100
921.697	14868
921.806	15001
921.916	14823
922.025	14720
922.134	14682
922.244	14598
922.353	14678
922.462	14480
922.571	14408
922.68	14495
922.789	14328
922.898	14358
923.007	14237
923.116	14385
923.224	14351
923.333	14252
923.442	14199
923.55	14168
923.659	14088
923.767	14183
923.876	14130
923.984	14164
924.092	14058
924.201	13963
924.309	14039
924.417	13993
924.525	14027
924.633	13959
924.741	14925
924.849	13772
924.956	13898
925.064	13803
925.172	13662
925.279	13605
925.387	13643
925.494	13681
925.602	13833
925.709	13693
925.816	13537
925.924	13537
926.031	13791
926.138	13582
926.245	13605
926.352	13491
926.459	13670
926.566	13670
926.673	13529
926.779	13426
926.886	13388
926.993	13369
927.099	13225
927.206	13194
927.312	13202
927.419	13312
927.525	13240
927.631	13251
927.737	13107
927.843	13038
927.95	12973
928.056	13046
928.162	13034
928.267	13095
928.373	13643
928.479	13168
928.585	12878
928.69	12947
928.796	12977
928.901	12924
929.007	12700
929.112	12871
929.218	12764
929.323	12795
929.428	12760
929.533	12810
929.638	12677
929.743	12707
929.848	12825
929.953	12650
930.058	12528
930.163	12426
930.267	12426
930.372	12502
930.477	12323
930.581	12502
930.685	12483
930.79	12273
930.894	12285
930.998	12285
931.103	12323
931.207	12011
931.311	11942
931.415	11916
931.519	11619
931.623	11543
