Data from test_V78500241_1339.txt Node
Date: Fri Mar 25 15:51:04 CST 2022
User: usil
Spectrometer: V785-0024
Trigger mode: 0
Integration Time (sec): 4.000000E-1
Scans to average: 1
Nonlinearity correction enabled: false
Boxcar width: 0
Storing dark spectrum: false
XAxis mode: Wavelengths
Number of Pixels in Spectrum: 1024
>>>>>Begin Spectral Data<<<<<
801.071	28086
801.214	27926
801.356	27781
801.499	27835
801.641	27656
801.783	27629
801.926	27644
802.068	27599
802.211	27713
802.353	27420
802.496	27321
802.638	27344
802.78	27287
802.923	27302
803.065	27279
803.208	27161
803.35	27226
803.492	27507
803.635	27530
803.777	27504
803.919	27606
804.061	27823
804.204	27576
804.346	27450
804.488	27549
804.63	27473
804.773	27454
804.915	27549
805.057	27686
805.199	27534
805.341	27625
805.483	27720
805.626	27587
805.768	27447
805.91	27618
806.052	27812
806.194	27644
806.336	27876
806.478	27694
806.62	27713
806.762	27907
806.904	27899
807.046	28154
807.188	28215
807.33	28150
807.472	28204
807.614	28067
807.756	28055
807.898	27991
808.04	27899
808.182	27975
808.324	28044
808.465	28013
808.607	28093
808.749	28223
808.891	28428
809.033	28466
809.174	28504
809.316	28230
809.458	28325
809.6	28325
809.741	28306
809.883	28481
810.025	28664
810.166	28596
810.308	28668
810.45	28584
810.591	28683
810.733	28344
810.875	28371
811.016	28215
811.158	28306
811.299	28447
811.441	28470
811.582	28500
811.724	28276
811.865	28348
812.007	28284
812.148	28318
812.29	28348
812.431	28603
812.573	28596
812.714	28869
812.855	28877
812.997	28961
813.138	29132
813.279	29079
813.421	28839
813.562	28820
813.703	28599
813.845	28497
813.986	28306
814.127	28177
814.268	28143
814.41	28070
814.551	27956
814.692	28112
814.833	27918
814.974	28082
815.115	28070
815.256	27964
815.397	27922
815.539	27892
815.68	28010
815.821	27770
815.962	27888
816.103	27743
816.244	27755
816.385	27671
816.526	27728
816.666	27507
816.807	27386
816.948	27492
817.089	27492
817.23	27450
817.371	27408
817.512	27291
817.653	27321
817.793	27359
817.934	27317
818.075	27275
818.216	27443
818.356	27336
818.497	27332
818.638	26998
818.778	27135
818.919	27146
819.06	27055
819.2	27180
819.341	27370
819.481	27408
819.622	27534
819.762	27500
819.903	27595
820.043	27633
820.184	27473
820.324	27568
820.465	27469
820.605	27485
820.746	27481
820.886	27279
821.026	27450
821.167	27538
821.307	27496
821.447	27283
821.588	27241
821.728	27287
821.868	27043
822.008	26940
822.149	26982
822.289	26967
822.429	26686
822.569	26590
822.709	26541
822.849	26339
822.99	26404
823.13	26305
823.27	26199
823.41	26191
823.55	26134
823.69	26233
823.83	26199
823.97	26084
824.11	25959
824.25	25940
824.389	26005
824.529	26199
824.669	25837
824.809	26199
824.949	25959
825.089	26005
825.228	26100
825.368	25860
825.508	25826
825.648	25776
825.787	25841
825.927	25970
826.067	25898
826.206	25894
826.346	25791
826.485	25890
826.625	25879
826.765	26046
826.904	25856
827.044	25689
827.183	25613
827.323	25441
827.462	25651
827.601	25514
827.741	25491
827.88	25521
828.02	25411
828.159	25460
828.298	25685
828.437	25594
828.577	25499
828.716	25582
828.855	25479
828.994	25228
829.134	25270
829.273	25350
829.412	25152
829.551	25133
829.69	25187
829.829	25320
829.968	25293
830.107	25324
830.246	25004
830.385	25160
830.524	25183
830.663	25038
830.802	24932
830.941	24791
831.08	24806
831.219	24989
831.357	24973
831.496	25194
831.635	24894
831.774	24810
831.913	24719
832.051	24684
832.19	24585
832.329	24806
832.467	24563
832.606	24525
832.744	24464
832.883	24665
833.022	24460
833.16	24517
833.299	24563
833.437	24391
833.576	24597
833.714	24570
833.852	24658
833.991	24635
834.129	24639
834.267	24749
834.406	24551
834.544	24566
834.682	24684
834.821	24570
834.959	24814
835.097	24578
835.235	24650
835.373	24456
835.511	24547
835.65	24513
835.788	24365
835.926	24285
836.064	24186
836.202	24205
836.34	24467
836.478	24460
836.615	24433
836.753	24247
836.891	24357
837.029	24460
837.167	24323
837.305	24232
837.443	24277
837.58	24194
837.718	24277
837.856	24232
837.993	24148
838.131	24129
838.269	24197
838.406	24178
838.544	24076
838.681	23912
838.819	23813
838.956	23676
839.094	23691
839.231	23748
839.369	23828
839.506	24098
839.643	23916
839.781	23661
839.918	23809
840.055	23627
840.193	23726
840.33	23600
840.467	23668
840.604	23668
840.742	23855
840.879	23452
841.016	23627
841.153	23558
841.29	23809
841.427	23566
841.564	23672
841.701	23646
841.838	23589
841.975	23551
842.112	23505
842.249	23558
842.385	23341
842.522	23493
842.659	23474
842.796	23459
842.933	23421
843.069	23280
843.206	23315
843.343	23463
843.479	23440
843.616	23376
843.752	23105
843.889	23273
844.025	23235
844.162	23147
844.298	23227
844.435	23174
844.571	23094
844.708	23136
844.844	23292
844.98	23303
845.117	23356
845.253	23128
845.389	23060
845.525	23090
845.661	23029
845.798	22953
845.934	22805
846.07	22816
846.206	22946
846.342	23037
846.478	22881
846.614	22660
846.75	22588
846.886	22557
847.022	22698
847.158	22626
847.294	22546
847.429	22809
847.565	22561
847.701	22930
847.837	22344
847.972	22265
848.108	22470
848.244	22481
848.379	22162
848.515	22185
848.65	22120
848.786	22306
848.921	22230
849.057	22363
849.192	22318
849.328	22211
849.463	22299
849.598	22147
849.734	22162
849.869	22048
850.004	21911
850.14	21918
850.275	22059
850.41	21869
850.545	21987
850.68	21991
850.815	21994
850.95	22013
851.085	22154
851.22	22067
851.355	22097
851.49	21911
851.625	22025
851.76	21994
851.895	21804
852.03	21911
852.165	21991
852.299	21915
852.434	21941
852.569	22017
852.703	22006
852.838	22124
852.973	22078
853.107	22120
853.242	21930
853.376	21903
853.511	21766
853.645	21747
853.78	21892
853.914	21941
854.048	21762
854.183	21819
854.317	21838
854.451	22021
854.585	21884
854.72	21800
854.854	21762
854.988	21709
855.122	21739
855.256	21766
855.39	21770
855.524	21808
855.658	21797
855.792	21804
855.926	21869
856.06	21831
856.194	21915
856.327	21819
856.461	21724
856.595	21895
856.729	21804
856.862	21899
856.996	21945
857.13	21865
857.263	22074
857.397	21892
857.53	21812
857.664	21778
857.797	21915
857.931	21888
858.064	21804
858.197	21899
858.331	21667
858.464	21789
858.597	21591
858.731	21774
858.864	21861
858.997	21747
859.13	21717
859.263	21838
859.396	21911
859.529	21800
859.662	21747
859.795	21800
859.928	21808
860.061	21987
860.194	21998
860.327	21823
860.46	21732
860.592	21907
860.725	21953
860.858	21922
860.99	21846
861.123	21694
861.256	21641
861.388	21812
861.521	22512
861.653	21610
861.786	21591
861.918	21656
862.05	21671
862.183	21785
862.315	21869
862.447	21739
862.58	21728
862.712	21599
862.844	21420
862.976	21652
863.108	21564
863.24	21945
863.372	21458
863.504	21713
863.636	21530
863.768	21568
863.9	21458
864.032	21420
864.164	21401
864.296	21564
864.428	21667
864.559	21488
864.691	21534
864.823	21530
864.954	21599
865.086	21492
865.217	21450
865.349	21321
865.48	21431
865.612	21519
865.743	21450
865.875	21370
866.006	21226
866.137	21439
866.269	21348
866.4	21332
866.531	21279
866.662	21344
866.793	21272
866.924	21355
867.055	21462
867.186	21336
867.317	21287
867.448	21405
867.579	21351
867.71	21199
867.841	21298
867.972	21386
868.103	21275
868.233	21283
868.364	21233
868.495	21462
868.625	21568
868.756	21739
868.886	21534
869.017	21599
869.147	21618
869.278	21679
869.408	21671
869.539	21515
869.669	21633
869.799	21595
869.929	21770
870.06	21644
870.19	21831
870.32	21842
870.45	21918
870.58	22006
870.71	21991
870.84	22070
870.97	21930
871.1	21880
871.23	22112
871.36	22211
871.489	22029
871.619	22166
871.749	22101
871.879	22196
872.008	22295
872.138	22246
872.267	22162
872.397	21934
872.526	21911
872.656	21983
872.785	22059
872.915	22166
873.044	22272
873.173	22093
873.303	22284
873.432	22242
873.561	22219
873.69	22204
873.819	22196
873.948	22257
874.077	22086
874.206	22223
874.335	22280
874.464	22363
874.593	22303
874.722	22341
874.851	22497
874.979	22497
875.108	22596
875.237	22291
875.365	22363
875.494	22341
875.623	22478
875.751	22443
875.88	22554
876.008	22592
876.136	22557
876.265	22729
876.393	22908
876.521	22984
876.65	22744
876.778	22949
876.906	22729
877.034	22767
877.162	22790
877.29	22782
877.418	22710
877.546	22911
877.674	22733
877.802	22755
877.93	22710
878.058	22649
878.185	22675
878.313	22668
878.441	22740
878.568	22580
878.696	22694
878.824	22759
878.951	22930
879.079	22911
879.206	22965
879.333	23029
879.461	22786
879.588	22946
879.715	22816
879.842	22881
879.97	22797
880.097	22588
880.224	22557
880.351	22668
880.478	22653
880.605	22432
880.732	22607
880.859	22824
880.986	22691
881.112	22523
881.239	22394
881.366	22192
881.493	22314
881.619	22166
881.746	22135
881.872	22131
881.999	21953
882.125	22036
882.252	22272
882.378	22124
882.505	22086
882.631	22154
882.757	21831
882.883	21846
883.01	21987
883.136	21759
883.262	21637
883.388	21759
883.514	21770
883.64	21888
883.766	21675
883.892	21534
884.018	21656
884.143	21778
884.269	21789
884.395	21538
884.52	21321
884.646	21580
884.772	21351
884.897	21431
885.023	21401
885.148	21500
885.274	21534
885.399	21507
885.524	21428
885.65	21447
885.775	21431
885.9	21542
886.025	21614
886.15	21561
886.275	21447
886.4	21367
886.525	21386
886.65	21492
886.775	21450
886.9	21648
887.025	21633
887.149	21485
887.274	21272
887.399	21226
887.523	21260
887.648	21146
887.773	21062
887.897	21283
888.021	21291
888.146	21169
888.27	21302
888.395	21329
888.519	21317
888.643	21329
888.767	21332
888.891	21131
889.015	21055
889.139	21150
889.263	21077
889.387	21222
889.511	21268
889.635	21066
889.759	20971
889.883	21104
890.006	21108
890.13	21089
890.254	21093
890.377	20948
890.501	20716
890.624	20811
890.748	20891
890.871	20777
890.995	20663
891.118	20511
891.241	20575
891.364	20533
891.488	20724
891.611	20636
891.734	20484
891.857	20655
891.98	20503
892.103	20564
892.226	20613
892.349	20549
892.471	20514
892.594	20480
892.717	20533
892.839	20400
892.962	20473
893.085	20552
893.207	20492
893.33	20404
893.452	20427
893.575	20526
893.697	20465
893.819	20602
893.941	20667
894.064	20598
894.186	20454
894.308	20419
894.43	20609
894.552	20632
894.674	20636
894.796	20446
894.918	20473
895.04	20522
895.161	20480
895.283	20476
895.405	20423
895.526	20480
895.648	20438
895.769	20621
895.891	20511
896.012	20571
896.134	20511
896.255	20343
896.376	20404
896.498	20492
896.619	20526
896.74	20438
896.861	20571
896.982	20864
897.103	20769
897.224	20773
897.345	20678
897.466	20613
897.587	20632
897.708	20811
897.828	20781
897.949	20659
898.07	20461
898.19	20678
898.311	20815
898.431	20667
898.552	20651
898.672	20826
898.792	20872
898.913	20769
899.033	20549
899.153	20522
899.273	20332
899.393	20393
899.513	20533
899.633	20431
899.753	20495
899.873	20351
899.993	20434
900.113	20343
900.232	20320
900.352	20320
900.472	20252
900.591	20202
900.711	20210
900.83	20237
900.95	20366
901.069	20286
901.189	20145
901.308	20001
901.427	19769
901.546	19742
901.665	19868
901.784	19887
901.904	19586
902.023	19567
902.141	19373
902.26	19301
902.379	19377
902.498	19377
902.617	19339
902.735	19327
902.854	19247
902.973	19148
903.091	19031
903.21	18909
903.328	18993
903.446	18878
903.565	18677
903.683	18749
903.801	18658
903.919	18551
904.038	18730
904.156	18547
904.274	18585
904.392	18502
904.51	18486
904.627	18532
904.745	18563
904.863	18593
904.981	18266
905.098	18167
905.216	18174
905.334	18239
905.451	18239
905.569	18041
905.686	18114
905.803	18152
905.921	18045
906.038	18068
906.155	18057
906.272	17882
906.389	17939
906.506	17764
906.623	17710
906.74	17760
906.857	17611
906.974	17615
907.091	17813
907.208	17783
907.324	17665
907.441	17707
907.557	17425
907.674	17562
907.79	17334
907.907	17406
908.023	17474
908.139	17509
908.256	17326
908.372	17368
908.488	17360
908.604	17280
908.72	17170
908.836	17200
908.952	17220
909.068	17227
909.184	17292
909.3	17155
909.415	17193
909.531	17083
909.647	16942
909.762	16957
909.878	16923
909.993	16892
910.108	16869
910.224	16801
910.339	16831
910.454	16759
910.57	16660
910.685	16664
910.8	16835
910.915	16877
911.03	16683
911.145	16550
911.259	16489
911.374	16382
911.489	16394
911.604	16246
911.718	16215
911.833	16207
911.947	16032
912.062	16097
912.176	16169
912.291	16230
912.405	16204
912.519	16367
912.633	16306
912.748	16287
912.862	16173
912.976	16029
913.09	15880
913.204	15918
913.318	15972
913.431	16173
913.545	16082
913.659	16105
913.772	15922
913.886	15835
914	15835
914.113	15838
914.226	15926
914.34	15838
914.453	15625
914.566	15854
914.68	15637
914.793	15648
914.906	15420
915.019	15332
915.132	15386
915.245	15447
915.358	15340
915.47	15370
915.583	15359
915.696	15462
915.809	15526
915.921	15523
916.034	15348
916.146	15180
916.259	15283
916.371	15435
916.483	15401
916.595	15348
916.708	15310
916.82	15245
916.932	15279
917.044	15150
917.156	15135
917.268	15085
917.38	15028
917.491	14933
917.603	15047
917.715	15150
917.826	15070
917.938	15036
918.049	14895
918.161	15039
918.272	15142
918.384	15028
918.495	14967
918.606	14880
918.717	14720
918.828	14834
918.939	14849
919.05	14716
919.161	14724
919.272	14583
919.383	14568
919.494	14823
919.604	14975
919.715	14845
919.826	14613
919.936	14720
920.047	14842
920.157	14731
920.267	14853
920.378	14750
920.488	14644
920.598	14937
920.708	14998
920.818	14921
920.928	14902
921.038	15039
921.148	14979
921.258	14792
921.368	14674
921.477	14476
921.587	14469
921.697	14355
921.806	14560
921.916	14332
922.025	14195
922.134	14050
922.244	14039
922.353	14123
922.462	13978
922.571	14031
922.68	13746
922.789	13856
922.898	13750
923.007	13811
923.116	13875
923.224	13723
923.333	13666
923.442	13662
923.55	13586
923.659	13674
923.767	13651
923.876	13529
923.984	13620
924.092	13491
924.201	13537
924.309	13548
924.417	13449
924.525	13449
924.633	13415
924.741	14290
924.849	13285
924.956	13339
925.064	13228
925.172	13164
925.279	13149
925.387	13190
925.494	13114
925.602	13270
925.709	13228
925.816	13099
925.924	13122
926.031	13217
926.138	13160
926.245	13221
926.352	13072
926.459	13190
926.566	13274
926.673	13042
926.779	12890
926.886	12833
926.993	12802
927.099	12783
927.206	12787
927.312	12604
927.419	12730
927.525	12810
927.631	12688
927.737	12585
927.843	12509
927.95	12395
928.056	12551
928.162	12536
928.267	12639
928.373	13225
928.479	12696
928.585	12410
928.69	12536
928.796	12532
928.901	12456
929.007	12311
929.112	12418
929.218	12395
929.323	12372
929.428	12205
929.533	12437
929.638	12205
929.743	12258
929.848	12357
929.953	12167
930.058	12068
930.163	12011
930.267	11939
930.372	12076
930.477	11954
930.581	12140
930.685	12049
930.79	11752
930.894	11885
930.998	11851
931.103	11946
931.207	11653
931.311	11505
931.415	11395
931.519	11193
931.623	11273
