Data from test_V78500241_350.txt Node
Date: Fri Mar 25 15:44:13 CST 2022
User: usil
Spectrometer: V785-0024
Trigger mode: 0
Integration Time (sec): 4.000000E-1
Scans to average: 1
Nonlinearity correction enabled: false
Boxcar width: 0
Storing dark spectrum: false
XAxis mode: Wavelengths
Number of Pixels in Spectrum: 1024
>>>>>Begin Spectral Data<<<<<
801.071	29726
801.214	29798
801.356	29520
801.499	29433
801.641	29444
801.783	29364
801.926	29303
802.068	29296
802.211	29162
802.353	29242
802.496	29025
802.638	28965
802.78	29071
802.923	29064
803.065	28915
803.208	28995
803.35	29044
803.492	29086
803.635	29265
803.777	29113
803.919	29083
804.061	29414
804.204	29265
804.346	29292
804.488	29155
804.63	29284
804.773	29037
804.915	29303
805.057	29296
805.199	29273
805.341	29261
805.483	29315
805.626	29307
805.768	29079
805.91	29307
806.052	29242
806.194	29280
806.336	29623
806.478	29433
806.62	29440
806.762	29467
806.904	29619
807.046	29843
807.188	29828
807.33	29855
807.472	29836
807.614	29726
807.756	29821
807.898	29684
808.04	29539
808.182	29554
808.324	29619
808.465	29467
808.607	29821
808.749	30053
808.891	30022
809.033	30102
809.174	30201
809.316	29988
809.458	30152
809.6	30106
809.741	29980
809.883	30155
810.025	30247
810.166	30224
810.308	30353
810.45	30304
810.591	30315
810.733	30015
810.875	30003
811.016	29851
811.158	29908
811.299	30060
811.441	30068
811.582	30186
811.724	29897
811.865	29965
812.007	29927
812.148	29889
812.29	30030
812.431	30102
812.573	30357
812.714	30426
812.855	30589
812.997	30620
813.138	30738
813.279	30688
813.421	30509
813.562	30471
813.703	30357
813.845	30239
813.986	29927
814.127	29634
814.268	29764
814.41	29733
814.551	29535
814.692	29862
814.833	29459
814.974	29680
815.115	29695
815.256	29463
815.397	29512
815.539	29509
815.68	29372
815.821	29337
815.962	29490
816.103	29471
816.244	29356
816.385	29387
816.526	29220
816.666	29048
816.807	28995
816.948	29075
817.089	29010
817.23	29037
817.371	29018
817.512	28888
817.653	28908
817.793	28831
817.934	28984
818.075	28881
818.216	28927
818.356	28919
818.497	28672
818.638	28706
818.778	28516
818.919	28710
819.06	28675
819.2	28862
819.341	28767
819.481	28805
819.622	29029
819.762	29200
819.903	29159
820.043	29105
820.184	28965
820.324	29010
820.465	28999
820.605	29022
820.746	29121
820.886	28809
821.026	28953
821.167	28904
821.307	28980
821.447	28908
821.588	28888
821.728	28679
821.868	28538
822.008	28497
822.149	28268
822.289	28360
822.429	28063
822.569	28025
822.709	27991
822.849	27907
822.99	27949
823.13	27800
823.27	27606
823.41	27545
823.55	27534
823.69	27739
823.83	27759
823.97	27591
824.11	27507
824.25	27473
824.389	27454
824.529	27473
824.669	27389
824.809	27564
824.949	27572
825.089	27477
825.228	27523
825.368	27294
825.508	27260
825.648	27367
825.787	27245
825.927	27272
826.067	27188
826.206	27192
826.346	27245
826.485	27378
826.625	27268
826.765	27469
826.904	27272
827.044	27024
827.183	27085
827.323	26998
827.462	26944
827.601	26956
827.741	26952
827.88	26948
828.02	26788
828.159	27024
828.298	26902
828.437	27089
828.577	26933
828.716	27058
828.855	26845
828.994	26785
829.134	26705
829.273	26450
829.412	26590
829.551	26590
829.69	26583
829.829	26689
829.968	26724
830.107	26697
830.246	26724
830.385	26461
830.524	26549
830.663	26507
830.802	26275
830.941	26233
831.08	26054
831.219	26320
831.357	26221
831.496	26377
831.635	26275
831.774	26046
831.913	26149
832.051	26043
832.19	25997
832.329	25963
832.467	25841
832.606	25864
832.744	25833
832.883	25883
833.022	25776
833.16	25902
833.299	25940
833.437	25807
833.576	25868
833.714	25970
833.852	25845
833.991	25875
834.129	25978
834.267	26005
834.406	25902
834.544	25849
834.682	25909
834.821	25864
834.959	26062
835.097	25742
835.235	25772
835.373	25833
835.511	25734
835.65	25734
835.788	25712
835.926	25620
836.064	25491
836.202	25559
836.34	25719
836.478	25529
836.615	25601
836.753	25639
836.891	25742
837.029	25662
837.167	25559
837.305	25590
837.443	25533
837.58	25521
837.718	25655
837.856	25552
837.993	25396
838.131	25559
838.269	25472
838.406	25487
838.544	25255
838.681	24996
838.819	25072
838.956	24875
839.094	24996
839.231	24916
839.369	25122
839.506	25274
839.643	25225
839.781	25031
839.918	24787
840.055	24882
840.193	24760
840.33	24798
840.467	24795
840.604	24844
840.742	25000
840.879	24707
841.016	24692
841.153	24768
841.29	24844
841.427	24802
841.564	24749
841.701	24798
841.838	24772
841.975	24620
842.112	24673
842.249	24692
842.385	24517
842.522	24677
842.659	24608
842.796	24578
842.933	24517
843.069	24536
843.206	24422
843.343	24407
843.479	24486
843.616	24380
843.752	24311
843.889	24380
844.025	24334
844.162	24194
844.298	24270
844.435	24190
844.571	24232
844.708	24315
844.844	24525
844.98	24464
845.117	24338
845.253	24076
845.389	24178
845.525	24091
845.661	24060
845.798	23893
845.934	23897
846.07	23969
846.206	23973
846.342	23999
846.478	23969
846.614	23752
846.75	23592
846.886	23608
847.022	23741
847.158	23665
847.294	23798
847.429	23695
847.565	23668
847.701	23992
847.837	23463
847.972	23364
848.108	23391
848.244	23463
848.379	23273
848.515	23292
848.65	23299
848.786	23258
848.921	23235
849.057	23421
849.192	23299
849.328	23395
849.463	23265
849.598	23193
849.734	23159
849.869	23064
850.004	22968
850.14	23083
850.275	23018
850.41	22934
850.545	22892
850.68	23105
850.815	22961
850.95	23041
851.085	23223
851.22	23033
851.355	23029
851.49	22881
851.625	23022
851.76	22904
851.895	22816
852.03	22866
852.165	23014
852.299	23037
852.434	22987
852.569	23029
852.703	22900
852.838	22923
852.973	23220
853.107	23067
853.242	22835
853.376	22927
853.511	22641
853.645	22710
853.78	22873
853.914	22713
854.048	22748
854.183	22740
854.317	22774
854.451	23003
854.585	22752
854.72	22729
854.854	22805
854.988	22687
855.122	22771
855.256	22797
855.39	22805
855.524	22835
855.658	22763
855.792	22805
855.926	22801
856.06	22793
856.194	22729
856.327	22831
856.461	22634
856.595	22816
856.729	22839
856.862	22843
856.996	22858
857.13	22771
857.263	22896
857.397	22873
857.53	22660
857.664	22824
857.797	22786
857.931	22847
858.064	22725
858.197	22805
858.331	22790
858.464	22656
858.597	22618
858.731	22752
858.864	22679
858.997	22637
859.13	22782
859.263	22717
859.396	22790
859.529	22752
859.662	22577
859.795	22786
859.928	22702
860.061	22835
860.194	22995
860.327	22824
860.46	22740
860.592	22771
860.725	22759
860.858	22866
860.99	22653
861.123	22588
861.256	22710
861.388	22698
861.521	23391
861.653	22710
861.786	22455
861.918	22596
862.05	22637
862.183	22778
862.315	22782
862.447	22710
862.58	22634
862.712	22580
862.844	22394
862.976	22497
863.108	22451
863.24	22744
863.372	22409
863.504	22360
863.636	22325
863.768	22443
863.9	22405
864.032	22348
864.164	22402
864.296	22436
864.428	22417
864.559	22459
864.691	22577
864.823	22417
864.954	22348
865.086	22276
865.217	22314
865.349	22192
865.48	22287
865.612	22306
865.743	22337
865.875	22348
866.006	22226
866.137	22318
866.269	22246
866.4	22215
866.531	22276
866.662	22150
866.793	22204
866.924	22234
867.055	22337
867.186	22230
867.317	22181
867.448	22082
867.579	22101
867.71	22215
867.841	22070
867.972	22188
868.103	22131
868.233	22105
868.364	22265
868.495	22310
868.625	22500
868.756	22592
868.886	22371
869.017	22276
869.147	22679
869.278	22634
869.408	22557
869.539	22424
869.669	22440
869.799	22516
869.929	22607
870.06	22523
870.19	22649
870.32	22733
870.45	22759
870.58	22858
870.71	22889
870.84	22972
870.97	22752
871.1	22881
871.23	22915
871.36	22957
871.489	22904
871.619	23044
871.749	22908
871.879	23147
872.008	23159
872.138	23071
872.267	22896
872.397	22850
872.526	22752
872.656	22839
872.785	22850
872.915	23029
873.044	23105
873.173	23105
873.303	23025
873.432	23136
873.561	23166
873.69	23086
873.819	23102
873.948	23140
874.077	23071
874.206	23033
874.335	22991
874.464	23178
874.593	23379
874.722	23117
874.851	23261
874.979	23280
875.108	23315
875.237	23155
875.365	23185
875.494	23181
875.623	23288
875.751	23159
875.88	23250
876.008	23292
876.136	23379
876.265	23627
876.393	23699
876.521	23710
876.65	23718
876.778	23680
876.906	23608
877.034	23619
877.162	23634
877.29	23570
877.418	23600
877.546	23630
877.674	23634
877.802	23627
877.93	23531
878.058	23554
878.185	23425
878.313	23345
878.441	23558
878.568	23421
878.696	23486
878.824	23615
878.951	23661
879.079	23718
879.206	23942
879.333	23714
879.461	23535
879.588	23707
879.715	23805
879.842	23935
879.97	23608
880.097	23440
880.224	23444
880.351	23455
880.478	23368
880.605	23395
880.732	23433
880.859	23695
880.986	23356
881.112	23486
881.239	23250
881.366	23227
881.493	22965
881.619	23022
881.746	22984
881.872	23090
881.999	22999
882.125	22900
882.252	22904
882.378	22972
882.505	23037
882.631	22797
882.757	22752
882.883	22607
883.01	22634
883.136	22679
883.262	22542
883.388	22535
883.514	22698
883.64	22683
883.766	22615
883.892	22512
884.018	22535
884.143	22542
884.269	22664
884.395	22322
884.52	22272
884.646	22299
884.772	22238
884.897	22223
885.023	22287
885.148	22386
885.274	22409
885.399	22363
885.524	22306
885.65	22268
885.775	22246
885.9	22280
886.025	22417
886.15	22455
886.275	22211
886.4	22226
886.525	22276
886.65	22325
886.775	22173
886.9	22409
887.025	22497
887.149	22322
887.274	22219
887.399	22200
887.523	21994
887.648	21937
887.773	21918
887.897	22025
888.021	22090
888.146	21922
888.27	22040
888.395	22116
888.519	22013
888.643	22074
888.767	22166
888.891	21972
889.015	21918
889.139	21819
889.263	21762
889.387	21975
889.511	22040
889.635	21812
889.759	21789
889.883	21793
890.006	21797
890.13	21911
890.254	21816
890.377	21686
890.501	21523
890.624	21606
890.748	21660
890.871	21447
890.995	21401
891.118	21378
891.241	21367
891.364	21435
891.488	21545
891.611	21321
891.734	21348
891.857	21329
891.98	21332
892.103	21458
892.226	21332
892.349	21329
892.471	21184
892.594	21256
892.717	21313
892.839	21298
892.962	21264
893.085	21363
893.207	21226
893.33	21195
893.452	21226
893.575	21279
893.697	21188
893.819	21401
893.941	21401
894.064	21230
894.186	21173
894.308	21138
894.43	21313
894.552	21340
894.674	21310
894.796	21100
894.918	21192
895.04	21142
895.161	21287
895.283	21279
895.405	21127
895.526	21370
895.648	21195
895.769	21154
895.891	21310
896.012	21302
896.134	21268
896.255	21370
896.376	21146
896.498	21131
896.619	21252
896.74	21245
896.861	21310
896.982	21557
897.103	21835
897.224	21435
897.345	21466
897.466	21351
897.587	21332
897.708	21576
897.828	21462
897.949	21359
898.07	21241
898.19	21389
898.311	21355
898.431	21450
898.552	21340
898.672	21523
898.792	21492
898.913	21306
899.033	21306
899.153	21199
899.273	21100
899.393	21157
899.513	21036
899.633	21081
899.753	21218
899.873	21112
899.993	21074
900.113	20918
900.232	21241
900.352	21043
900.472	20929
900.591	20933
900.711	20944
900.83	20777
900.95	20963
901.069	20918
901.189	20762
901.308	20511
901.427	20511
901.546	20518
901.665	20419
901.784	20514
901.904	20320
902.023	20164
902.141	20073
902.26	20008
902.379	20031
902.498	19837
902.617	19879
902.735	19959
902.854	19898
902.973	19811
903.091	19495
903.21	19537
903.328	19658
903.446	19677
903.565	19365
903.683	19388
903.801	19232
903.919	19381
904.038	19392
904.156	19187
904.274	19206
904.392	19152
904.51	19008
904.627	19042
904.745	19023
904.863	19221
904.981	18958
905.098	18772
905.216	18844
905.334	18905
905.451	18867
905.569	18738
905.686	18848
905.803	18665
905.921	18570
906.038	18722
906.155	18616
906.272	18460
906.389	18475
906.506	18384
906.623	18399
906.74	18311
906.857	18114
906.974	18266
907.091	18342
907.208	18551
907.324	18350
907.441	18224
907.557	18121
907.674	18091
907.79	17980
907.907	18003
908.023	18091
908.139	18011
908.256	17889
908.372	17942
908.488	17840
908.604	17539
908.72	17832
908.836	17775
908.952	17608
909.068	17649
909.184	17760
909.3	17687
909.415	17661
909.531	17653
909.647	17433
909.762	17410
909.878	17311
909.993	17505
910.108	17376
910.224	17330
910.339	17383
910.454	17372
910.57	17216
910.685	17227
910.8	17417
910.915	17307
911.03	17231
911.145	17079
911.259	16927
911.374	16984
911.489	16862
911.604	16767
911.718	16713
911.833	16694
911.947	16637
912.062	16622
912.176	16694
912.291	16725
912.405	16729
912.519	16820
912.633	16809
912.748	16721
912.862	16618
912.976	16424
913.09	16489
913.204	16375
913.318	16538
913.431	16561
913.545	16451
913.659	16615
913.772	16417
913.886	16230
914	16329
914.113	16341
914.226	16398
914.34	16291
914.453	16135
914.566	16249
914.68	16169
914.793	16097
914.906	16002
915.019	15861
915.132	15781
915.245	15911
915.358	15968
915.47	15857
915.583	15892
915.696	15876
915.809	15949
915.921	16032
916.034	15739
916.146	15774
916.259	15739
916.371	15857
916.483	15770
916.595	15698
916.708	15679
916.82	15736
916.932	15580
917.044	15713
917.156	15561
917.268	15450
917.38	15485
917.491	15492
917.603	15557
917.715	15534
917.826	15580
917.938	15313
918.049	15378
918.161	15500
918.272	15561
918.384	15530
918.495	15374
918.606	15176
918.717	15222
918.828	15279
918.939	15157
919.05	15146
919.161	15222
919.272	15001
919.383	15097
919.494	15233
919.604	15329
919.715	15249
919.826	15055
919.936	15207
920.047	15165
920.157	15256
920.267	15359
920.378	15176
920.488	15074
920.598	15264
920.708	15428
920.818	15321
920.928	15340
921.038	15416
921.148	15424
921.258	15135
921.368	14918
921.477	14895
921.587	14838
921.697	14796
921.806	14906
921.916	14743
922.025	14556
922.134	14530
922.244	14423
922.353	14484
922.462	14396
922.571	14415
922.68	14263
922.789	14081
922.898	14107
923.007	14096
923.116	14138
923.224	14103
923.333	14111
923.442	14084
923.55	13940
923.659	13986
923.767	14035
923.876	13917
923.984	13997
924.092	13852
924.201	13944
924.309	13871
924.417	13799
924.525	13845
924.633	13871
924.741	14473
924.849	13540
924.956	13704
925.064	13575
925.172	13571
925.279	13457
925.387	13613
925.494	13578
925.602	13662
925.709	13590
925.816	13495
925.924	13377
926.031	13533
926.138	13441
926.245	13434
926.352	13400
926.459	13472
926.566	13529
926.673	13320
926.779	13213
926.886	13255
926.993	13118
927.099	13069
927.206	13061
927.312	13008
927.419	13072
927.525	13099
927.631	13095
927.737	12966
927.843	12939
927.95	12738
928.056	12837
928.162	12852
928.267	12909
928.373	13415
928.479	12977
928.585	12669
928.69	12882
928.796	12897
928.901	12760
929.007	12627
929.112	12738
929.218	12589
929.323	12700
929.428	12570
929.533	12707
929.638	12532
929.743	12536
929.848	12509
929.953	12589
930.058	12483
930.163	12197
930.267	12300
930.372	12330
930.477	12194
930.581	12395
930.685	12273
930.79	12152
930.894	12190
930.998	12098
931.103	12155
931.207	11851
931.311	11817
931.415	11695
931.519	11524
931.623	11459
