Data from test_V78500241_1027.txt Node
Date: Fri Mar 25 15:48:54 CST 2022
User: usil
Spectrometer: V785-0024
Trigger mode: 0
Integration Time (sec): 4.000000E-1
Scans to average: 1
Nonlinearity correction enabled: false
Boxcar width: 0
Storing dark spectrum: false
XAxis mode: Wavelengths
Number of Pixels in Spectrum: 1024
>>>>>Begin Spectral Data<<<<<
801.071	28299
801.214	28268
801.356	28143
801.499	28051
801.641	27838
801.783	27926
801.926	27960
802.068	27778
802.211	27766
802.353	27762
802.496	27580
802.638	27511
802.78	27564
802.923	27397
803.065	27507
803.208	27583
803.35	27610
803.492	27766
803.635	27614
803.777	27781
803.919	27869
804.061	28059
804.204	27804
804.346	27675
804.488	27736
804.63	27846
804.773	27728
804.915	27656
805.057	27816
805.199	27717
805.341	27918
805.483	27857
805.626	27888
805.768	27766
805.91	27949
806.052	27812
806.194	27907
806.336	28055
806.478	27983
806.62	27846
806.762	28048
806.904	28223
807.046	28516
807.188	28188
807.33	28455
807.472	28390
807.614	28265
807.756	28344
807.898	28291
808.04	28207
808.182	28257
808.324	28249
808.465	28291
808.607	28367
808.749	28599
808.891	28675
809.033	28816
809.174	28691
809.316	28580
809.458	28542
809.6	28596
809.741	28744
809.883	28729
810.025	28767
810.166	28869
810.308	28900
810.45	28911
810.591	28908
810.733	28523
810.875	28622
811.016	28607
811.158	28497
811.299	28820
811.441	28801
811.582	28847
811.724	28637
811.865	28519
812.007	28630
812.148	28622
812.29	28596
812.431	28824
812.573	29083
812.714	28972
812.855	29090
812.997	29178
813.138	29303
813.279	29318
813.421	29117
813.562	29044
813.703	28915
813.845	28938
813.986	28615
814.127	28409
814.268	28310
814.41	28314
814.551	28428
814.692	28428
814.833	28238
814.974	28234
815.115	28268
815.256	28188
815.397	28310
815.539	28185
815.68	28131
815.821	28074
815.962	28055
816.103	28188
816.244	28025
816.385	27922
816.526	28021
816.666	27743
816.807	27641
816.948	27736
817.089	27724
817.23	27629
817.371	27667
817.512	27705
817.653	27633
817.793	27507
817.934	27591
818.075	27660
818.216	27618
818.356	27462
818.497	27599
818.638	27348
818.778	27435
818.919	27420
819.06	27268
819.2	27534
819.341	27656
819.481	27698
819.622	27766
819.762	27930
819.903	27808
820.043	27808
820.184	27808
820.324	27637
820.465	27835
820.605	27679
820.746	27781
820.886	27671
821.026	27694
821.167	27682
821.307	27762
821.447	27736
821.588	27614
821.728	27416
821.868	27252
822.008	27062
822.149	27093
822.289	27062
822.429	26781
822.569	26857
822.709	26777
822.849	26670
822.99	26686
823.13	26598
823.27	26720
823.41	26450
823.55	26423
823.69	26492
823.83	26564
823.97	26385
824.11	26336
824.25	26229
824.389	26206
824.529	26229
824.669	26248
824.809	26271
824.949	26412
825.089	26305
825.228	26336
825.368	26027
825.508	26214
825.648	26256
825.787	26218
825.927	26130
826.067	26218
826.206	26240
826.346	26275
826.485	26202
826.625	26088
826.765	26381
826.904	26088
827.044	25921
827.183	25913
827.323	25852
827.462	25849
827.601	25898
827.741	25826
827.88	25917
828.02	25761
828.159	25719
828.298	25750
828.437	25894
828.577	25799
828.716	25902
828.855	25837
828.994	25525
829.134	25750
829.273	25559
829.412	25533
829.551	25495
829.69	25586
829.829	25510
829.968	25556
830.107	25670
830.246	25601
830.385	25544
830.524	25457
830.663	25278
830.802	25339
830.941	25122
831.08	25232
831.219	25308
831.357	25187
831.496	25472
831.635	25232
831.774	25042
831.913	24924
832.051	24977
832.19	24951
832.329	24916
832.467	24897
832.606	24848
832.744	24639
832.883	24962
833.022	24760
833.16	24852
833.299	24768
833.437	24837
833.576	24901
833.714	24852
833.852	25008
833.991	24973
834.129	25084
834.267	25019
834.406	24947
834.544	24935
834.682	24894
834.821	24783
834.959	25015
835.097	24871
835.235	24951
835.373	24791
835.511	24859
835.65	24760
835.788	24795
835.926	24551
836.064	24448
836.202	24665
836.34	24730
836.478	24757
836.615	24540
836.753	24992
836.891	24681
837.029	24692
837.167	24608
837.305	24528
837.443	24551
837.58	24445
837.718	24559
837.856	24585
837.993	24437
838.131	24502
838.269	24384
838.406	24330
838.544	24410
838.681	24159
838.819	24235
838.956	24174
839.094	23980
839.231	23988
839.369	24247
839.506	24384
839.643	24159
839.781	24129
839.918	23870
840.055	23973
840.193	24015
840.33	24064
840.467	24011
840.604	23912
840.742	24186
840.879	23843
841.016	23999
841.153	23752
841.29	24011
841.427	23878
841.564	23927
841.701	23946
841.838	23805
841.975	23882
842.112	23760
842.249	23691
842.385	23718
842.522	23843
842.659	23737
842.796	23566
842.933	23600
843.069	23627
843.206	23638
843.343	23745
843.479	23577
843.616	23627
843.752	23425
843.889	23429
844.025	23463
844.162	23497
844.298	23482
844.435	23486
844.571	23398
844.708	23604
844.844	23539
844.98	23562
845.117	23619
845.253	23440
845.389	23353
845.525	23421
845.661	23334
845.798	23216
845.934	23254
846.07	23105
846.206	23261
846.342	23280
846.478	23216
846.614	23006
846.75	22820
846.886	22904
847.022	23090
847.158	22904
847.294	22949
847.429	22930
847.565	22881
847.701	23197
847.837	22641
847.972	22516
848.108	22786
848.244	22744
848.379	22672
848.515	22596
848.65	22459
848.786	22504
848.921	22474
849.057	22519
849.192	22466
849.328	22561
849.463	22428
849.598	22470
849.734	22421
849.869	22432
850.004	22280
850.14	22265
850.275	22318
850.41	22211
850.545	22238
850.68	22280
850.815	22257
850.95	22242
851.085	22371
851.22	22318
851.355	22234
851.49	22268
851.625	22261
851.76	22246
851.895	22196
852.03	22131
852.165	22287
852.299	22325
852.434	22322
852.569	22371
852.703	22219
852.838	22375
852.973	22352
853.107	22371
853.242	22276
853.376	22112
853.511	21975
853.645	22059
853.78	22215
853.914	22097
854.048	22013
854.183	22116
854.317	22143
854.451	22306
854.585	22086
854.72	21994
854.854	22147
854.988	21991
855.122	22029
855.256	21964
855.39	22040
855.524	22029
855.658	22173
855.792	22101
855.926	22207
856.06	22177
856.194	22166
856.327	22116
856.461	22082
856.595	22158
856.729	22036
856.862	22314
856.996	22234
857.13	22112
857.263	22166
857.397	22166
857.53	22055
857.664	22067
857.797	22169
857.931	22200
858.064	22021
858.197	22158
858.331	21994
858.464	21987
858.597	22021
858.731	22017
858.864	21987
858.997	22040
859.13	22215
859.263	22029
859.396	22253
859.529	22051
859.662	22067
859.795	22002
859.928	22105
860.061	22253
860.194	22276
860.327	22059
860.46	22173
860.592	22166
860.725	22200
860.858	22226
860.99	22120
861.123	22120
861.256	22059
861.388	21998
861.521	22984
861.653	22044
861.786	21808
861.918	21827
862.05	21972
862.183	21937
862.315	22025
862.447	21987
862.58	21998
862.712	21751
862.844	21709
862.976	21823
863.108	21709
863.24	22249
863.372	21686
863.504	21865
863.636	21778
863.768	21774
863.9	21728
864.032	21641
864.164	21690
864.296	21755
864.428	21899
864.559	21930
864.691	21819
864.823	21736
864.954	21812
865.086	21774
865.217	21713
865.349	21675
865.48	21622
865.612	21732
865.743	21789
865.875	21720
866.006	21557
866.137	21705
866.269	21682
866.4	21625
866.531	21606
866.662	21500
866.793	21743
866.924	21568
867.055	21641
867.186	21576
867.317	21450
867.448	21492
867.579	21641
867.71	21488
867.841	21458
867.972	21595
868.103	21625
868.233	21492
868.364	21496
868.495	21739
868.625	21800
868.756	21903
868.886	21736
869.017	21884
869.147	21876
869.278	21975
869.408	21880
869.539	21880
869.669	21903
869.799	21915
869.929	22029
870.06	21994
870.19	22070
870.32	22078
870.45	22253
870.58	22253
870.71	22344
870.84	22333
870.97	22188
871.1	22242
871.23	22386
871.36	22409
871.489	22344
871.619	22432
871.749	22432
871.879	22481
872.008	22497
872.138	22329
872.267	22329
872.397	22421
872.526	22177
872.656	22223
872.785	22390
872.915	22428
873.044	22569
873.173	22580
873.303	22508
873.432	22626
873.561	22523
873.69	22417
873.819	22466
873.948	22592
874.077	22542
874.206	22390
874.335	22478
874.464	22554
874.593	22717
874.722	22573
874.851	22725
874.979	22649
875.108	22710
875.237	22748
875.365	22569
875.494	22626
875.623	22717
875.751	22713
875.88	22573
876.008	22877
876.136	22831
876.265	23086
876.393	23151
876.521	23098
876.65	23090
876.778	23193
876.906	23060
877.034	23067
877.162	23029
877.29	23090
877.418	22927
877.546	23067
877.674	23029
877.802	23056
877.93	23010
878.058	22942
878.185	22835
878.313	22949
878.441	23025
878.568	22805
878.696	22904
878.824	23079
878.951	23117
879.079	23212
879.206	23197
879.333	23208
879.461	22995
879.588	23102
879.715	23231
879.842	23227
879.97	23117
880.097	22843
880.224	22744
880.351	22755
880.478	22942
880.605	22771
880.732	22721
880.859	22999
880.986	22778
881.112	22809
881.239	22691
881.366	22626
881.493	22386
881.619	22390
881.746	22409
881.872	22363
881.999	22447
882.125	22280
882.252	22382
882.378	22367
882.505	22546
882.631	22306
882.757	22074
882.883	22124
883.01	22086
883.136	21983
883.262	21994
883.388	21869
883.514	22116
883.64	22158
883.766	21979
883.892	21816
884.018	21922
884.143	21945
884.269	22093
884.395	21785
884.52	21736
884.646	21679
884.772	21679
884.897	21587
885.023	21717
885.148	21682
885.274	21816
885.399	21918
885.524	21762
885.65	21720
885.775	21755
885.9	21667
886.025	21682
886.15	21808
886.275	21751
886.4	21713
886.525	21743
886.65	21720
886.775	21660
886.9	21800
887.025	21857
887.149	21720
887.274	21492
887.399	21416
887.523	21485
887.648	21370
887.773	21382
887.897	21564
888.021	21500
888.146	21511
888.27	21473
888.395	21477
888.519	21488
888.643	21496
888.767	21477
888.891	21302
889.015	21195
889.139	21279
889.263	21351
889.387	21389
889.511	21405
889.635	21367
889.759	21241
889.883	21336
890.006	21298
890.13	21260
890.254	21142
890.377	21230
890.501	20925
890.624	20891
890.748	21017
890.871	20914
890.995	20773
891.118	20853
891.241	20868
891.364	20796
891.488	20849
891.611	20834
891.734	20891
891.857	20921
891.98	20845
892.103	20838
892.226	20781
892.349	20804
892.471	20655
892.594	20720
892.717	20788
892.839	20731
892.962	20708
893.085	20823
893.207	20762
893.33	20568
893.452	20629
893.575	20716
893.697	20659
893.819	20872
893.941	20929
894.064	20705
894.186	20594
894.308	20609
894.43	20765
894.552	20830
894.674	20887
894.796	20659
894.918	20659
895.04	20678
895.161	20838
895.283	20777
895.405	20609
895.526	20708
895.648	20632
895.769	20785
895.891	20689
896.012	20804
896.134	20708
896.255	20686
896.376	20606
896.498	20743
896.619	20754
896.74	20807
896.861	20712
896.982	20990
897.103	21062
897.224	20960
897.345	20811
897.466	20914
897.587	20899
897.708	21081
897.828	20986
897.949	20899
898.07	20727
898.19	20712
898.311	20933
898.431	20891
898.552	20975
898.672	20998
898.792	21032
898.913	20883
899.033	20910
899.153	20693
899.273	20560
899.393	20701
899.513	20697
899.633	20735
899.753	20621
899.873	20659
899.993	20731
900.113	20625
900.232	20617
900.352	20522
900.472	20480
900.591	20431
900.711	20408
900.83	20438
900.95	20533
901.069	20575
901.189	20351
901.308	20050
901.427	19993
901.546	19989
901.665	20054
901.784	19993
901.904	19921
902.023	19757
902.141	19563
902.26	19533
902.379	19506
902.498	19518
902.617	19483
902.735	19514
902.854	19510
902.973	19422
903.091	19240
903.21	19118
903.328	19095
903.446	19050
903.565	18977
903.683	18951
903.801	18882
903.919	18916
904.038	18825
904.156	18669
904.274	18787
904.392	18597
904.51	18760
904.627	18726
904.745	18726
904.863	18867
904.981	18517
905.098	18414
905.216	18422
905.334	18304
905.451	18475
905.569	18410
905.686	18361
905.803	18490
905.921	18228
906.038	18300
906.155	18292
906.272	18144
906.389	18152
906.506	17927
906.623	18038
906.74	17908
906.857	17775
906.974	17802
907.091	18026
907.208	18049
907.324	17996
907.441	17783
907.557	17573
907.674	17665
907.79	17600
907.907	17638
908.023	17589
908.139	17657
908.256	17501
908.372	17543
908.488	17516
908.604	17440
908.72	17334
908.836	17429
908.952	17410
909.068	17402
909.184	17421
909.3	17296
909.415	17414
909.531	17379
909.647	17075
909.762	17025
909.878	16930
909.993	17090
910.108	16999
910.224	16999
910.339	17014
910.454	17014
910.57	16847
910.685	16702
910.8	17075
910.915	16987
911.03	16850
911.145	16736
911.259	16584
911.374	16580
911.489	16618
911.604	16584
911.718	16386
911.833	16405
911.947	16402
912.062	16352
912.176	16363
912.291	16421
912.405	16443
912.519	16592
912.633	16508
912.748	16268
912.862	16295
912.976	16249
913.09	16105
913.204	16112
913.318	16204
913.431	16253
913.545	16249
913.659	16223
913.772	16215
913.886	16059
914	15945
914.113	16086
914.226	16116
914.34	16017
914.453	15911
914.566	15975
914.68	15819
914.793	15895
914.906	15644
915.019	15675
915.132	15603
915.245	15584
915.358	15622
915.47	15526
915.583	15629
915.696	15572
915.809	15648
915.921	15644
916.034	15496
916.146	15405
916.259	15443
916.371	15587
916.483	15629
916.595	15378
916.708	15389
916.82	15382
916.932	15214
917.044	15367
917.156	15325
917.268	15207
917.38	15268
917.491	15138
917.603	15192
917.715	15294
917.826	15359
917.938	15195
918.049	15051
918.161	15135
918.272	15237
918.384	15321
918.495	15195
918.606	14933
918.717	14982
918.828	15036
918.939	15043
919.05	14975
919.161	14952
919.272	14754
919.383	14830
919.494	15100
919.604	15180
919.715	14895
919.826	14792
919.936	14872
920.047	15062
920.157	14887
920.267	15123
920.378	14937
920.488	14853
920.598	15001
920.708	15275
920.818	15036
920.928	15051
921.038	15245
921.148	15131
921.258	14899
921.368	14891
921.477	14716
921.587	14617
921.697	14590
921.806	14613
921.916	14499
922.025	14275
922.134	14328
922.244	14183
922.353	14347
922.462	14153
922.571	14092
922.68	13993
922.789	13963
922.898	13955
923.007	13849
923.116	14008
923.224	13890
923.333	13845
923.442	13791
923.55	13693
923.659	13837
923.767	13784
923.876	13734
923.984	13681
924.092	13594
924.201	13727
924.309	13609
924.417	13639
924.525	13540
924.633	13643
924.741	14366
924.849	13259
924.956	13529
925.064	13441
925.172	13263
925.279	13308
925.387	13320
925.494	13354
925.602	13445
925.709	13403
925.816	13149
925.924	13293
926.031	13343
926.138	13244
926.245	13320
926.352	13156
926.459	13232
926.566	13259
926.673	13206
926.779	13084
926.886	13118
926.993	12924
927.099	12916
927.206	12829
927.312	12757
927.419	12856
927.525	12821
927.631	12840
927.737	12776
927.843	12772
927.95	12612
928.056	12623
928.162	12722
928.267	12760
928.373	13282
928.479	12673
928.585	12452
928.69	12684
928.796	12688
928.901	12566
929.007	12384
929.112	12582
929.218	12502
929.323	12399
929.428	12467
929.533	12578
929.638	12304
929.743	12418
929.848	12376
929.953	12311
930.058	12281
930.163	12064
930.267	12201
930.372	12182
930.477	12045
930.581	12232
930.685	12095
930.79	12007
930.894	11954
930.998	12026
931.103	12011
931.207	11745
931.311	11611
931.415	11474
931.519	11368
931.623	11315
