Data from test_V78500241_1988.txt Node
Date: Fri Mar 25 15:55:34 CST 2022
User: usil
Spectrometer: V785-0024
Trigger mode: 0
Integration Time (sec): 4.000000E-1
Scans to average: 1
Nonlinearity correction enabled: false
Boxcar width: 0
Storing dark spectrum: false
XAxis mode: Wavelengths
Number of Pixels in Spectrum: 1024
>>>>>Begin Spectral Data<<<<<
801.071	28375
801.214	28295
801.356	28074
801.499	27968
801.641	28010
801.783	28078
801.926	27968
802.068	27979
802.211	28021
802.353	27850
802.496	27648
802.638	27580
802.78	27629
802.923	27462
803.065	27348
803.208	27454
803.35	27610
803.492	27663
803.635	27895
803.777	27778
803.919	27861
804.061	28162
804.204	27949
804.346	27739
804.488	27705
804.63	27648
804.773	27857
804.915	27968
805.057	28082
805.199	27911
805.341	27972
805.483	27994
805.626	27903
805.768	27884
805.91	27869
806.052	28010
806.194	27835
806.336	28078
806.478	27922
806.62	27903
806.762	27998
806.904	28291
807.046	28287
807.188	28401
807.33	28295
807.472	28440
807.614	28504
807.756	28478
807.898	28280
808.04	28166
808.182	28082
808.324	28325
808.465	28272
808.607	28474
808.749	28782
808.891	28725
809.033	28820
809.174	28675
809.316	28656
809.458	28588
809.6	28664
809.741	28805
809.883	28622
810.025	28759
810.166	28930
810.308	28908
810.45	28839
810.591	28790
810.733	28672
810.875	28519
811.016	28683
811.158	28584
811.299	28561
811.441	28702
811.582	28744
811.724	28519
811.865	28565
812.007	28531
812.148	28683
812.29	28618
812.431	28862
812.573	28999
812.714	29079
812.855	29258
812.997	29315
813.138	29322
813.279	29223
813.421	29147
813.562	29094
813.703	28919
813.845	28816
813.986	28569
814.127	28440
814.268	28401
814.41	28367
814.551	28344
814.692	28390
814.833	28219
814.974	28166
815.115	28413
815.256	28204
815.397	28207
815.539	28253
815.68	28147
815.821	28017
815.962	28215
816.103	28143
816.244	28051
816.385	27934
816.526	27918
816.666	27701
816.807	27618
816.948	27568
817.089	27743
817.23	27663
817.371	27701
817.512	27519
817.653	27557
817.793	27618
817.934	27599
818.075	27606
818.216	27557
818.356	27622
818.497	27587
818.638	27237
818.778	27443
818.919	27454
819.06	27447
819.2	27583
819.341	27614
819.481	27701
819.622	27789
819.762	28013
819.903	27812
820.043	27819
820.184	27724
820.324	27774
820.465	27751
820.605	27701
820.746	27583
820.886	27633
821.026	27755
821.167	27747
821.307	27755
821.447	27675
821.588	27595
821.728	27435
821.868	27249
822.008	27051
822.149	26967
822.289	27100
822.429	26826
822.569	26838
822.709	26864
822.849	26503
822.99	26629
823.13	26522
823.27	26453
823.41	26332
823.55	26389
823.69	26415
823.83	26366
823.97	26526
824.11	26271
824.25	26107
824.389	26191
824.529	26313
824.669	26176
824.809	26275
824.949	26278
825.089	26309
825.228	26339
825.368	26157
825.508	26077
825.648	26195
825.787	26100
825.927	26164
826.067	26126
826.206	26039
826.346	26210
826.485	26218
826.625	26107
826.765	26176
826.904	26202
827.044	25997
827.183	25852
827.323	25803
827.462	25944
827.601	25917
827.741	25791
827.88	25917
828.02	25871
828.159	25864
828.298	25875
828.437	25875
828.577	25814
828.716	26024
828.855	25791
828.994	25674
829.134	25460
829.273	25647
829.412	25506
829.551	25438
829.69	25510
829.829	25575
829.968	25666
830.107	25533
830.246	25533
830.385	25628
830.524	25411
830.663	25316
830.802	25324
830.941	25141
831.08	25194
831.219	25206
831.357	25217
831.496	25403
831.635	25171
831.774	24985
831.913	24920
832.051	24909
832.19	24951
832.329	24928
832.467	24817
832.606	24772
832.744	24673
832.883	24844
833.022	24745
833.16	25012
833.299	24852
833.437	24970
833.576	24886
833.714	24875
833.852	24996
833.991	24882
834.129	24981
834.267	25152
834.406	24837
834.544	24924
834.682	24901
834.821	24734
834.959	25050
835.097	24821
835.235	24954
835.373	24943
835.511	24848
835.65	24783
835.788	24715
835.926	24559
836.064	24608
836.202	24612
836.34	24757
836.478	24692
836.615	24677
836.753	24688
836.891	24722
837.029	24612
837.167	24650
837.305	24536
837.443	24639
837.58	24483
837.718	24639
837.856	24623
837.993	24509
838.131	24559
838.269	24460
838.406	24342
838.544	24388
838.681	24213
838.819	24163
838.956	24018
839.094	24011
839.231	24095
839.369	24285
839.506	24422
839.643	24235
839.781	24053
839.918	23916
840.055	24038
840.193	23912
840.33	23889
840.467	23912
840.604	23927
840.742	24258
840.879	23634
841.016	23828
841.153	23771
841.29	24159
841.427	23855
841.564	24015
841.701	24018
841.838	23901
841.975	23836
842.112	23729
842.249	23851
842.385	23745
842.522	23958
842.659	23718
842.796	23703
842.933	23585
843.069	23627
843.206	23668
843.343	23737
843.479	23786
843.616	23756
843.752	23379
843.889	23520
844.025	23516
844.162	23516
844.298	23592
844.435	23425
844.571	23356
844.708	23486
844.844	23668
844.98	23581
845.117	23581
845.253	23414
845.389	23296
845.525	23269
845.661	23356
845.798	23162
845.934	23303
846.07	23128
846.206	23273
846.342	23296
846.478	23204
846.614	23044
846.75	22980
846.886	22873
847.022	23117
847.158	22972
847.294	23033
847.429	22942
847.565	22919
847.701	23239
847.837	22542
847.972	22531
848.108	22687
848.244	22744
848.379	22527
848.515	22554
848.65	22352
848.786	22485
848.921	22603
849.057	22508
849.192	22554
849.328	22561
849.463	22481
849.598	22489
849.734	22417
849.869	22409
850.004	22093
850.14	22310
850.275	22268
850.41	22173
850.545	22314
850.68	22261
850.815	22177
850.95	22348
851.085	22325
851.22	22337
851.355	22310
851.49	22185
851.625	22211
851.76	22261
851.895	22150
852.03	22211
852.165	22337
852.299	22299
852.434	22333
852.569	22390
852.703	22375
852.838	22428
852.973	22421
853.107	22424
853.242	22261
853.376	22090
853.511	22097
853.645	22139
853.78	22173
853.914	22078
854.048	22025
854.183	22017
854.317	22188
854.451	22249
854.585	22032
854.72	22036
854.854	22124
854.988	22086
855.122	22070
855.256	21983
855.39	22086
855.524	22188
855.658	22105
855.792	22055
855.926	22162
856.06	22128
856.194	22131
856.327	22112
856.461	21964
856.595	22063
856.729	22086
856.862	22177
856.996	22154
857.13	22135
857.263	22124
857.397	22162
857.53	22181
857.664	22169
857.797	22067
857.931	22112
858.064	22131
858.197	22128
858.331	22109
858.464	22021
858.597	22010
858.731	22029
858.864	22093
858.997	22013
859.13	22063
859.263	22188
859.396	22143
859.529	22021
859.662	22086
859.795	22070
859.928	22131
860.061	22375
860.194	22299
860.327	21983
860.46	22032
860.592	22211
860.725	22192
860.858	22139
860.99	22268
861.123	22036
861.256	22131
861.388	22173
861.521	22885
861.653	22025
861.786	21857
861.918	21907
862.05	22002
862.183	21975
862.315	22059
862.447	22082
862.58	21918
862.712	21736
862.844	21774
862.976	21899
863.108	21884
863.24	22192
863.372	21663
863.504	21835
863.636	21720
863.768	21690
863.9	21785
864.032	21679
864.164	21709
864.296	21766
864.428	21949
864.559	21937
864.691	21903
864.823	21751
864.954	21827
865.086	21899
865.217	21755
865.349	21599
865.48	21675
865.612	21663
865.743	21751
865.875	21618
866.006	21701
866.137	21663
866.269	21724
866.4	21618
866.531	21561
866.662	21557
866.793	21538
866.924	21713
867.055	21648
867.186	21728
867.317	21644
867.448	21374
867.579	21671
867.71	21507
867.841	21450
867.972	21614
868.103	21606
868.233	21587
868.364	21633
868.495	21614
868.625	21846
868.756	22021
868.886	21838
869.017	21804
869.147	21953
869.278	21930
869.408	21888
869.539	21789
869.669	21865
869.799	21915
869.929	21835
870.06	21888
870.19	22253
870.32	22154
870.45	22265
870.58	22276
870.71	22360
870.84	22215
870.97	22303
871.1	22325
871.23	22363
871.36	22436
871.489	22375
871.619	22428
871.749	22436
871.879	22519
872.008	22577
872.138	22428
872.267	22402
872.397	22310
872.526	22147
872.656	22341
872.785	22299
872.915	22421
873.044	22599
873.173	22497
873.303	22535
873.432	22447
873.561	22531
873.69	22443
873.819	22440
873.948	22440
874.077	22493
874.206	22394
874.335	22527
874.464	22615
874.593	22653
874.722	22611
874.851	22649
874.979	22660
875.108	22881
875.237	22626
875.365	22672
875.494	22607
875.623	22755
875.751	22725
875.88	22736
876.008	22869
876.136	22869
876.265	23147
876.393	23273
876.521	23189
876.65	23178
876.778	23121
876.906	23113
877.034	23022
877.162	23098
877.29	23037
877.418	23105
877.546	23048
877.674	23128
877.802	22915
877.93	23025
878.058	22911
878.185	22881
878.313	22930
878.441	23006
878.568	22896
878.696	22972
878.824	23052
878.951	23033
879.079	23254
879.206	23311
879.333	23414
879.461	23041
879.588	23090
879.715	23212
879.842	23353
879.97	23098
880.097	22946
880.224	22812
880.351	22934
880.478	22854
880.605	22702
880.732	22892
880.859	23098
880.986	22797
881.112	22881
881.239	22748
881.366	22519
881.493	22516
881.619	22489
881.746	22599
881.872	22493
881.999	22348
882.125	22238
882.252	22455
882.378	22360
882.505	22382
882.631	22276
882.757	22158
882.883	22128
883.01	22051
883.136	22116
883.262	21968
883.388	21895
883.514	22086
883.64	22124
883.766	22029
883.892	21812
884.018	21918
884.143	22044
884.269	21998
884.395	21991
884.52	21743
884.646	21667
884.772	21667
884.897	21656
885.023	21762
885.148	21842
885.274	21892
885.399	21915
885.524	21751
885.65	21785
885.775	21770
885.9	21652
886.025	21869
886.15	21850
886.275	21633
886.4	21591
886.525	21709
886.65	21698
886.775	21739
886.9	21808
887.025	21915
887.149	21743
887.274	21431
887.399	21466
887.523	21610
887.648	21416
887.773	21386
887.897	21549
888.021	21507
888.146	21519
888.27	21530
888.395	21583
888.519	21542
888.643	21405
888.767	21618
888.891	21481
889.015	21363
889.139	21317
889.263	21283
889.387	21412
889.511	21606
889.635	21389
889.759	21401
889.883	21252
890.006	21321
890.13	21351
890.254	21127
890.377	21195
890.501	20994
890.624	20971
890.748	21146
890.871	20864
890.995	20853
891.118	20785
891.241	20910
891.364	20762
891.488	20910
891.611	20845
891.734	21001
891.857	20918
891.98	20769
892.103	20975
892.226	20811
892.349	20842
892.471	20712
892.594	20693
892.717	20830
892.839	20754
892.962	20739
893.085	20819
893.207	20724
893.33	20613
893.452	20777
893.575	20811
893.697	20735
893.819	20838
893.941	20948
894.064	20708
894.186	20640
894.308	20629
894.43	20830
894.552	20807
894.674	20823
894.796	20625
894.918	20632
895.04	20663
895.161	20819
895.283	20838
895.405	20545
895.526	20724
895.648	20621
895.769	20769
895.891	20735
896.012	20804
896.134	20788
896.255	20716
896.376	20659
896.498	20724
896.619	20731
896.74	20765
896.861	20834
896.982	21017
897.103	21138
897.224	20956
897.345	20819
897.466	20971
897.587	20929
897.708	21138
897.828	21020
897.949	20815
898.07	20750
898.19	20826
898.311	21066
898.431	20773
898.552	20906
898.672	20967
898.792	20986
898.913	20982
899.033	20811
899.153	20708
899.273	20575
899.393	20705
899.513	20769
899.633	20724
899.753	20640
899.873	20674
899.993	20724
900.113	20613
900.232	20701
900.352	20617
900.472	20522
900.591	20492
900.711	20457
900.83	20400
900.95	20609
901.069	20549
901.189	20301
901.308	20138
901.427	19993
901.546	20001
901.665	19970
901.784	20016
901.904	19883
902.023	19883
902.141	19548
902.26	19620
902.379	19677
902.498	19548
902.617	19415
902.735	19483
902.854	19464
902.973	19312
903.091	19251
903.21	19152
903.328	19160
903.446	19103
903.565	18966
903.683	18989
903.801	18913
903.919	18894
904.038	18913
904.156	18783
904.274	18821
904.392	18840
904.51	18665
904.627	18684
904.745	18707
904.863	18734
904.981	18452
905.098	18448
905.216	18403
905.334	18429
905.451	18357
905.569	18376
905.686	18475
905.803	18403
905.921	18125
906.038	18273
906.155	18273
906.272	18121
906.389	18140
906.506	17988
906.623	18030
906.74	17939
906.857	17840
906.974	17805
907.091	17958
907.208	18117
907.324	17980
907.441	17893
907.557	17672
907.674	17581
907.79	17611
907.907	17653
908.023	17707
908.139	17611
908.256	17680
908.372	17558
908.488	17547
908.604	17493
908.72	17296
908.836	17334
908.952	17258
909.068	17387
909.184	17421
909.3	17376
909.415	17360
909.531	17330
909.647	17155
909.762	17121
909.878	17045
909.993	17056
910.108	16999
910.224	16930
910.339	17067
910.454	16889
910.57	16908
910.685	16820
910.8	17083
910.915	16968
911.03	16816
911.145	16710
911.259	16717
911.374	16634
911.489	16615
911.604	16512
911.718	16371
911.833	16405
911.947	16417
912.062	16215
912.176	16363
912.291	16371
912.405	16310
912.519	16603
912.633	16603
912.748	16405
912.862	16322
912.976	16207
913.09	16082
913.204	16246
913.318	16223
913.431	16272
913.545	16337
913.659	16352
913.772	16086
913.886	16040
914	15972
914.113	16143
914.226	16090
914.34	16162
914.453	15979
914.566	16032
914.68	15930
914.793	15838
914.906	15709
915.019	15614
915.132	15625
915.245	15553
915.358	15606
915.47	15466
915.583	15671
915.696	15690
915.809	15751
915.921	15667
916.034	15622
916.146	15511
916.259	15435
916.371	15580
916.483	15500
916.595	15473
916.708	15412
916.82	15454
916.932	15408
917.044	15389
917.156	15321
917.268	15199
917.38	15150
917.491	15188
917.603	15173
917.715	15355
917.826	15367
917.938	15116
918.049	15100
918.161	15184
918.272	15203
918.384	15245
918.495	15161
918.606	15047
918.717	14960
918.828	14929
918.939	14994
919.05	14952
919.161	15020
919.272	14746
919.383	14880
919.494	14883
919.604	15173
919.715	14902
919.826	14720
919.936	14952
920.047	14986
920.157	14914
920.267	15085
920.378	14918
920.488	14838
920.598	15161
920.708	15180
920.818	15093
920.928	15005
921.038	15218
921.148	15123
921.258	14883
921.368	14769
921.477	14750
921.587	14712
921.697	14545
921.806	14724
921.916	14454
922.025	14286
922.134	14366
922.244	14271
922.353	14301
922.462	14103
922.571	14050
922.68	14016
922.789	13982
922.898	13993
923.007	13845
923.116	13909
923.224	13841
923.333	13830
923.442	13830
923.55	13750
923.659	13772
923.767	13769
923.876	13731
923.984	13769
924.092	13681
924.201	13670
924.309	13719
924.417	13734
924.525	13552
924.633	13674
924.741	14438
924.849	13320
924.956	13632
925.064	13324
925.172	13274
925.279	13369
925.387	13278
925.494	13384
925.602	13426
925.709	13358
925.816	13232
925.924	13232
926.031	13365
926.138	13236
926.245	13293
926.352	13160
926.459	13293
926.566	13316
926.673	13240
926.779	13099
926.886	13107
926.993	12932
927.099	12901
927.206	12798
927.312	12837
927.419	12859
927.525	12859
927.631	12810
927.737	12798
927.843	12741
927.95	12662
928.056	12730
928.162	12730
928.267	12772
928.373	13301
928.479	12772
928.585	12521
928.69	12620
928.796	12669
928.901	12494
929.007	12426
929.112	12582
929.218	12441
929.323	12464
929.428	12391
929.533	12578
929.638	12395
929.743	12319
929.848	12414
929.953	12399
930.058	12254
930.163	12148
930.267	12155
930.372	12171
930.477	12064
930.581	12228
930.685	12136
930.79	11927
930.894	11992
930.998	11927
931.103	12087
931.207	11688
931.311	11627
931.415	11600
931.519	11425
931.623	11337
