Data from test_V78500241_3091.txt Node
Date: Fri Mar 25 16:03:12 CST 2022
User: usil
Spectrometer: V785-0024
Trigger mode: 0
Integration Time (sec): 4.000000E-1
Scans to average: 1
Nonlinearity correction enabled: false
Boxcar width: 0
Storing dark spectrum: false
XAxis mode: Wavelengths
Number of Pixels in Spectrum: 1024
>>>>>Begin Spectral Data<<<<<
801.071	28401
801.214	28371
801.356	28109
801.499	28109
801.641	27876
801.783	27937
801.926	28025
802.068	28082
802.211	27880
802.353	28017
802.496	27644
802.638	27610
802.78	27595
802.923	27568
803.065	27530
803.208	27614
803.35	27720
803.492	27732
803.635	27835
803.777	27823
803.919	27732
804.061	28135
804.204	27968
804.346	27785
804.488	27800
804.63	27903
804.773	27873
804.915	27911
805.057	27945
805.199	27747
805.341	27823
805.483	28036
805.626	27987
805.768	27926
805.91	27983
806.052	27968
806.194	27994
806.336	28238
806.478	28044
806.62	27983
806.762	27991
806.904	28333
807.046	28561
807.188	28512
807.33	28409
807.472	28428
807.614	28462
807.756	28512
807.898	28261
808.04	28246
808.182	28348
808.324	28280
808.465	28367
808.607	28607
808.749	28641
808.891	28729
809.033	28801
809.174	28725
809.316	28641
809.458	28691
809.6	28569
809.741	28774
809.883	28759
810.025	29033
810.166	29044
810.308	28984
810.45	28881
810.591	28831
810.733	28713
810.875	28599
811.016	28550
811.158	28656
811.299	28854
811.441	28904
811.582	28790
811.724	28748
811.865	28763
812.007	28679
812.148	28698
812.29	28824
812.431	28809
812.573	29056
812.714	29113
812.855	29212
812.997	29372
813.138	29440
813.279	29383
813.421	29246
813.562	29204
813.703	28980
813.845	28862
813.986	28687
814.127	28478
814.268	28466
814.41	28462
814.551	28363
814.692	28401
814.833	28356
814.974	28318
815.115	28455
815.256	28325
815.397	28390
815.539	28303
815.68	28173
815.821	28109
815.962	28139
816.103	28196
816.244	28166
816.385	27979
816.526	28017
816.666	27755
816.807	27720
816.948	27747
817.089	27941
817.23	27713
817.371	27641
817.512	27633
817.653	27690
817.793	27568
817.934	27656
818.075	27713
818.216	27656
818.356	27751
818.497	27507
818.638	27363
818.778	27591
818.919	27591
819.06	27648
819.2	27652
819.341	27732
819.481	27705
819.622	27816
819.762	28013
819.903	28025
820.043	27968
820.184	27956
820.324	27759
820.465	27816
820.605	27781
820.746	27686
820.886	27705
821.026	27816
821.167	27743
821.307	27831
821.447	27739
821.588	27675
821.728	27511
821.868	27355
822.008	27214
822.149	27226
822.289	27237
822.429	26918
822.569	26735
822.709	26910
822.849	26606
822.99	26644
823.13	26686
823.27	26590
823.41	26495
823.55	26511
823.69	26552
823.83	26549
823.97	26442
824.11	26358
824.25	26214
824.389	26317
824.529	26313
824.669	26374
824.809	26530
824.949	26469
825.089	26423
825.228	26377
825.368	26278
825.508	26358
825.648	26267
825.787	26404
825.927	26183
826.067	26313
826.206	26134
826.346	26244
826.485	26347
826.625	26233
826.765	26343
826.904	26237
827.044	25909
827.183	25902
827.323	25989
827.462	26054
827.601	26024
827.741	26005
827.88	25970
828.02	25868
828.159	25959
828.298	25997
828.437	25986
828.577	25970
828.716	26035
828.855	26054
828.994	25559
829.134	25563
829.273	25628
829.412	25548
829.551	25491
829.69	25742
829.829	25597
829.968	25700
830.107	25780
830.246	25704
830.385	25594
830.524	25563
830.663	25506
830.802	25285
830.941	25244
831.08	25156
831.219	25209
831.357	25301
831.496	25449
831.635	25247
831.774	25217
831.913	25023
832.051	24954
832.19	25023
832.329	24920
832.467	24867
832.606	24776
832.744	24886
832.883	24863
833.022	24738
833.16	24882
833.299	24848
833.437	25137
833.576	24985
833.714	24966
833.852	25084
833.991	25050
834.129	25099
834.267	25076
834.406	24905
834.544	25050
834.682	24916
834.821	24935
834.959	25232
835.097	24920
835.235	25050
835.373	24871
835.511	24916
835.65	24878
835.788	24829
835.926	24753
836.064	24623
836.202	24681
836.34	24783
836.478	24905
836.615	24707
836.753	24814
836.891	24825
837.029	24844
837.167	24814
837.305	24677
837.443	24597
837.58	24593
837.718	24776
837.856	24646
837.993	24601
838.131	24741
838.269	24544
838.406	24597
838.544	24445
838.681	24296
838.819	24296
838.956	24011
839.094	24083
839.231	24213
839.369	24308
839.506	24505
839.643	24281
839.781	24053
839.918	23992
840.055	24133
840.193	24072
840.33	23973
840.467	24106
840.604	24136
840.742	24323
840.879	23764
841.016	23828
841.153	23786
841.29	24163
841.427	24026
841.564	24114
841.701	23916
841.838	23950
841.975	23836
842.112	23973
842.249	23912
842.385	23775
842.522	23885
842.659	23885
842.796	23691
842.933	23760
843.069	23729
843.206	23630
843.343	23840
843.479	23786
843.616	23756
843.752	23619
843.889	23710
844.025	23653
844.162	23585
844.298	23619
844.435	23417
844.571	23531
844.708	23539
844.844	23745
844.98	23680
845.117	23577
845.253	23463
845.389	23402
845.525	23501
845.661	23364
845.798	23235
845.934	23368
846.07	23250
846.206	23395
846.342	23414
846.478	23318
846.614	23079
846.75	22946
846.886	22862
847.022	23132
847.158	23079
847.294	23018
847.429	23178
847.565	22999
847.701	23185
847.837	22721
847.972	22653
848.108	22862
848.244	22733
848.379	22664
848.515	22634
848.65	22481
848.786	22706
848.921	22691
849.057	22660
849.192	22736
849.328	22702
849.463	22679
849.598	22542
849.734	22481
849.869	22565
850.004	22436
850.14	22341
850.275	22246
850.41	22379
850.545	22284
850.68	22226
850.815	22291
850.95	22360
851.085	22489
851.22	22542
851.355	22367
851.49	22436
851.625	22299
851.76	22280
851.895	22284
852.03	22303
852.165	22299
852.299	22443
852.434	22470
852.569	22432
852.703	22306
852.838	22371
852.973	22500
853.107	22459
853.242	22337
853.376	22173
853.511	22006
853.645	22242
853.78	22200
853.914	22166
854.048	22097
854.183	22112
854.317	22188
854.451	22367
854.585	22211
854.72	22173
854.854	22280
854.988	22249
855.122	22192
855.256	22051
855.39	22150
855.524	22314
855.658	22185
855.792	22242
855.926	22154
856.06	22272
856.194	22207
856.327	22257
856.461	22074
856.595	22135
856.729	22226
856.862	22226
856.996	22303
857.13	22306
857.263	22204
857.397	22360
857.53	22234
857.664	22215
857.797	22310
857.931	22329
858.064	22185
858.197	22318
858.331	22169
858.464	22044
858.597	22059
858.731	22048
858.864	22086
858.997	22112
859.13	22188
859.263	22291
859.396	22303
859.529	22230
859.662	22036
859.795	22078
859.928	22135
860.061	22386
860.194	22550
860.327	22200
860.46	22242
860.592	22238
860.725	22382
860.858	22272
860.99	22131
861.123	22097
861.256	22063
861.388	22215
861.521	22881
861.653	22097
861.786	21964
861.918	22032
862.05	22181
862.183	22131
862.315	22143
862.447	22234
862.58	22025
862.712	22021
862.844	21892
862.976	21918
863.108	21876
863.24	22352
863.372	21812
863.504	21835
863.636	21979
863.768	21892
863.9	21842
864.032	21850
864.164	21865
864.296	21861
864.428	21987
864.559	22010
864.691	22032
864.823	21892
864.954	21960
865.086	21766
865.217	21781
865.349	21739
865.48	21614
865.612	21812
865.743	21941
865.875	21846
866.006	21861
866.137	21755
866.269	21743
866.4	21701
866.531	21709
866.662	21618
866.793	21656
866.924	21785
867.055	21679
867.186	21797
867.317	21641
867.448	21648
867.579	21656
867.71	21618
867.841	21534
867.972	21816
868.103	21694
868.233	21629
868.364	21625
868.495	21930
868.625	21941
868.756	21975
868.886	21876
869.017	22002
869.147	21949
869.278	22063
869.408	22086
869.539	21945
869.669	21949
869.799	22109
869.929	22090
870.06	22040
870.19	22306
870.32	22158
870.45	22257
870.58	22402
870.71	22409
870.84	22447
870.97	22329
871.1	22356
871.23	22489
871.36	22679
871.489	22341
871.619	22584
871.749	22523
871.879	22630
872.008	22626
872.138	22550
872.267	22466
872.397	22447
872.526	22436
872.656	22398
872.785	22371
872.915	22584
873.044	22649
873.173	22645
873.303	22599
873.432	22653
873.561	22752
873.69	22538
873.819	22577
873.948	22653
874.077	22497
874.206	22561
874.335	22531
874.464	22672
874.593	22904
874.722	22873
874.851	22831
874.979	22866
875.108	22831
875.237	22767
875.365	22679
875.494	22683
875.623	22778
875.751	22805
875.88	22858
876.008	22904
876.136	23014
876.265	23216
876.393	23193
876.521	23220
876.65	23311
876.778	23181
876.906	23170
877.034	23060
877.162	23162
877.29	23064
877.418	23189
877.546	23155
877.674	23109
877.802	23102
877.93	23102
878.058	23170
878.185	22984
878.313	23029
878.441	23014
878.568	23037
878.696	23018
878.824	23128
878.951	23223
879.079	23334
879.206	23463
879.333	23345
879.461	23052
879.588	23254
879.715	23261
879.842	23501
879.97	23269
880.097	23010
880.224	22972
880.351	23003
880.478	23018
880.605	22942
880.732	22946
880.859	23166
880.986	22885
881.112	22957
881.239	22881
881.366	22698
881.493	22679
881.619	22500
881.746	22634
881.872	22580
881.999	22504
882.125	22481
882.252	22535
882.378	22523
882.505	22653
882.631	22489
882.757	22226
882.883	22352
883.01	22200
883.136	22204
883.262	22093
883.388	21972
883.514	22120
883.64	22204
883.766	22181
883.892	21857
884.018	21960
884.143	22048
884.269	22181
884.395	22044
884.52	21743
884.646	21975
884.772	21827
884.897	21838
885.023	21819
885.148	21945
885.274	21915
885.399	21987
885.524	21819
885.65	21876
885.775	21850
885.9	21732
886.025	21854
886.15	21903
886.275	21705
886.4	21705
886.525	21816
886.65	21732
886.775	21789
886.9	21861
887.025	21888
887.149	21739
887.274	21576
887.399	21580
887.523	21595
887.648	21587
887.773	21424
887.897	21698
888.021	21739
888.146	21622
888.27	21660
888.395	21614
888.519	21610
888.643	21648
888.767	21580
888.891	21447
889.015	21458
889.139	21424
889.263	21294
889.387	21439
889.511	21633
889.635	21568
889.759	21416
889.883	21382
890.006	21348
890.13	21374
890.254	21382
890.377	21355
890.501	21131
890.624	21169
890.748	21119
890.871	21036
890.995	20975
891.118	20952
891.241	21039
891.364	20963
891.488	21089
891.611	21104
891.734	20929
891.857	21005
891.98	20979
892.103	20929
892.226	21036
892.349	20849
892.471	20853
892.594	20811
892.717	20925
892.839	20823
892.962	20765
893.085	20975
893.207	20891
893.33	20693
893.452	20705
893.575	20758
893.697	20712
893.819	21123
893.941	21013
894.064	20952
894.186	20899
894.308	20796
894.43	20921
894.552	20864
894.674	20902
894.796	20743
894.918	20720
895.04	20590
895.161	20830
895.283	20800
895.405	20796
895.526	20781
895.648	20861
895.769	20781
895.891	20842
896.012	21017
896.134	20857
896.255	20880
896.376	20765
896.498	20750
896.619	20921
896.74	20697
896.861	21017
896.982	21036
897.103	21279
897.224	21127
897.345	21066
897.466	20990
897.587	21070
897.708	21203
897.828	21020
897.949	20925
898.07	20735
898.19	20975
898.311	21176
898.431	20906
898.552	20948
898.672	21176
898.792	21119
898.913	21024
899.033	20845
899.153	20857
899.273	20651
899.393	20830
899.513	20788
899.633	20735
899.753	20746
899.873	20682
899.993	20674
900.113	20678
900.232	20667
900.352	20739
900.472	20609
900.591	20526
900.711	20499
900.83	20476
900.95	20492
901.069	20590
901.189	20381
901.308	20164
901.427	20073
901.546	20221
901.665	20142
901.784	20088
901.904	20039
902.023	19890
902.141	19723
902.26	19559
902.379	19635
902.498	19575
902.617	19525
902.735	19632
902.854	19651
902.973	19476
903.091	19396
903.21	19171
903.328	19289
903.446	19194
903.565	19015
903.683	19107
903.801	18977
903.919	18962
904.038	19019
904.156	18882
904.274	18848
904.392	18859
904.51	18768
904.627	18783
904.745	18901
904.863	18791
904.981	18578
905.098	18445
905.216	18540
905.334	18509
905.451	18467
905.569	18369
905.686	18479
905.803	18426
905.921	18289
906.038	18525
906.155	18213
906.272	18216
906.389	18136
906.506	18045
906.623	18087
906.74	18045
906.857	17939
906.974	17870
907.091	17992
907.208	18125
907.324	18076
907.441	17950
907.557	17710
907.674	17824
907.79	17703
907.907	17771
908.023	17687
908.139	17836
908.256	17714
908.372	17722
908.488	17497
908.604	17551
908.72	17425
908.836	17482
908.952	17444
909.068	17474
909.184	17532
909.3	17512
909.415	17520
909.531	17444
909.647	17227
909.762	17143
909.878	17067
909.993	17113
910.108	17178
910.224	17041
910.339	17014
910.454	16904
910.57	16915
910.685	16946
910.8	17037
910.915	16995
911.03	17033
911.145	16801
911.259	16778
911.374	16626
911.489	16580
911.604	16569
911.718	16512
911.833	16584
911.947	16306
912.062	16421
912.176	16447
912.291	16565
912.405	16459
912.519	16725
912.633	16717
912.748	16481
912.862	16451
912.976	16306
913.09	16192
913.204	16200
913.318	16421
913.431	16474
913.545	16367
913.659	16428
913.772	16219
913.886	16200
914	16055
914.113	16234
914.226	16234
914.34	16158
914.453	16029
914.566	16131
914.68	16029
914.793	15991
914.906	15751
915.019	15804
915.132	15675
915.245	15705
915.358	15781
915.47	15766
915.583	15720
915.696	15671
915.809	15800
915.921	15781
916.034	15682
916.146	15648
916.259	15644
916.371	15759
916.483	15732
916.595	15523
916.708	15534
916.82	15549
916.932	15435
917.044	15496
917.156	15545
917.268	15317
917.38	15439
917.491	15348
917.603	15230
917.715	15466
917.826	15450
917.938	15344
918.049	15252
918.161	15211
918.272	15405
918.384	15408
918.495	15245
918.606	15142
918.717	15013
918.828	15180
918.939	15093
919.05	15100
919.161	15070
919.272	14914
919.383	14960
919.494	15047
919.604	15283
919.715	15150
919.826	15123
919.936	15051
920.047	15058
920.157	14998
920.267	15192
920.378	15043
920.488	14948
920.598	15195
920.708	15355
920.818	15184
920.928	15169
921.038	15264
921.148	15237
921.258	14899
921.368	14891
921.477	14716
921.587	14769
921.697	14636
921.806	14823
921.916	14606
922.025	14530
922.134	14450
922.244	14427
922.353	14427
922.462	14183
922.571	14149
922.68	14119
922.789	13989
922.898	14062
923.007	14024
923.116	14065
923.224	14024
923.333	14039
923.442	13940
923.55	13902
923.659	13955
923.767	13928
923.876	13772
923.984	13883
924.092	13757
924.201	13822
924.309	13799
924.417	13833
924.525	13662
924.633	13765
924.741	14431
924.849	13628
924.956	13544
925.064	13495
925.172	13426
925.279	13483
925.387	13407
925.494	13365
925.602	13495
925.709	13495
925.816	13400
925.924	13343
926.031	13460
926.138	13381
926.245	13388
926.352	13240
926.459	13441
926.566	13457
926.673	13343
926.779	13187
926.886	13198
926.993	13103
927.099	12996
927.206	12943
927.312	12947
927.419	13012
927.525	12996
927.631	13008
927.737	12844
927.843	12840
927.95	12719
928.056	12722
928.162	12840
928.267	12894
928.373	13468
928.479	12779
928.585	12688
928.69	12783
928.796	12814
928.901	12662
929.007	12490
929.112	12578
929.218	12593
929.323	12521
929.428	12513
929.533	12642
929.638	12464
929.743	12410
929.848	12502
929.953	12445
930.058	12365
930.163	12186
930.267	12178
930.372	12342
930.477	12152
930.581	12342
930.685	12277
930.79	12125
930.894	12076
930.998	11908
931.103	12167
931.207	11794
931.311	11707
931.415	11737
931.519	11410
931.623	11360
