Data from test_V78500241_2377.txt Node
Date: Fri Mar 25 15:58:16 CST 2022
User: usil
Spectrometer: V785-0024
Trigger mode: 0
Integration Time (sec): 4.000000E-1
Scans to average: 1
Nonlinearity correction enabled: false
Boxcar width: 0
Storing dark spectrum: false
XAxis mode: Wavelengths
Number of Pixels in Spectrum: 1024
>>>>>Begin Spectral Data<<<<<
801.071	28801
801.214	28782
801.356	28744
801.499	28653
801.641	28519
801.783	28519
801.926	28493
802.068	28512
802.211	28451
802.353	28306
802.496	28371
802.638	28325
802.78	28242
802.923	28143
803.065	28139
803.208	28257
803.35	28230
803.492	28409
803.635	28405
803.777	28329
803.919	28424
804.061	28774
804.204	28489
804.346	28409
804.488	28455
804.63	28554
804.773	28348
804.915	28519
805.057	28577
805.199	28516
805.341	28508
805.483	28622
805.626	28717
805.768	28504
805.91	28752
806.052	28679
806.194	28550
806.336	28755
806.478	28706
806.62	28512
806.762	28729
806.904	28904
807.046	29208
807.188	29064
807.33	29231
807.472	29105
807.614	29052
807.756	29094
807.898	28896
808.04	28873
808.182	28801
808.324	28995
808.465	29048
808.607	29151
808.749	29296
808.891	29307
809.033	29562
809.174	29452
809.316	29307
809.458	29326
809.6	29334
809.741	29341
809.883	29440
810.025	29497
810.166	29509
810.308	29627
810.45	29589
810.591	29486
810.733	29303
810.875	29398
811.016	29231
811.158	29322
811.299	29433
811.441	29509
811.582	29531
811.724	29406
811.865	29250
812.007	29375
812.148	29345
812.29	29349
812.431	29649
812.573	29722
812.714	29813
812.855	29878
812.997	30091
813.138	30091
813.279	29931
813.421	29893
813.562	29813
813.703	29646
813.845	29520
813.986	29273
814.127	29075
814.268	29162
814.41	29041
814.551	29151
814.692	29086
814.833	28984
814.974	28904
815.115	29140
815.256	28938
815.397	29029
815.539	28900
815.68	28915
815.821	28733
815.962	29056
816.103	28778
816.244	28820
816.385	28649
816.526	28596
816.666	28401
816.807	28333
816.948	28474
817.089	28512
817.23	28390
817.371	28329
817.512	28470
817.653	28287
817.793	28314
817.934	28333
818.075	28398
818.216	28440
818.356	28352
818.497	28261
818.638	28219
818.778	28036
818.919	28101
819.06	28234
819.2	28341
819.341	28348
819.481	28493
819.622	28497
819.762	28565
819.903	28637
820.043	28508
820.184	28459
820.324	28599
820.465	28668
820.605	28371
820.746	28413
820.886	28485
821.026	28504
821.167	28538
821.307	28584
821.447	28382
821.588	28265
821.728	28128
821.868	28109
822.008	27755
822.149	27720
822.289	27793
822.429	27652
822.569	27534
822.709	27603
822.849	27450
822.99	27325
823.13	27378
823.27	27393
823.41	27405
823.55	26990
823.69	27363
823.83	27275
823.97	27131
824.11	27058
824.25	27032
824.389	26914
824.529	27077
824.669	27093
824.809	27051
824.949	27203
825.089	27085
825.228	27074
825.368	26697
825.508	26838
825.648	26899
825.787	26952
825.927	26982
826.067	26883
826.206	26876
826.346	26960
826.485	27062
826.625	26918
826.765	26979
826.904	26925
827.044	26739
827.183	26750
827.323	26731
827.462	26731
827.601	26617
827.741	26655
827.88	26670
828.02	26552
828.159	26678
828.298	26590
828.437	26579
828.577	26568
828.716	26720
828.855	26568
828.994	26286
829.134	26419
829.273	26381
829.412	26385
829.551	26256
829.69	26351
829.829	26324
829.968	26412
830.107	26446
830.246	26267
830.385	26244
830.524	26248
830.663	26039
830.802	25928
830.941	25875
831.08	25963
831.219	25887
831.357	26001
831.496	26172
831.635	25807
831.774	25784
831.913	25856
832.051	25715
832.19	25803
832.329	25761
832.467	25723
832.606	25510
832.744	25487
832.883	25502
833.022	25472
833.16	25639
833.299	25620
833.437	25571
833.576	25757
833.714	25674
833.852	25708
833.991	25791
834.129	25582
834.267	25734
834.406	25643
834.544	25712
834.682	25811
834.821	25632
834.959	25799
835.097	25514
835.235	25647
835.373	25727
835.511	25616
835.65	25521
835.788	25403
835.926	25316
836.064	25346
836.202	25316
836.34	25499
836.478	25525
836.615	25377
836.753	25552
836.891	25434
837.029	25575
837.167	25354
837.305	25411
837.443	25331
837.58	25316
837.718	25358
837.856	25259
837.993	25129
838.131	25263
838.269	25080
838.406	25209
838.544	25217
838.681	24947
838.819	24977
838.956	24692
839.094	24715
839.231	24875
839.369	24875
839.506	25080
839.643	24947
839.781	24768
839.918	24673
840.055	24700
840.193	24753
840.33	24574
840.467	24498
840.604	24776
840.742	24863
840.879	24646
841.016	24646
841.153	24479
841.29	24703
841.427	24616
841.564	24547
841.701	24547
841.838	24456
841.975	24418
842.112	24540
842.249	24353
842.385	24448
842.522	24589
842.659	24414
842.796	24361
842.933	24407
843.069	24365
843.206	24369
843.343	24418
843.479	24410
843.616	24399
843.752	24251
843.889	24076
844.025	24197
844.162	24190
844.298	24114
844.435	24167
844.571	24213
844.708	24209
844.844	24338
844.98	24270
845.117	24216
845.253	24133
845.389	24159
845.525	24015
845.661	23965
845.798	23973
845.934	24110
846.07	23798
846.206	23889
846.342	24026
846.478	23783
846.614	23741
846.75	23710
846.886	23661
847.022	23646
847.158	23630
847.294	23668
847.429	23710
847.565	23615
847.701	23817
847.837	23433
847.972	23433
848.108	23478
848.244	23395
848.379	23216
848.515	23193
848.65	23208
848.786	23280
848.921	23189
849.057	23414
849.192	23376
849.328	23250
849.463	23109
849.598	23280
849.734	23124
849.869	23121
850.004	23071
850.14	22995
850.275	22980
850.41	22858
850.545	22953
850.68	22900
850.815	22995
850.95	22915
851.085	23170
851.22	23147
851.355	22972
851.49	22889
851.625	22854
851.76	22968
851.895	22858
852.03	22885
852.165	22968
852.299	22980
852.434	23075
852.569	22915
852.703	22987
852.838	23003
852.973	23109
853.107	23140
853.242	22900
853.376	22824
853.511	22729
853.645	22706
853.78	22835
853.914	22759
854.048	22736
854.183	22752
854.317	22702
854.451	23041
854.585	22915
854.72	22797
854.854	22877
854.988	22752
855.122	22702
855.256	22713
855.39	22828
855.524	22847
855.658	22805
855.792	22740
855.926	22793
856.06	22790
856.194	22858
856.327	22790
856.461	22729
856.595	22752
856.729	22721
856.862	22831
856.996	22797
857.13	22790
857.263	22839
857.397	22835
857.53	22835
857.664	22706
857.797	22763
857.931	22729
858.064	22847
858.197	22790
858.331	22782
858.464	22786
858.597	22596
858.731	22736
858.864	22687
858.997	22782
859.13	22938
859.263	22847
859.396	22927
859.529	22664
859.662	22824
859.795	22691
859.928	22748
860.061	22919
860.194	22953
860.327	22881
860.46	22698
860.592	22790
860.725	22816
860.858	22949
860.99	22767
861.123	22698
861.256	22763
861.388	22809
861.521	23486
861.653	22691
861.786	22687
861.918	22618
862.05	22782
862.183	22675
862.315	22683
862.447	22755
862.58	22622
862.712	22519
862.844	22470
862.976	22672
863.108	22557
863.24	22968
863.372	22409
863.504	22500
863.636	22424
863.768	22447
863.9	22519
864.032	22413
864.164	22451
864.296	22512
864.428	22588
864.559	22497
864.691	22428
864.823	22516
864.954	22527
865.086	22443
865.217	22333
865.349	22314
865.48	22394
865.612	22394
865.743	22523
865.875	22318
866.006	22291
866.137	22337
866.269	22447
866.4	22291
866.531	22291
866.662	22352
866.793	22230
866.924	22356
867.055	22314
867.186	22295
867.317	22272
867.448	22242
867.579	22268
867.71	22097
867.841	22261
867.972	22261
868.103	22360
868.233	22295
868.364	22242
868.495	22390
868.625	22485
868.756	22702
868.886	22508
869.017	22470
869.147	22542
869.278	22774
869.408	22538
869.539	22607
869.669	22596
869.799	22603
869.929	22634
870.06	22538
870.19	22908
870.32	22721
870.45	22812
870.58	22942
870.71	22908
870.84	23071
870.97	22942
871.1	22862
871.23	23090
871.36	23113
871.489	23052
871.619	23166
871.749	23105
871.879	23162
872.008	23349
872.138	23094
872.267	23136
872.397	22976
872.526	22877
872.656	23003
872.785	23010
872.915	23242
873.044	23189
873.173	23280
873.303	23204
873.432	23086
873.561	23212
873.69	23048
873.819	23079
873.948	23102
874.077	23178
874.206	23086
874.335	23151
874.464	23360
874.593	23459
874.722	23303
874.851	23360
874.979	23383
875.108	23307
875.237	23334
875.365	23220
875.494	23360
875.623	23501
875.751	23425
875.88	23334
876.008	23493
876.136	23509
876.265	23783
876.393	23783
876.521	23851
876.65	23889
876.778	23760
876.906	23668
877.034	23741
877.162	23710
877.29	23596
877.418	23676
877.546	23695
877.674	23672
877.802	23623
877.93	23775
878.058	23707
878.185	23547
878.313	23608
878.441	23577
878.568	23376
878.696	23718
878.824	23767
878.951	23786
879.079	23809
879.206	23973
879.333	23870
879.461	23699
879.588	23836
879.715	23729
879.842	23878
879.97	23729
880.097	23455
880.224	23520
880.351	23448
880.478	23501
880.605	23512
880.732	23566
880.859	23722
880.986	23509
881.112	23482
881.239	23376
881.366	23151
881.493	23178
881.619	23010
881.746	23147
881.872	23029
881.999	23083
882.125	23075
882.252	23124
882.378	23033
882.505	23083
882.631	22957
882.757	22698
882.883	22797
883.01	22615
883.136	22634
883.262	22573
883.388	22424
883.514	22710
883.64	22717
883.766	22546
883.892	22447
884.018	22508
884.143	22618
884.269	22717
884.395	22402
884.52	22344
884.646	22356
884.772	22299
884.897	22234
885.023	22329
885.148	22436
885.274	22478
885.399	22421
885.524	22333
885.65	22371
885.775	22367
885.9	22337
886.025	22413
886.15	22382
886.275	22223
886.4	22325
886.525	22341
886.65	22185
886.775	22169
886.9	22386
887.025	22459
887.149	22166
887.274	22219
887.399	22131
887.523	22280
887.648	22017
887.773	22093
887.897	22109
888.021	22181
888.146	22021
888.27	22169
888.395	22230
888.519	22162
888.643	22029
888.767	22173
888.891	22082
889.015	21918
889.139	22086
889.263	21880
889.387	21968
889.511	22219
889.635	22059
889.759	21926
889.883	21934
890.006	22044
890.13	21983
890.254	21781
890.377	21751
890.501	21641
890.624	21610
890.748	21591
890.871	21564
890.995	21530
891.118	21488
891.241	21462
891.364	21454
891.488	21583
891.611	21599
891.734	21405
891.857	21420
891.98	21450
892.103	21515
892.226	21405
892.349	21344
892.471	21230
892.594	21344
892.717	21401
892.839	21359
892.962	21321
893.085	21405
893.207	21382
893.33	21195
893.452	21199
893.575	21325
893.697	21241
893.819	21439
893.941	21515
894.064	21397
894.186	21260
894.308	21131
894.43	21477
894.552	21431
894.674	21469
894.796	21184
894.918	21340
895.04	21291
895.161	21275
895.283	21340
895.405	21211
895.526	21275
895.648	21340
895.769	21405
895.891	21321
896.012	21252
896.134	21332
896.255	21184
896.376	21211
896.498	21195
896.619	21348
896.74	21230
896.861	21268
896.982	21701
897.103	21755
897.224	21587
897.345	21538
897.466	21481
897.587	21481
897.708	21595
897.828	21519
897.949	21469
898.07	21252
898.19	21424
898.311	21599
898.431	21405
898.552	21355
898.672	21675
898.792	21599
898.913	21473
899.033	21340
899.153	21325
899.273	21241
899.393	21325
899.513	21386
899.633	21329
899.753	21169
899.873	21150
899.993	21241
900.113	21195
900.232	21237
900.352	21131
900.472	21081
900.591	21005
900.711	20979
900.83	20883
900.95	20967
901.069	21241
901.189	20842
901.308	20587
901.427	20537
901.546	20583
901.665	20450
901.784	20503
901.904	20499
902.023	20191
902.141	20138
902.26	20050
902.379	20088
902.498	20103
902.617	20020
902.735	20012
902.854	20043
902.973	19951
903.091	19769
903.21	19723
903.328	19632
903.446	19632
903.565	19544
903.683	19586
903.801	19419
903.919	19476
904.038	19521
904.156	19350
904.274	19270
904.392	19247
904.51	19255
904.627	19190
904.745	19327
904.863	19194
904.981	19080
905.098	18985
905.216	18939
905.334	18913
905.451	18909
905.569	18962
905.686	18981
905.803	18932
905.921	18684
906.038	18764
906.155	18760
906.272	18646
906.389	18536
906.506	18460
906.623	18498
906.74	18441
906.857	18323
906.974	18319
907.091	18593
907.208	18635
907.324	18544
907.441	18475
907.557	18190
907.674	18194
907.79	18140
907.907	18121
908.023	18125
908.139	18140
908.256	18098
908.372	17920
908.488	18068
908.604	17961
908.72	17817
908.836	17813
908.952	17748
909.068	17965
909.184	17988
909.3	17866
909.415	17961
909.531	17722
909.647	17646
909.762	17604
909.878	17467
909.993	17554
910.108	17509
910.224	17486
910.339	17535
910.454	17444
910.57	17330
910.685	17376
910.8	17478
910.915	17425
911.03	17349
911.145	17155
911.259	17086
911.374	17117
911.489	16987
911.604	16995
911.718	16919
911.833	16946
911.947	16889
912.062	16672
912.176	16927
912.291	16824
912.405	16858
912.519	17052
912.633	16923
912.748	16965
912.862	16911
912.976	16774
913.09	16603
913.204	16725
913.318	16687
913.431	16698
913.545	16831
913.659	16801
913.772	16687
913.886	16455
914	16489
914.113	16451
914.226	16618
914.34	16546
914.453	16329
914.566	16535
914.68	16310
914.793	16253
914.906	16071
915.019	16135
915.132	15994
915.245	16109
915.358	16154
915.47	16166
915.583	16112
915.696	15968
915.809	16093
915.921	16109
916.034	16048
916.146	15945
916.259	15956
916.371	15956
916.483	15960
916.595	15838
916.708	15907
916.82	15873
916.932	15766
917.044	15816
917.156	15743
917.268	15637
917.38	15736
917.491	15599
917.603	15614
917.715	15755
917.826	15690
917.938	15610
918.049	15519
918.161	15584
918.272	15682
918.384	15736
918.495	15591
918.606	15389
918.717	15431
918.828	15488
918.939	15447
919.05	15256
919.161	15332
919.272	15165
919.383	15207
919.494	15496
919.604	15599
919.715	15291
919.826	15176
919.936	15260
920.047	15344
920.157	15405
920.267	15500
920.378	15412
920.488	15416
920.598	15591
920.708	15747
920.818	15389
920.928	15447
921.038	15637
921.148	15526
921.258	15264
921.368	15199
921.477	15047
921.587	15001
921.697	14941
921.806	15123
921.916	14883
922.025	14686
922.134	14705
922.244	14530
922.353	14724
922.462	14537
922.571	14480
922.68	14389
922.789	14290
922.898	14290
923.007	14244
923.116	14328
923.224	14267
923.333	14237
923.442	14088
923.55	14142
923.659	14111
923.767	14130
923.876	14073
923.984	14214
924.092	14001
924.201	14092
924.309	14069
924.417	14100
924.525	13989
924.633	13955
924.741	14899
924.849	13811
924.956	13955
925.064	13700
925.172	13677
925.279	13700
925.387	13681
925.494	13693
925.602	13849
925.709	13685
925.816	13594
925.924	13655
926.031	13811
926.138	13632
926.245	13693
926.352	13548
926.459	13620
926.566	13582
926.673	13529
926.779	13400
926.886	13343
926.993	13251
927.099	13297
927.206	13137
927.312	13175
927.419	13213
927.525	13251
927.631	13259
927.737	13107
927.843	13050
927.95	13057
928.056	13027
928.162	13053
928.267	13027
928.373	13734
928.479	13129
928.585	12943
928.69	12951
928.796	13000
928.901	12882
929.007	12738
929.112	12928
929.218	12852
929.323	12829
929.428	12764
929.533	12741
929.638	12684
929.743	12715
929.848	12810
929.953	12654
930.058	12570
930.163	12483
930.267	12544
930.372	12540
930.477	12380
930.581	12536
930.685	12441
930.79	12182
930.894	12178
930.998	12258
931.103	12380
931.207	12041
931.311	12015
931.415	11836
931.519	11695
931.623	11592
