Data from test_V78500241_155.txt Node
Date: Fri Mar 25 15:42:52 CST 2022
User: usil
Spectrometer: V785-0024
Trigger mode: 0
Integration Time (sec): 4.000000E-1
Scans to average: 1
Nonlinearity correction enabled: false
Boxcar width: 0
Storing dark spectrum: false
XAxis mode: Wavelengths
Number of Pixels in Spectrum: 1024
>>>>>Begin Spectral Data<<<<<
801.071	29402
801.214	29478
801.356	29117
801.499	29071
801.641	29056
801.783	28942
801.926	28949
802.068	28888
802.211	28847
802.353	28942
802.496	28584
802.638	28489
802.78	28573
802.923	28523
803.065	28474
803.208	28588
803.35	28497
803.492	28573
803.635	28702
803.777	28535
803.919	28649
804.061	29071
804.204	28683
804.346	28626
804.488	28550
804.63	28637
804.773	28481
804.915	28599
805.057	28702
805.199	28497
805.341	28744
805.483	28839
805.626	28565
805.768	28717
805.91	28656
806.052	28717
806.194	28736
806.336	29003
806.478	28824
806.62	28717
806.762	28778
806.904	28961
807.046	29269
807.188	29044
807.33	29136
807.472	29288
807.614	29067
807.756	29136
807.898	28782
808.04	28877
808.182	28942
808.324	28900
808.465	28915
808.607	29147
808.749	29315
808.891	29474
809.033	29459
809.174	29425
809.316	29193
809.458	29334
809.6	29071
809.741	29375
809.883	29467
810.025	29596
810.166	29512
810.308	29547
810.45	29501
810.591	29421
810.733	29254
810.875	29143
811.016	29117
811.158	29162
811.299	29360
811.441	29467
811.582	29360
811.724	29318
811.865	29208
812.007	29151
812.148	29200
812.29	29200
812.431	29395
812.573	29490
812.714	29505
812.855	29741
812.997	29714
813.138	29855
813.279	29714
813.421	29695
813.562	29512
813.703	29482
813.845	29444
813.986	29155
814.127	29079
814.268	28797
814.41	28759
814.551	28748
814.692	28934
814.833	28820
814.974	28748
815.115	28824
815.256	28694
815.397	28561
815.539	28660
815.68	28466
815.821	28512
815.962	28535
816.103	28630
816.244	28485
816.385	28352
816.526	28356
816.666	28067
816.807	27994
816.948	28105
817.089	28181
817.23	28017
817.371	28013
817.512	27956
817.653	28105
817.793	27937
817.934	27876
818.075	27941
818.216	27911
818.356	27899
818.497	27789
818.638	27671
818.778	27603
818.919	27682
819.06	27850
819.2	27876
819.341	27785
819.481	27819
819.622	27972
819.762	28192
819.903	28219
820.043	28059
820.184	28097
820.324	27880
820.465	27930
820.605	28013
820.746	28021
820.886	27705
821.026	28006
821.167	27892
821.307	28032
821.447	27960
821.588	27717
821.728	27644
821.868	27454
822.008	27310
822.149	27264
822.289	27363
822.429	27100
822.569	27043
822.709	26902
822.849	26796
822.99	26804
823.13	26750
823.27	26743
823.41	26560
823.55	26461
823.69	26495
823.83	26484
823.97	26526
824.11	26298
824.25	26309
824.389	26362
824.529	26389
824.669	26427
824.809	26564
824.949	26317
825.089	26530
825.228	26457
825.368	26210
825.508	26206
825.648	26240
825.787	26240
825.927	26225
826.067	26199
826.206	26229
826.346	26122
826.485	26134
826.625	26240
826.765	26355
826.904	26206
827.044	25890
827.183	25776
827.323	25765
827.462	25875
827.601	25833
827.741	25970
827.88	25936
828.02	25632
828.159	25791
828.298	25769
828.437	25738
828.577	25674
828.716	25989
828.855	25696
828.994	25518
829.134	25499
829.273	25403
829.412	25472
829.551	25259
829.69	25362
829.829	25537
829.968	25464
830.107	25506
830.246	25487
830.385	25411
830.524	25308
830.663	25289
830.802	25141
830.941	25050
831.08	25084
831.219	25103
831.357	25099
831.496	25160
831.635	25031
831.774	24840
831.913	24802
832.051	24920
832.19	24757
832.329	24779
832.467	24601
832.606	24669
832.744	24719
832.883	24692
833.022	24578
833.16	24722
833.299	24692
833.437	24631
833.576	24829
833.714	24635
833.852	24734
833.991	24715
834.129	24772
834.267	24597
834.406	24620
834.544	24696
834.682	24642
834.821	24566
834.959	24700
835.097	24669
835.235	24639
835.373	24665
835.511	24608
835.65	24391
835.788	24441
835.926	24342
836.064	24262
836.202	24327
836.34	24414
836.478	24559
836.615	24471
836.753	24494
836.891	24570
837.029	24452
837.167	24388
837.305	24308
837.443	24327
837.58	24266
837.718	24353
837.856	24300
837.993	24224
838.131	24228
838.269	24133
838.406	24239
838.544	24030
838.681	23840
838.819	23882
838.956	23691
839.094	23729
839.231	23809
839.369	23756
839.506	24011
839.643	23843
839.781	23695
839.918	23589
840.055	23634
840.193	23672
840.33	23372
840.467	23608
840.604	23657
840.742	23809
840.879	23421
841.016	23566
841.153	23543
841.29	23878
841.427	23444
841.564	23566
841.701	23649
841.838	23410
841.975	23486
842.112	23528
842.249	23379
842.385	23258
842.522	23471
842.659	23330
842.796	23155
842.933	23212
843.069	23204
843.206	23143
843.343	23341
843.479	23376
843.616	23121
843.752	23041
843.889	23060
844.025	23208
844.162	22995
844.298	23162
844.435	23037
844.571	23060
844.708	22999
844.844	23109
844.98	23109
845.117	23162
845.253	23079
845.389	22839
845.525	22869
845.661	22911
845.798	22771
845.934	22694
846.07	22702
846.206	22736
846.342	22881
846.478	22694
846.614	22504
846.75	22386
846.886	22554
847.022	22497
847.158	22508
847.294	22500
847.429	22462
847.565	22485
847.701	22668
847.837	22166
847.972	22181
848.108	22272
848.244	22150
848.379	22017
848.515	21926
848.65	21926
848.786	21998
848.921	22059
849.057	22139
849.192	21960
849.328	22055
849.463	21994
849.598	21857
849.734	21918
849.869	21850
850.004	21641
850.14	21698
850.275	21663
850.41	21739
850.545	21690
850.68	21709
850.815	21682
850.95	21793
851.085	21835
851.22	21759
851.355	21724
851.49	21648
851.625	21625
851.76	21728
851.895	21614
852.03	21515
852.165	21667
852.299	21778
852.434	21629
852.569	21812
852.703	21553
852.838	21728
852.973	21884
853.107	21865
853.242	21576
853.376	21591
853.511	21458
853.645	21294
853.78	21660
853.914	21500
854.048	21412
854.183	21473
854.317	21504
854.451	21667
854.585	21416
854.72	21473
854.854	21538
854.988	21443
855.122	21500
855.256	21370
855.39	21435
855.524	21705
855.658	21561
855.792	21450
855.926	21610
856.06	21542
856.194	21542
856.327	21374
856.461	21378
856.595	21420
856.729	21431
856.862	21526
856.996	21420
857.13	21534
857.263	21538
857.397	21549
857.53	21496
857.664	21473
857.797	21519
857.931	21591
858.064	21485
858.197	21492
858.331	21321
858.464	21420
858.597	21389
858.731	21424
858.864	21492
858.997	21275
859.13	21397
859.263	21359
859.396	21466
859.529	21336
859.662	21325
859.795	21275
859.928	21424
860.061	21606
860.194	21485
860.327	21519
860.46	21542
860.592	21507
860.725	21629
860.858	21504
860.99	21439
861.123	21283
861.256	21332
861.388	21397
861.521	21960
861.653	21264
861.786	21256
861.918	21291
862.05	21325
862.183	21523
862.315	21367
862.447	21435
862.58	21450
862.712	21260
862.844	21081
862.976	21199
863.108	21211
863.24	21481
863.372	21058
863.504	21051
863.636	21150
863.768	21211
863.9	21089
864.032	21055
864.164	21005
864.296	21070
864.428	21150
864.559	21169
864.691	21176
864.823	21100
864.954	21066
865.086	21081
865.217	20963
865.349	21062
865.48	21039
865.612	20975
865.743	21310
865.875	21055
866.006	21013
866.137	20982
866.269	21096
866.4	21005
866.531	20906
866.662	20944
866.793	20849
866.924	20941
867.055	20876
867.186	20876
867.317	20933
867.448	20921
867.579	20887
867.71	20785
867.841	20876
867.972	20998
868.103	20967
868.233	20967
868.364	20853
868.495	21169
868.625	21051
868.756	21222
868.886	21093
869.017	21150
869.147	21249
869.278	21249
869.408	21233
869.539	21252
869.669	21230
869.799	21135
869.929	21275
870.06	21192
870.19	21439
870.32	21454
870.45	21424
870.58	21526
870.71	21648
870.84	21587
870.97	21660
871.1	21610
871.23	21675
871.36	21694
871.489	21686
871.619	21717
871.749	21717
871.879	21831
872.008	21717
872.138	21705
872.267	21717
872.397	21625
872.526	21599
872.656	21504
872.785	21583
872.915	21755
873.044	21892
873.173	21789
873.303	21895
873.432	21880
873.561	21926
873.69	21785
873.819	21774
873.948	21903
874.077	21770
874.206	21743
874.335	21812
874.464	21854
874.593	21998
874.722	22006
874.851	22063
874.979	22086
875.108	22029
875.237	21968
875.365	21759
875.494	21972
875.623	22013
875.751	22101
875.88	22017
876.008	22097
876.136	22204
876.265	22436
876.393	22565
876.521	22413
876.65	22455
876.778	22360
876.906	22337
877.034	22299
877.162	22462
877.29	22276
877.418	22462
877.546	22390
877.674	22295
877.802	22398
877.93	22284
878.058	22177
878.185	22154
878.313	22333
878.441	22417
878.568	22196
878.696	22299
878.824	22481
878.951	22394
879.079	22535
879.206	22622
879.333	22440
879.461	22352
879.588	22371
879.715	22470
879.842	22565
879.97	22428
880.097	22234
880.224	22154
880.351	22204
880.478	22162
880.605	22074
880.732	22109
880.859	22421
880.986	22215
881.112	22063
881.239	22112
881.366	22078
881.493	21694
881.619	21663
881.746	21781
881.872	21793
881.999	21743
882.125	21679
882.252	21709
882.378	21739
882.505	21880
882.631	21793
882.757	21549
882.883	21591
883.01	21443
883.136	21344
883.262	21408
883.388	21298
883.514	21515
883.64	21561
883.766	21348
883.892	21169
884.018	21268
884.143	21325
884.269	21485
884.395	21233
884.52	21089
884.646	21184
884.772	20967
884.897	21028
885.023	21070
885.148	21332
885.274	21233
885.399	21203
885.524	21157
885.65	21127
885.775	21089
885.9	20990
886.025	21085
886.15	21116
886.275	21009
886.4	21020
886.525	21036
886.65	21062
886.775	20906
886.9	21241
887.025	21264
887.149	20944
887.274	20868
887.399	20948
887.523	20864
887.648	20823
887.773	20674
887.897	20887
888.021	20796
888.146	20621
888.27	20845
888.395	20963
888.519	20777
888.643	20849
888.767	20857
888.891	20750
889.015	20625
889.139	20705
889.263	20480
889.387	20773
889.511	20876
889.635	20731
889.759	20689
889.883	20644
890.006	20644
890.13	20625
890.254	20526
890.377	20514
890.501	20370
890.624	20263
890.748	20381
890.871	20336
890.995	20233
891.118	20172
891.241	20218
891.364	20252
891.488	20370
891.611	20206
891.734	20142
891.857	20267
891.98	20157
892.103	20164
892.226	20240
892.349	20039
892.471	20001
892.594	20195
892.717	20206
892.839	20119
892.962	20054
893.085	20164
893.207	20062
893.33	20016
893.452	19947
893.575	20195
893.697	20103
893.819	20343
893.941	20377
894.064	20286
894.186	20024
894.308	20065
894.43	20286
894.552	20233
894.674	20199
894.796	20005
894.918	20183
895.04	20054
895.161	20290
895.283	20172
895.405	20092
895.526	20119
895.648	20115
895.769	20210
895.891	20271
896.012	20142
896.134	20195
896.255	20317
896.376	20119
896.498	20176
896.619	20202
896.74	20199
896.861	20317
896.982	20609
897.103	20689
897.224	20393
897.345	20393
897.466	20317
897.587	20457
897.708	20514
897.828	20484
897.949	20320
898.07	20248
898.19	20282
898.311	20408
898.431	20263
898.552	20305
898.672	20366
898.792	20385
898.913	20336
899.033	20218
899.153	20111
899.273	20115
899.393	20024
899.513	20054
899.633	20016
899.753	20126
899.873	19993
899.993	20153
900.113	19906
900.232	19978
900.352	19959
900.472	19986
900.591	19875
900.711	19925
900.83	19723
900.95	19967
901.069	19925
901.189	19852
901.308	19620
901.427	19419
901.546	19506
901.665	19518
901.784	19396
901.904	19320
902.023	19190
902.141	19023
902.26	18989
902.379	19053
902.498	18935
902.617	18897
902.735	18894
902.854	18848
902.973	18795
903.091	18669
903.21	18536
903.328	18623
903.446	18471
903.565	18384
903.683	18414
903.801	18254
903.919	18342
904.038	18418
904.156	18057
904.274	18232
904.392	18205
904.51	18140
904.627	18015
904.745	18148
904.863	18148
904.981	17961
905.098	17771
905.216	17767
905.334	17752
905.451	17847
905.569	17786
905.686	17756
905.803	17802
905.921	17611
906.038	17726
906.155	17638
906.272	17539
906.389	17425
906.506	17322
906.623	17467
906.74	17299
906.857	17330
906.974	17246
907.091	17379
907.208	17391
907.324	17208
907.441	17261
907.557	17045
907.674	17132
907.79	16984
907.907	16927
908.023	17067
908.139	16991
908.256	16953
908.372	16919
908.488	16911
908.604	16778
908.72	16740
908.836	16717
908.952	16634
909.068	16752
909.184	16793
909.3	16603
909.415	16656
909.531	16668
909.647	16459
909.762	16493
909.878	16322
909.993	16352
910.108	16360
910.224	16268
910.339	16409
910.454	16219
910.57	16177
910.685	16173
910.8	16432
910.915	16303
911.03	16082
911.145	16032
911.259	15922
911.374	15953
911.489	15850
911.604	15793
911.718	15747
911.833	15705
911.947	15671
912.062	15644
912.176	15823
912.291	15793
912.405	15762
912.519	15972
912.633	15964
912.748	15739
912.862	15671
912.976	15633
913.09	15317
913.204	15458
913.318	15587
913.431	15701
913.545	15500
913.659	15610
913.772	15534
913.886	15473
914	15424
914.113	15401
914.226	15443
914.34	15359
914.453	15256
914.566	15268
914.68	15233
914.793	15252
914.906	15013
915.019	14914
915.132	14880
915.245	14868
915.358	14998
915.47	14872
915.583	15047
915.696	14941
915.809	15036
915.921	15036
916.034	14883
916.146	14941
916.259	14887
916.371	14971
916.483	14792
916.595	14743
916.708	14785
916.82	14811
916.932	14640
917.044	14762
917.156	14663
917.268	14674
917.38	14629
917.491	14571
917.603	14651
917.715	14682
917.826	14667
917.938	14469
918.049	14423
918.161	14480
918.272	14674
918.384	14636
918.495	14514
918.606	14465
918.717	14294
918.828	14355
918.939	14275
919.05	14278
919.161	14301
919.272	14081
919.383	14183
919.494	14324
919.604	14549
919.715	14328
919.826	14214
919.936	14389
920.047	14358
920.157	14229
920.267	14495
920.378	14347
920.488	14298
920.598	14442
920.708	14537
920.818	14438
920.928	14431
921.038	14552
921.148	14568
921.258	14221
921.368	14142
921.477	13997
921.587	13974
921.697	13986
921.806	13955
921.916	13841
922.025	13674
922.134	13772
922.244	13662
922.353	13708
922.462	13597
922.571	13464
922.68	13354
922.789	13278
922.898	13365
923.007	13225
923.116	13316
923.224	13251
923.333	13217
923.442	13168
923.55	13099
923.659	13194
923.767	13175
923.876	13069
923.984	13141
924.092	12943
924.201	13019
924.309	13019
924.417	12977
924.525	12989
924.633	13027
924.741	13738
924.849	12787
924.956	12867
925.064	12787
925.172	12616
925.279	12776
925.387	12798
925.494	12662
925.602	12821
925.709	12768
925.816	12700
925.924	12696
926.031	12753
926.138	12734
926.245	12741
926.352	12547
926.459	12692
926.566	12810
926.673	12544
926.779	12471
926.886	12376
926.993	12410
927.099	12334
927.206	12213
927.312	12197
927.419	12330
927.525	12254
927.631	12277
927.737	12152
927.843	12159
927.95	12110
928.056	12140
928.162	12133
928.267	12110
928.373	12722
928.479	12106
928.585	11931
928.69	12083
928.796	12068
928.901	11935
929.007	11817
929.112	11969
929.218	11984
929.323	11870
929.428	11764
929.533	11935
929.638	11764
929.743	11813
929.848	11771
929.953	11809
930.058	11676
930.163	11600
930.267	11554
930.372	11581
930.477	11433
930.581	11710
930.685	11547
930.79	11395
930.894	11463
930.998	11356
931.103	11452
931.207	11197
931.311	11060
931.415	11041
931.519	10854
931.623	10782
