Data from test_V78500241_2006.txt Node
Date: Fri Mar 25 15:55:41 CST 2022
User: usil
Spectrometer: V785-0024
Trigger mode: 0
Integration Time (sec): 4.000000E-1
Scans to average: 1
Nonlinearity correction enabled: false
Boxcar width: 0
Storing dark spectrum: false
XAxis mode: Wavelengths
Number of Pixels in Spectrum: 1024
>>>>>Begin Spectral Data<<<<<
801.071	28649
801.214	28546
801.356	28367
801.499	28325
801.641	28177
801.783	28200
801.926	28158
802.068	28181
802.211	28173
802.353	28051
802.496	27838
802.638	27873
802.78	27762
802.923	27759
803.065	27705
803.208	27800
803.35	28006
803.492	27964
803.635	28032
803.777	27979
803.919	28131
804.061	28333
804.204	28150
804.346	28036
804.488	27823
804.63	28101
804.773	28048
804.915	28135
805.057	28097
805.199	28044
805.341	28082
805.483	28268
805.626	28185
805.768	28051
805.91	28295
806.052	28230
806.194	28261
806.336	28417
806.478	28215
806.62	28322
806.762	28337
806.904	28432
807.046	28710
807.188	28713
807.33	28706
807.472	28573
807.614	28577
807.756	28637
807.898	28565
808.04	28398
808.182	28493
808.324	28493
808.465	28573
808.607	28774
808.749	28702
808.891	28961
809.033	29022
809.174	28949
809.316	28938
809.458	28965
809.6	28938
809.741	28938
809.883	29067
810.025	29197
810.166	29231
810.308	29151
810.45	29227
810.591	29109
810.733	28908
810.875	28949
811.016	28847
811.158	28668
811.299	28946
811.441	28987
811.582	28984
811.724	28892
811.865	29010
812.007	28858
812.148	28866
812.29	29037
812.431	29136
812.573	29098
812.714	29261
812.855	29520
812.997	29501
813.138	29676
813.279	29573
813.421	29356
813.562	29474
813.703	29303
813.845	29239
813.986	28881
814.127	28733
814.268	28649
814.41	28634
814.551	28744
814.692	28771
814.833	28588
814.974	28557
815.115	28588
815.256	28546
815.397	28504
815.539	28531
815.68	28379
815.821	28265
815.962	28424
816.103	28382
816.244	28276
816.385	28272
816.526	28200
816.666	28032
816.807	27911
816.948	28036
817.089	28013
817.23	28025
817.371	27930
817.512	27926
817.653	27968
817.793	27903
817.934	27869
818.075	28013
818.216	27941
818.356	27903
818.497	27808
818.638	27667
818.778	27557
818.919	27458
819.06	27724
819.2	27709
819.341	27911
819.481	28002
819.622	27998
819.762	28303
819.903	28147
820.043	28162
820.184	28109
820.324	28143
820.465	28196
820.605	28105
820.746	28055
820.886	27888
821.026	28082
821.167	27979
821.307	28150
821.447	28002
821.588	27705
821.728	27603
821.868	27671
822.008	27473
822.149	27367
822.289	27378
822.429	27230
822.569	27058
822.709	27077
822.849	26956
822.99	26910
823.13	26804
823.27	26887
823.41	26712
823.55	26697
823.69	26940
823.83	26811
823.97	26571
824.11	26442
824.25	26480
824.389	26514
824.529	26651
824.669	26549
824.809	26617
824.949	26712
825.089	26674
825.228	26598
825.368	26476
825.508	26473
825.648	26530
825.787	26438
825.927	26488
826.067	26347
826.206	26377
826.346	26507
826.485	26499
826.625	26431
826.765	26431
826.904	26415
827.044	26199
827.183	26240
827.323	26077
827.462	26164
827.601	26191
827.741	26100
827.88	26092
828.02	26176
828.159	26142
828.298	26252
828.437	26134
828.577	26088
828.716	26168
828.855	25989
828.994	25769
829.134	25966
829.273	25837
829.412	25708
829.551	25791
829.69	25788
829.829	25826
829.968	25982
830.107	25925
830.246	25757
830.385	25879
830.524	25658
830.663	25594
830.802	25597
830.941	25502
831.08	25457
831.219	25518
831.357	25510
831.496	25696
831.635	25411
831.774	25407
831.913	25297
832.051	25209
832.19	25251
832.329	25324
832.467	25088
832.606	25057
832.744	24981
832.883	25088
833.022	24939
833.16	24992
833.299	25148
833.437	25080
833.576	25240
833.714	25259
833.852	25194
833.991	25232
834.129	25327
834.267	25168
834.406	25202
834.544	25240
834.682	25209
834.821	25141
834.959	25293
835.097	25209
835.235	25255
835.373	25160
835.511	25095
835.65	25107
835.788	25053
835.926	24989
836.064	24928
836.202	24734
836.34	25004
836.478	24897
836.615	24928
836.753	25042
836.891	24939
837.029	25023
837.167	24920
837.305	24970
837.443	24791
837.58	24859
837.718	24852
837.856	24802
837.993	24734
838.131	24726
838.269	24665
838.406	24802
838.544	24544
838.681	24433
838.819	24384
838.956	24292
839.094	24285
839.231	24311
839.369	24467
839.506	24673
839.643	24456
839.781	24266
839.918	24136
840.055	24353
840.193	24216
840.33	24209
840.467	24334
840.604	24144
840.742	24513
840.879	23935
841.016	24106
841.153	24186
841.29	24205
841.427	24163
841.564	24289
841.701	24106
841.838	24266
841.975	24015
842.112	24098
842.249	24064
842.385	24038
842.522	24148
842.659	24030
842.796	24015
842.933	23927
843.069	23878
843.206	23901
843.343	23977
843.479	23946
843.616	23882
843.752	23752
843.889	23748
844.025	23847
844.162	23634
844.298	23771
844.435	23745
844.571	23691
844.708	23707
844.844	23950
844.98	23866
845.117	23817
845.253	23684
845.389	23589
845.525	23642
845.661	23649
845.798	23376
845.934	23551
846.07	23505
846.206	23554
846.342	23459
846.478	23589
846.614	23315
846.75	23018
846.886	23212
847.022	23280
847.158	23197
847.294	23140
847.429	23231
847.565	23155
847.701	23566
847.837	22881
847.972	22946
848.108	22938
848.244	23041
848.379	22820
848.515	22729
848.65	22778
848.786	22710
848.921	22752
849.057	22896
849.192	22862
849.328	22759
849.463	22801
849.598	22641
849.734	22793
849.869	22542
850.004	22603
850.14	22656
850.275	22565
850.41	22493
850.545	22394
850.68	22603
850.815	22542
850.95	22630
851.085	22736
851.22	22687
851.355	22717
851.49	22500
851.625	22512
851.76	22455
851.895	22497
852.03	22451
852.165	22569
852.299	22660
852.434	22618
852.569	22675
852.703	22599
852.838	22588
852.973	22641
853.107	22679
853.242	22462
853.376	22459
853.511	22329
853.645	22318
853.78	22599
853.914	22379
854.048	22325
854.183	22337
854.317	22447
854.451	22630
854.585	22356
854.72	22394
854.854	22447
854.988	22177
855.122	22394
855.256	22265
855.39	22341
855.524	22519
855.658	22436
855.792	22436
855.926	22447
856.06	22508
856.194	22474
856.327	22341
856.461	22382
856.595	22375
856.729	22447
856.862	22474
856.996	22440
857.13	22382
857.263	22440
857.397	22413
857.53	22363
857.664	22306
857.797	22497
857.931	22481
858.064	22318
858.197	22440
858.331	22329
858.464	22356
858.597	22371
858.731	22424
858.864	22284
858.997	22390
859.13	22341
859.263	22436
859.396	22485
859.529	22375
859.662	22287
859.795	22268
859.928	22367
860.061	22402
860.194	22664
860.327	22451
860.46	22318
860.592	22569
860.725	22618
860.858	22535
860.99	22405
861.123	22257
861.256	22348
861.388	22531
861.521	23090
861.653	22204
861.786	22234
861.918	22143
862.05	22348
862.183	22238
862.315	22333
862.447	22390
862.58	22147
862.712	22131
862.844	22074
862.976	22162
863.108	22204
863.24	22497
863.372	22036
863.504	22135
863.636	22234
863.768	22139
863.9	22070
864.032	22074
864.164	21930
864.296	22253
864.428	22287
864.559	22135
864.691	22196
864.823	22097
864.954	22029
865.086	22101
865.217	21987
865.349	21880
865.48	21994
865.612	22128
865.743	22090
865.875	21991
866.006	21987
866.137	21945
866.269	21937
866.4	21975
866.531	21918
866.662	21892
866.793	21880
866.924	21895
867.055	21960
867.186	22074
867.317	21819
867.448	21876
867.579	21686
867.71	21778
867.841	21797
867.972	21884
868.103	21926
868.233	21907
868.364	21934
868.495	22010
868.625	22135
868.756	22200
868.886	21983
869.017	22204
869.147	22287
869.278	22204
869.408	22204
869.539	22128
869.669	22219
869.799	22090
869.929	22200
870.06	22268
870.19	22538
870.32	22337
870.45	22546
870.58	22497
870.71	22637
870.84	22542
870.97	22634
871.1	22634
871.23	22622
871.36	22809
871.489	22702
871.619	22778
871.749	22782
871.879	22908
872.008	22877
872.138	22744
872.267	22649
872.397	22675
872.526	22603
872.656	22516
872.785	22485
872.915	22759
873.044	22885
873.173	22835
873.303	22831
873.432	22839
873.561	22915
873.69	22858
873.819	22850
873.948	22774
874.077	22672
874.206	22668
874.335	22778
874.464	22957
874.593	22965
874.722	22938
874.851	23090
874.979	22953
875.108	23094
875.237	22877
875.365	22831
875.494	22839
875.623	23003
875.751	23010
875.88	23067
876.008	23204
876.136	23250
876.265	23490
876.393	23497
876.521	23501
876.65	23516
876.778	23345
876.906	23277
877.034	23216
877.162	23341
877.29	23265
877.418	23181
877.546	23360
877.674	23292
877.802	23334
877.93	23360
878.058	23212
878.185	23113
878.313	23197
878.441	23334
878.568	23181
878.696	23235
878.824	23345
878.951	23402
879.079	23379
879.206	23543
879.333	23509
879.461	23414
879.588	23376
879.715	23452
879.842	23627
879.97	23337
880.097	23105
880.224	23185
880.351	23090
880.478	23296
880.605	23105
880.732	23094
880.859	23330
880.986	23064
881.112	23132
881.239	23151
881.366	22858
881.493	22778
881.619	22721
881.746	22752
881.872	22687
881.999	22713
882.125	22611
882.252	22672
882.378	22626
882.505	22702
882.631	22653
882.757	22310
882.883	22462
883.01	22360
883.136	22272
883.262	22272
883.388	22299
883.514	22451
883.64	22367
883.766	22230
883.892	22185
884.018	22124
884.143	22398
884.269	22459
884.395	22010
884.52	22048
884.646	22021
884.772	21930
884.897	21895
885.023	21926
885.148	22048
885.274	22135
885.399	22116
885.524	22002
885.65	22162
885.775	22059
885.9	22010
886.025	22055
886.15	22078
886.275	21850
886.4	21987
886.525	21911
886.65	21880
886.775	21903
886.9	22105
887.025	22143
887.149	22044
887.274	21766
887.399	21861
887.523	21698
887.648	21622
887.773	21682
887.897	21880
888.021	21762
888.146	21816
888.27	21797
888.395	21835
888.519	21812
888.643	21732
888.767	21766
888.891	21682
889.015	21542
889.139	21507
889.263	21572
889.387	21511
889.511	21660
889.635	21606
889.759	21557
889.883	21435
890.006	21545
890.13	21591
890.254	21568
890.377	21473
890.501	21226
890.624	21302
890.748	21283
890.871	21214
890.995	21032
891.118	21032
891.241	21123
891.364	21066
891.488	21192
891.611	21112
891.734	21062
891.857	21161
891.98	21150
892.103	21096
892.226	21180
892.349	21081
892.471	20891
892.594	20895
892.717	20960
892.839	21055
892.962	21036
893.085	21020
893.207	20960
893.33	20792
893.452	20845
893.575	21032
893.697	20998
893.819	21074
893.941	21127
894.064	21032
894.186	20933
894.308	20937
894.43	21032
894.552	21146
894.674	21062
894.796	20872
894.918	21028
895.04	20872
895.161	21093
895.283	20986
895.405	21039
895.526	21077
895.648	20967
895.769	21051
895.891	21020
896.012	20986
896.134	21058
896.255	20971
896.376	20921
896.498	20975
896.619	20921
896.74	20823
896.861	20971
896.982	21355
897.103	21466
897.224	21283
897.345	21245
897.466	21176
897.587	21245
897.708	21272
897.828	21203
897.949	21272
898.07	20998
898.19	21142
898.311	21268
898.431	21093
898.552	21081
898.672	21226
898.792	21203
898.913	21222
899.033	21013
899.153	21017
899.273	20762
899.393	20902
899.513	20807
899.633	20944
899.753	20910
899.873	20815
899.993	20857
900.113	20750
900.232	20918
900.352	20883
900.472	20735
900.591	20651
900.711	20716
900.83	20644
900.95	20651
901.069	20765
901.189	20617
901.308	20339
901.427	20404
901.546	20199
901.665	20172
901.784	20400
901.904	20096
902.023	19997
902.141	19909
902.26	19799
902.379	19944
902.498	19750
902.617	19753
902.735	19776
902.854	19632
902.973	19597
903.091	19362
903.21	19502
903.328	19499
903.446	19365
903.565	19225
903.683	19221
903.801	19061
903.919	19156
904.038	19206
904.156	19004
904.274	19171
904.392	18951
904.51	18867
904.627	18985
904.745	18973
904.863	19110
904.981	18738
905.098	18608
905.216	18559
905.334	18642
905.451	18658
905.569	18635
905.686	18795
905.803	18536
905.921	18399
906.038	18407
906.155	18494
906.272	18247
906.389	18388
906.506	18167
906.623	18270
906.74	18167
906.857	18019
906.974	18171
907.091	18251
907.208	18285
907.324	18140
907.441	18079
907.557	17843
907.674	17889
907.79	17851
907.907	17813
908.023	17889
908.139	17935
908.256	17802
908.372	17912
908.488	17699
908.604	17661
908.72	17623
908.836	17543
908.952	17649
909.068	17592
909.184	17608
909.3	17570
909.415	17665
909.531	17596
909.647	17372
909.762	17395
909.878	17273
909.993	17223
910.108	17292
910.224	17155
910.339	17204
910.454	17143
910.57	16999
910.685	17010
910.8	17330
910.915	17166
911.03	17048
911.145	16965
911.259	16877
911.374	16904
911.489	16771
911.604	16790
911.718	16607
911.833	16656
911.947	16512
912.062	16421
912.176	16580
912.291	16538
912.405	16645
912.519	16915
912.633	16797
912.748	16649
912.862	16573
912.976	16577
913.09	16280
913.204	16306
913.318	16428
913.431	16519
913.545	16440
913.659	16470
913.772	16314
913.886	16291
914	16185
914.113	16314
914.226	16329
914.34	16223
914.453	16143
914.566	16120
914.68	16067
914.793	16051
914.906	15857
915.019	15835
915.132	15781
915.245	15846
915.358	15816
915.47	15717
915.583	15724
915.696	15873
915.809	15949
915.921	15861
916.034	15762
916.146	15618
916.259	15568
916.371	15736
916.483	15698
916.595	15663
916.708	15568
916.82	15572
916.932	15568
917.044	15610
917.156	15526
917.268	15492
917.38	15519
917.491	15386
917.603	15435
917.715	15511
917.826	15481
917.938	15344
918.049	15233
918.161	15401
918.272	15561
918.384	15443
918.495	15313
918.606	15241
918.717	15222
918.828	15245
918.939	15203
919.05	15100
919.161	15131
919.272	14918
919.383	15036
919.494	15226
919.604	15370
919.715	15165
919.826	15043
919.936	15142
920.047	15211
920.157	15154
920.267	15317
920.378	15108
920.488	15058
920.598	15287
920.708	15389
920.818	15287
920.928	15230
921.038	15477
921.148	15222
921.258	15024
921.368	14986
921.477	14925
921.587	14906
921.697	14807
921.806	14849
921.916	14735
922.025	14644
922.134	14473
922.244	14492
922.353	14503
922.462	14393
922.571	14317
922.68	14145
922.789	14073
922.898	14081
923.007	14096
923.116	14142
923.224	14088
923.333	14012
923.442	14043
923.55	13997
923.659	14016
923.767	14046
923.876	13986
923.984	14100
924.092	13913
924.201	13932
924.309	13982
924.417	13780
924.525	13761
924.633	13849
924.741	14507
924.849	13529
924.956	13613
925.064	13616
925.172	13499
925.279	13521
925.387	13529
925.494	13495
925.602	13685
925.709	13563
925.816	13392
925.924	13552
926.031	13521
926.138	13499
926.245	13483
926.352	13358
926.459	13407
926.566	13540
926.673	13388
926.779	13289
926.886	13335
926.993	13099
927.099	13053
927.206	13019
927.312	13072
927.419	13099
927.525	13095
927.631	13160
927.737	13004
927.843	12886
927.95	12776
928.056	12817
928.162	12962
928.267	12970
928.373	13624
928.479	12901
928.585	12688
928.69	12863
928.796	12837
928.901	12722
929.007	12620
929.112	12783
929.218	12620
929.323	12692
929.428	12555
929.533	12768
929.638	12536
929.743	12570
929.848	12494
929.953	12570
930.058	12433
930.163	12285
930.267	12232
930.372	12395
930.477	12273
930.581	12414
930.685	12334
930.79	12171
930.894	12178
930.998	12144
931.103	12273
931.207	11874
931.311	11885
931.415	11726
931.519	11566
931.623	11558
