Data from test_V78500241_2719.txt Node
Date: Fri Mar 25 16:00:38 CST 2022
User: usil
Spectrometer: V785-0024
Trigger mode: 0
Integration Time (sec): 4.000000E-1
Scans to average: 1
Nonlinearity correction enabled: false
Boxcar width: 0
Storing dark spectrum: false
XAxis mode: Wavelengths
Number of Pixels in Spectrum: 1024
>>>>>Begin Spectral Data<<<<<
801.071	28649
801.214	28538
801.356	28531
801.499	28238
801.641	28185
801.783	28303
801.926	28280
802.068	28207
802.211	28234
802.353	28059
802.496	28082
802.638	27922
802.78	28040
802.923	27819
803.065	27857
803.208	27941
803.35	27903
803.492	28017
803.635	28010
803.777	28116
803.919	28109
804.061	28447
804.204	28261
804.346	28150
804.488	28150
804.63	28044
804.773	28040
804.915	28162
805.057	28375
805.199	28272
805.341	28173
805.483	28401
805.626	28356
805.768	28276
805.91	28371
806.052	28371
806.194	28253
806.336	28466
806.478	28318
806.62	28352
806.762	28462
806.904	28755
807.046	28763
807.188	28881
807.33	28809
807.472	28923
807.614	28710
807.756	28637
807.898	28725
808.04	28577
808.182	28626
808.324	28603
808.465	28672
808.607	28923
808.749	28835
808.891	29044
809.033	29124
809.174	29094
809.316	29060
809.458	29003
809.6	28984
809.741	29155
809.883	29071
810.025	29379
810.166	29227
810.308	29318
810.45	29265
810.591	29235
810.733	29121
810.875	29098
811.016	28923
811.158	28938
811.299	29159
811.441	29113
811.582	29200
811.724	29124
811.865	28972
812.007	29044
812.148	29094
812.29	29121
812.431	29208
812.573	29311
812.714	29383
812.855	29509
812.997	29783
813.138	29779
813.279	29726
813.421	29573
813.562	29379
813.703	29372
813.845	29284
813.986	29048
814.127	28771
814.268	28736
814.41	28786
814.551	28729
814.692	28843
814.833	28660
814.974	28618
815.115	28793
815.256	28660
815.397	28588
815.539	28607
815.68	28565
815.821	28447
815.962	28664
816.103	28470
816.244	28440
816.385	28421
816.526	28215
816.666	28249
816.807	28093
816.948	27918
817.089	28078
817.23	27987
817.371	28162
817.512	27987
817.653	28032
817.793	28006
817.934	28131
818.075	27998
818.216	28032
818.356	28181
818.497	27960
818.638	27766
818.778	27797
818.919	27743
819.06	27800
819.2	27956
819.341	28032
819.481	27953
819.622	28238
819.762	28466
819.903	28291
820.043	28207
820.184	28265
820.324	28204
820.465	28143
820.605	28230
820.746	28143
820.886	28097
821.026	28211
821.167	28048
821.307	28223
821.447	27987
821.588	27884
821.728	27907
821.868	27625
822.008	27538
822.149	27610
822.289	27492
822.429	27275
822.569	27154
822.709	27252
822.849	27096
822.99	27157
823.13	27017
823.27	27020
823.41	26944
823.55	26697
823.69	26762
823.83	26960
823.97	26933
824.11	26533
824.25	26617
824.389	26712
824.529	26769
824.669	26663
824.809	26754
824.949	26868
825.089	26845
825.228	26609
825.368	26587
825.508	26556
825.648	26522
825.787	26632
825.927	26640
826.067	26617
826.206	26640
826.346	26556
826.485	26701
826.625	26609
826.765	26648
826.904	26602
827.044	26415
827.183	26336
827.323	26343
827.462	26298
827.601	26301
827.741	26164
827.88	26431
828.02	26096
828.159	26111
828.298	26313
828.437	26275
828.577	26252
828.716	26374
828.855	26149
828.994	25944
829.134	26065
829.273	26001
829.412	26016
829.551	25963
829.69	25917
829.829	26050
829.968	26039
830.107	26050
830.246	25982
830.385	25921
830.524	25875
830.663	25799
830.802	25784
830.941	25476
831.08	25575
831.219	25632
831.357	25567
831.496	25704
831.635	25582
831.774	25392
831.913	25403
832.051	25419
832.19	25327
832.329	25324
832.467	25278
832.606	25240
832.744	25065
832.883	25213
833.022	25312
833.16	25251
833.299	25369
833.437	25263
833.576	25187
833.714	25308
833.852	25247
833.991	25373
834.129	25472
834.267	25316
834.406	25308
834.544	25430
834.682	25217
834.821	25259
834.959	25392
835.097	25133
835.235	25396
835.373	25171
835.511	25285
835.65	25198
835.788	25213
835.926	24901
836.064	24844
836.202	25008
836.34	25141
836.478	25103
836.615	25076
836.753	25251
836.891	25069
837.029	25183
837.167	25000
837.305	25038
837.443	25023
837.58	25031
837.718	25057
837.856	25137
837.993	24817
838.131	24939
838.269	24760
838.406	24882
838.544	24719
838.681	24593
838.819	24540
838.956	24467
839.094	24319
839.231	24525
839.369	24639
839.506	24715
839.643	24650
839.781	24498
839.918	24372
840.055	24517
840.193	24403
840.33	24258
840.467	24418
840.604	24289
840.742	24498
840.879	24152
841.016	24235
841.153	24186
841.29	24464
841.427	24388
841.564	24289
841.701	24380
841.838	24311
841.975	24205
842.112	24289
842.249	24076
842.385	24136
842.522	24315
842.659	24201
842.796	24232
842.933	24034
843.069	24095
843.206	23942
843.343	24129
843.479	24053
843.616	24057
843.752	23847
843.889	23893
844.025	24011
844.162	23999
844.298	24041
844.435	23927
844.571	23908
844.708	23836
844.844	23946
844.98	24076
845.117	23927
845.253	23756
845.389	23752
845.525	23699
845.661	23752
845.798	23585
845.934	23707
846.07	23581
846.206	23570
846.342	23687
846.478	23474
846.614	23360
846.75	23265
846.886	23258
847.022	23220
847.158	23315
847.294	23299
847.429	23315
847.565	23220
847.701	23592
847.837	23170
847.972	22961
848.108	23216
848.244	23048
848.379	22889
848.515	22801
848.65	22923
848.786	23014
848.921	22957
849.057	22984
849.192	22911
849.328	23037
849.463	22972
849.598	22869
849.734	22831
849.869	22820
850.004	22774
850.14	22744
850.275	22603
850.41	22478
850.545	22641
850.68	22664
850.815	22744
850.95	22691
851.085	22858
851.22	22752
851.355	22618
851.49	22706
851.625	22649
851.76	22584
851.895	22637
852.03	22603
852.165	22713
852.299	22634
852.434	22736
852.569	22725
852.703	22866
852.838	22759
852.973	22911
853.107	22790
853.242	22649
853.376	22447
853.511	22443
853.645	22485
853.78	22630
853.914	22436
854.048	22432
854.183	22398
854.317	22637
854.451	22679
854.585	22535
854.72	22531
854.854	22592
854.988	22405
855.122	22432
855.256	22367
855.39	22508
855.524	22565
855.658	22592
855.792	22577
855.926	22588
856.06	22573
856.194	22580
856.327	22531
856.461	22497
856.595	22508
856.729	22603
856.862	22649
856.996	22459
857.13	22557
857.263	22607
857.397	22630
857.53	22596
857.664	22637
857.797	22603
857.931	22550
858.064	22607
858.197	22736
858.331	22538
858.464	22519
858.597	22489
858.731	22561
858.864	22470
858.997	22470
859.13	22489
859.263	22481
859.396	22573
859.529	22428
859.662	22447
859.795	22409
859.928	22664
860.061	22577
860.194	22668
860.327	22599
860.46	22557
860.592	22744
860.725	22672
860.858	22622
860.99	22440
861.123	22531
861.256	22599
861.388	22542
861.521	23284
861.653	22333
861.786	22207
861.918	22344
862.05	22379
862.183	22333
862.315	22478
862.447	22561
862.58	22436
862.712	22238
862.844	22116
862.976	22424
863.108	22230
863.24	22683
863.372	22230
863.504	22181
863.636	22200
863.768	22322
863.9	22196
864.032	22215
864.164	22139
864.296	22124
864.428	22249
864.559	22234
864.691	22306
864.823	22257
864.954	22204
865.086	22188
865.217	22215
865.349	21937
865.48	22055
865.612	22162
865.743	22211
865.875	22112
866.006	22162
866.137	22120
866.269	22067
866.4	22040
866.531	21907
866.662	22059
866.793	21975
866.924	22059
867.055	21991
867.186	21953
867.317	21934
867.448	21876
867.579	22032
867.71	22010
867.841	22006
867.972	22086
868.103	21972
868.233	22067
868.364	21926
868.495	22112
868.625	22143
868.756	22440
868.886	22177
869.017	22276
869.147	22322
869.278	22322
869.408	22341
869.539	22348
869.669	22375
869.799	22211
869.929	22519
870.06	22409
870.19	22500
870.32	22519
870.45	22546
870.58	22713
870.71	22710
870.84	22729
870.97	22637
871.1	22561
871.23	22835
871.36	22831
871.489	22721
871.619	22873
871.749	22801
871.879	22889
872.008	22995
872.138	22885
872.267	22767
872.397	22759
872.526	22565
872.656	22634
872.785	22717
872.915	22946
873.044	22942
873.173	22835
873.303	22938
873.432	22961
873.561	23006
873.69	23044
873.819	22919
873.948	23010
874.077	22995
874.206	22710
874.335	22862
874.464	22862
874.593	23098
874.722	23022
874.851	23208
874.979	23174
875.108	23037
875.237	22991
875.365	22854
875.494	23090
875.623	23098
875.751	22991
875.88	23109
876.008	23242
876.136	23155
876.265	23471
876.393	23581
876.521	23691
876.65	23539
876.778	23630
876.906	23398
877.034	23402
877.162	23512
877.29	23410
877.418	23482
877.546	23429
877.674	23379
877.802	23425
877.93	23410
878.058	23368
878.185	23284
878.313	23455
878.441	23292
878.568	23261
878.696	23440
878.824	23478
878.951	23501
879.079	23585
879.206	23843
879.333	23589
879.461	23531
879.588	23535
879.715	23623
879.842	23642
879.97	23562
880.097	23155
880.224	23128
880.351	23330
880.478	23246
880.605	23102
880.732	23223
880.859	23467
880.986	23322
881.112	23227
881.239	23121
881.366	22972
881.493	22866
881.619	22877
881.746	22793
881.872	22881
881.999	22843
882.125	22767
882.252	22793
882.378	22717
882.505	23018
882.631	22592
882.757	22485
882.883	22599
883.01	22565
883.136	22402
883.262	22402
883.388	22363
883.514	22592
883.64	22592
883.766	22329
883.892	22181
884.018	22405
884.143	22436
884.269	22367
884.395	22128
884.52	22059
884.646	22112
884.772	21987
884.897	22158
885.023	22287
885.148	22147
885.274	22207
885.399	22109
885.524	22150
885.65	22010
885.775	22147
885.9	22078
886.025	22188
886.15	22230
886.275	22074
886.4	21968
886.525	21987
886.65	22162
886.775	22097
886.9	22249
887.025	22238
887.149	22048
887.274	22048
887.399	21899
887.523	21930
887.648	21755
887.773	21736
887.897	21983
888.021	21873
888.146	21819
888.27	22013
888.395	21945
888.519	21903
888.643	21869
888.767	21842
888.891	21762
889.015	21781
889.139	21770
889.263	21644
889.387	21720
889.511	21857
889.635	21732
889.759	21644
889.883	21629
890.006	21549
890.13	21675
890.254	21564
890.377	21507
890.501	21363
890.624	21374
890.748	21496
890.871	21222
890.995	21230
891.118	21100
891.241	21226
891.364	21161
891.488	21313
891.611	21275
891.734	21237
891.857	21336
891.98	21245
892.103	21272
892.226	21214
892.349	21051
892.471	20937
892.594	21237
892.717	21157
892.839	21036
892.962	21135
893.085	21146
893.207	21104
893.33	20994
893.452	21001
893.575	21207
893.697	21123
893.819	21161
893.941	21272
894.064	21283
894.186	21032
894.308	21085
894.43	21108
894.552	21252
894.674	21165
894.796	20906
894.918	20967
895.04	21077
895.161	21093
895.283	21047
895.405	20960
895.526	21100
895.648	21017
895.769	21112
895.891	21146
896.012	21146
896.134	21096
896.255	21127
896.376	21032
896.498	21154
896.619	21116
896.74	21154
896.861	21074
896.982	21344
897.103	21561
897.224	21306
897.345	21264
897.466	21230
897.587	21249
897.708	21393
897.828	21431
897.949	21226
898.07	21070
898.19	21131
898.311	21340
898.431	21096
898.552	21214
898.672	21302
898.792	21222
898.913	21275
899.033	20944
899.153	20998
899.273	20941
899.393	20967
899.513	21017
899.633	21066
899.753	21020
899.873	20960
899.993	21150
900.113	21013
900.232	20960
900.352	20967
900.472	20746
900.591	20845
900.711	20952
900.83	20788
900.95	20861
901.069	20823
901.189	20629
901.308	20423
901.427	20347
901.546	20465
901.665	20370
901.784	20305
901.904	20267
902.023	20065
902.141	19833
902.26	19864
902.379	19993
902.498	19871
902.617	19811
902.735	19856
902.854	19795
902.973	19712
903.091	19495
903.21	19510
903.328	19575
903.446	19438
903.565	19365
903.683	19255
903.801	19209
903.919	19171
904.038	19221
904.156	19046
904.274	19137
904.392	18973
904.51	19023
904.627	19065
904.745	19152
904.863	19110
904.981	18939
905.098	18749
905.216	18745
905.334	18677
905.451	18741
905.569	18665
905.686	18848
905.803	18749
905.921	18623
906.038	18574
906.155	18509
906.272	18384
906.389	18433
906.506	18247
906.623	18315
906.74	18277
906.857	18110
906.974	18213
907.091	18315
907.208	18304
907.324	18258
907.441	18186
907.557	17863
907.674	18072
907.79	17901
907.907	18026
908.023	17901
908.139	17977
908.256	17931
908.372	17771
908.488	17855
908.604	17680
908.72	17646
908.836	17764
908.952	17611
909.068	17680
909.184	17695
909.3	17665
909.415	17668
909.531	17718
909.647	17535
909.762	17410
909.878	17258
909.993	17341
910.108	17414
910.224	17322
910.339	17250
910.454	17212
910.57	17071
910.685	17223
910.8	17387
910.915	17311
911.03	17128
911.145	17025
911.259	16923
911.374	16953
911.489	16881
911.604	16824
911.718	16679
911.833	16740
911.947	16615
912.062	16421
912.176	16565
912.291	16729
912.405	16755
912.519	16862
912.633	16778
912.748	16748
912.862	16717
912.976	16497
913.09	16440
913.204	16523
913.318	16573
913.431	16702
913.545	16573
913.659	16596
913.772	16481
913.886	16295
914	16230
914.113	16291
914.226	16329
914.34	16337
914.453	16185
914.566	16253
914.68	16128
914.793	16055
914.906	15979
915.019	15964
915.132	15816
915.245	15960
915.358	15869
915.47	15873
915.583	15842
915.696	15892
915.809	16002
915.921	15937
916.034	15816
916.146	15781
916.259	15774
916.371	15835
916.483	15876
916.595	15831
916.708	15751
916.82	15572
916.932	15606
917.044	15629
917.156	15637
917.268	15557
917.38	15564
917.491	15416
917.603	15538
917.715	15523
917.826	15538
917.938	15526
918.049	15332
918.161	15408
918.272	15568
918.384	15515
918.495	15401
918.606	15283
918.717	15138
918.828	15195
918.939	15226
919.05	15116
919.161	15157
919.272	15047
919.383	15070
919.494	15222
919.604	15393
919.715	15176
919.826	15104
919.936	15180
920.047	15336
920.157	15173
920.267	15397
920.378	15161
920.488	15089
920.598	15340
920.708	15416
920.818	15237
920.928	15332
921.038	15458
921.148	15496
921.258	15165
921.368	15028
921.477	14864
921.587	14948
921.697	14826
921.806	14861
921.916	14712
922.025	14549
922.134	14564
922.244	14492
922.353	14575
922.462	14412
922.571	14358
922.68	14229
922.789	14244
922.898	14282
923.007	14103
923.116	14130
923.224	14123
923.333	14180
923.442	14046
923.55	13909
923.659	14024
923.767	14123
923.876	13932
923.984	13963
924.092	13860
924.201	13963
924.309	13852
924.417	13875
924.525	13898
924.633	13921
924.741	14765
924.849	13681
924.956	13772
925.064	13624
925.172	13468
925.279	13616
925.387	13655
925.494	13620
925.602	13636
925.709	13594
925.816	13518
925.924	13567
926.031	13544
926.138	13540
926.245	13548
926.352	13422
926.459	13529
926.566	13533
926.673	13415
926.779	13354
926.886	13316
926.993	13095
927.099	13065
927.206	13099
927.312	13061
927.419	13133
927.525	13065
927.631	13088
927.737	12939
927.843	12878
927.95	12825
928.056	12916
928.162	12863
928.267	13038
928.373	13502
928.479	12985
928.585	12772
928.69	12810
928.796	12837
928.901	12798
929.007	12563
929.112	12825
929.218	12791
929.323	12673
929.428	12563
929.533	12719
929.638	12509
929.743	12627
929.848	12566
929.953	12471
930.058	12517
930.163	12228
930.267	12315
930.372	12479
930.477	12315
930.581	12380
930.685	12270
930.79	12209
930.894	12258
930.998	12152
931.103	12304
931.207	11984
931.311	11904
931.415	11699
931.519	11604
931.623	11524
