Data from test_V78500241_477.txt Node
Date: Fri Mar 25 15:45:06 CST 2022
User: usil
Spectrometer: V785-0024
Trigger mode: 0
Integration Time (sec): 4.000000E-1
Scans to average: 1
Nonlinearity correction enabled: false
Boxcar width: 0
Storing dark spectrum: false
XAxis mode: Wavelengths
Number of Pixels in Spectrum: 1024
>>>>>Begin Spectral Data<<<<<
801.071	27766
801.214	27580
801.356	27340
801.499	27310
801.641	27256
801.783	27268
801.926	27412
802.068	27192
802.211	27176
802.353	26982
802.496	26872
802.638	26861
802.78	26910
802.923	27039
803.065	26689
803.208	26872
803.35	26830
803.492	26944
803.635	27093
803.777	26895
803.919	27058
804.061	27367
804.204	27058
804.346	26883
804.488	26937
804.63	27081
804.773	27081
804.915	26906
805.057	27150
805.199	27062
805.341	27188
805.483	27184
805.626	27017
805.768	27089
805.91	27154
806.052	27131
806.194	27108
806.336	27310
806.478	27241
806.62	27230
806.762	27161
806.904	27447
807.046	27739
807.188	27530
807.33	27538
807.472	27728
807.614	27538
807.756	27629
807.898	27447
808.04	27405
808.182	27435
808.324	27439
808.465	27386
808.607	27618
808.749	27759
808.891	27888
809.033	27983
809.174	27888
809.316	27899
809.458	27835
809.6	27922
809.741	28017
809.883	27941
810.025	28006
810.166	28044
810.308	28226
810.45	28059
810.591	28006
810.733	27861
810.875	27663
811.016	27759
811.158	27610
811.299	27854
811.441	27960
811.582	27926
811.724	27945
811.865	27739
812.007	27724
812.148	27762
812.29	27709
812.431	27918
812.573	28059
812.714	28063
812.855	28276
812.997	28432
813.138	28466
813.279	28295
813.421	28436
813.562	28341
813.703	28086
813.845	27934
813.986	27705
814.127	27591
814.268	27420
814.41	27466
814.551	27485
814.692	27576
814.833	27447
814.974	27466
815.115	27515
815.256	27340
815.397	27264
815.539	27374
815.68	27287
815.821	27131
815.962	27249
816.103	27298
816.244	27195
816.385	26929
816.526	26979
816.666	26769
816.807	26750
816.948	26819
817.089	26720
817.23	26876
817.371	26765
817.512	26864
817.653	26838
817.793	26640
817.934	26769
818.075	26716
818.216	26686
818.356	26609
818.497	26625
818.638	26370
818.778	26408
818.919	26507
819.06	26571
819.2	26587
819.341	26735
819.481	26537
819.622	26838
819.762	27074
819.903	26906
820.043	26895
820.184	26979
820.324	26727
820.465	26857
820.605	26967
820.746	26731
820.886	26609
821.026	26788
821.167	26777
821.307	26762
821.447	26712
821.588	26659
821.728	26492
821.868	26263
822.008	26336
822.149	26248
822.289	26157
822.429	25894
822.569	25909
822.709	25883
822.849	25723
822.99	25727
823.13	25681
823.27	25620
823.41	25472
823.55	25396
823.69	25533
823.83	25594
823.97	25552
824.11	25232
824.25	25373
824.389	25278
824.529	25510
824.669	25350
824.809	25434
824.949	25445
825.089	25362
825.228	25274
825.368	25042
825.508	25160
825.648	25259
825.787	25270
825.927	25228
826.067	25304
826.206	25069
826.346	25206
826.485	25221
826.625	25198
826.765	25259
826.904	25122
827.044	25053
827.183	24924
827.323	24909
827.462	24863
827.601	24840
827.741	24932
827.88	24913
828.02	24722
828.159	24844
828.298	24890
828.437	24947
828.577	24814
828.716	24943
828.855	24711
828.994	24669
829.134	24608
829.273	24658
829.412	24410
829.551	24407
829.69	24631
829.829	24551
829.968	24597
830.107	24620
830.246	24528
830.385	24498
830.524	24426
830.663	24251
830.802	24289
830.941	24247
831.08	24030
831.219	24258
831.357	24273
831.496	24464
831.635	24083
831.774	24060
831.913	24148
832.051	23923
832.19	23901
832.329	24015
832.467	23775
832.606	23889
832.744	23752
832.883	23779
833.022	23920
833.16	23817
833.299	23897
833.437	23851
833.576	23965
833.714	23783
833.852	23908
833.991	23931
834.129	24083
834.267	24076
834.406	23969
834.544	23847
834.682	23942
834.821	23866
834.959	24072
835.097	23824
835.235	23866
835.373	23802
835.511	23904
835.65	23619
835.788	23623
835.926	23684
836.064	23554
836.202	23577
836.34	23703
836.478	23866
836.615	23786
836.753	23714
836.891	23783
837.029	23771
837.167	23745
837.305	23627
837.443	23634
837.58	23562
837.718	23802
837.856	23505
837.993	23452
838.131	23581
838.269	23444
838.406	23372
838.544	23410
838.681	23227
838.819	23200
838.956	22999
839.094	23136
839.231	22972
839.369	23235
839.506	23440
839.643	23269
839.781	23136
839.918	23033
840.055	22991
840.193	23029
840.33	22987
840.467	22839
840.604	23166
840.742	23261
840.879	22850
841.016	22915
841.153	22896
841.29	22999
841.427	22991
841.564	22995
841.701	22915
841.838	22892
841.975	22740
842.112	22904
842.249	22831
842.385	22672
842.522	22919
842.659	22828
842.796	22710
842.933	22698
843.069	22630
843.206	22622
843.343	22847
843.479	22668
843.616	22809
843.752	22489
843.889	22436
844.025	22535
844.162	22363
844.298	22596
844.435	22417
844.571	22417
844.708	22481
844.844	22573
844.98	22649
845.117	22508
845.253	22417
845.389	22344
845.525	22436
845.661	22322
845.798	22284
845.934	22265
846.07	22211
846.206	22238
846.342	22325
846.478	22242
846.614	21964
846.75	21865
846.886	21880
847.022	22010
847.158	21964
847.294	21895
847.429	22032
847.565	21975
847.701	22086
847.837	21755
847.972	21682
848.108	21747
848.244	21728
848.379	21504
848.515	21416
848.65	21435
848.786	21591
848.921	21614
849.057	21652
849.192	21690
849.328	21633
849.463	21519
849.598	21443
849.734	21466
849.869	21481
850.004	21382
850.14	21279
850.275	21351
850.41	21336
850.545	21165
850.68	21169
850.815	21283
850.95	21245
851.085	21424
851.22	21477
851.355	21382
851.49	21249
851.625	21218
851.76	21336
851.895	21329
852.03	21241
852.165	21355
852.299	21256
852.434	21405
852.569	21321
852.703	21325
852.838	21332
852.973	21344
853.107	21424
853.242	21230
853.376	21116
853.511	20944
853.645	21123
853.78	21180
853.914	21169
854.048	21100
854.183	21157
854.317	21100
854.451	21260
854.585	21157
854.72	21127
854.854	21184
854.988	21039
855.122	21047
855.256	20990
855.39	21119
855.524	21249
855.658	21249
855.792	21135
855.926	21279
856.06	21077
856.194	21245
856.327	20937
856.461	21089
856.595	21051
856.729	21119
856.862	21233
856.996	21142
857.13	21222
857.263	21249
857.397	21085
857.53	21077
857.664	21188
857.797	21176
857.931	21211
858.064	21203
858.197	21264
858.331	21131
858.464	20994
858.597	21062
858.731	21142
858.864	21135
858.997	21089
859.13	21013
859.263	21207
859.396	21146
859.529	21058
859.662	20998
859.795	21005
859.928	21112
860.061	21264
860.194	21272
860.327	21252
860.46	21150
860.592	21363
860.725	21443
860.858	21241
860.99	21077
861.123	20963
861.256	21081
861.388	21161
861.521	21701
861.653	20967
861.786	20963
861.918	20963
862.05	21051
862.183	21020
862.315	21150
862.447	21264
862.58	20975
862.712	20918
862.844	20842
862.976	21017
863.108	20899
863.24	21336
863.372	20708
863.504	20781
863.636	20727
863.768	20880
863.9	20670
864.032	20682
864.164	20830
864.296	20891
864.428	20956
864.559	20819
864.691	20807
864.823	20765
864.954	20796
865.086	20849
865.217	20731
865.349	20697
865.48	20724
865.612	20682
865.743	20899
865.875	20727
866.006	20621
866.137	20636
866.269	20701
866.4	20724
866.531	20617
866.662	20602
866.793	20674
866.924	20720
867.055	20659
867.186	20629
867.317	20659
867.448	20583
867.579	20613
867.71	20446
867.841	20526
867.972	20655
868.103	20571
868.233	20629
868.364	20670
868.495	20765
868.625	20864
868.756	21039
868.886	20925
869.017	20902
869.147	21036
869.278	21070
869.408	21017
869.539	20861
869.669	20963
869.799	20933
869.929	21024
870.06	21112
870.19	21249
870.32	21260
870.45	21218
870.58	21165
870.71	21344
870.84	21416
870.97	21268
871.1	21291
871.23	21424
871.36	21473
871.489	21405
871.619	21523
871.749	21530
871.879	21557
872.008	21618
872.138	21488
872.267	21496
872.397	21329
872.526	21332
872.656	21283
872.785	21325
872.915	21466
873.044	21675
873.173	21564
873.303	21682
873.432	21549
873.561	21713
873.69	21523
873.819	21580
873.948	21679
874.077	21568
874.206	21473
874.335	21564
874.464	21583
874.593	21736
874.722	21644
874.851	21918
874.979	21720
875.108	21857
875.237	21625
875.365	21652
875.494	21690
875.623	21781
875.751	21667
875.88	21705
876.008	21797
876.136	21922
876.265	22051
876.393	22169
876.521	22166
876.65	22207
876.778	22234
876.906	22013
877.034	22120
877.162	22234
877.29	22082
877.418	22105
877.546	22112
877.674	22090
877.802	22143
877.93	22059
878.058	21968
878.185	21876
878.313	22032
878.441	22116
878.568	21953
878.696	21998
878.824	22162
878.951	22188
879.079	22303
879.206	22325
879.333	22268
879.461	22223
879.588	22238
879.715	22188
879.842	22367
879.97	22177
880.097	21895
880.224	21964
880.351	22025
880.478	21975
880.605	21800
880.732	21934
880.859	22234
880.986	21895
881.112	21850
881.239	21812
881.366	21679
881.493	21663
881.619	21458
881.746	21511
881.872	21534
881.999	21370
882.125	21530
882.252	21610
882.378	21355
882.505	21580
882.631	21473
882.757	21214
882.883	21332
883.01	21317
883.136	21077
883.262	21116
883.388	21001
883.514	21150
883.64	21199
883.766	21100
883.892	20979
884.018	20933
884.143	21142
884.269	21279
884.395	20975
884.52	20743
884.646	20804
884.772	20667
884.897	20746
885.023	20933
885.148	20914
885.274	20948
885.399	21001
885.524	20754
885.65	20880
885.775	20739
885.9	20868
886.025	20963
886.15	20971
886.275	20796
886.4	20720
886.525	20944
886.65	20750
886.775	20785
886.9	20967
887.025	21188
887.149	20826
887.274	20594
887.399	20522
887.523	20663
887.648	20651
887.773	20499
887.897	20686
888.021	20727
888.146	20648
888.27	20765
888.395	20693
888.519	20651
888.643	20701
888.767	20678
888.891	20670
889.015	20461
889.139	20606
889.263	20419
889.387	20541
889.511	20655
889.635	20571
889.759	20492
889.883	20488
890.006	20385
890.13	20423
890.254	20328
890.377	20366
890.501	20229
890.624	20092
890.748	20301
890.871	20054
890.995	19898
891.118	19864
891.241	20054
891.364	20065
891.488	20103
891.611	19986
891.734	20100
891.857	20058
891.98	20084
892.103	20069
892.226	19868
892.349	19955
892.471	19837
892.594	19932
892.717	19906
892.839	20043
892.962	19921
893.085	19875
893.207	19921
893.33	19765
893.452	19814
893.575	19921
893.697	19845
893.819	19967
893.941	20031
894.064	20008
894.186	19856
894.308	19944
894.43	19982
894.552	20062
894.674	20065
894.796	19662
894.918	19879
895.04	19982
895.161	20001
895.283	20027
895.405	19928
895.526	19849
895.648	19887
895.769	19978
895.891	19932
896.012	20005
896.134	19902
896.255	19963
896.376	19917
896.498	19864
896.619	19997
896.74	20054
896.861	20012
896.982	20164
897.103	20450
897.224	20275
897.345	20092
897.466	20111
897.587	20168
897.708	20271
897.828	20206
897.949	20024
898.07	19932
898.19	20168
898.311	20164
898.431	20126
898.552	20115
898.672	20191
898.792	20195
898.913	20134
899.033	19959
899.153	19986
899.273	19917
899.393	20027
899.513	19849
899.633	19913
899.753	19970
899.873	19963
899.993	19925
900.113	19852
900.232	19811
900.352	19967
900.472	19731
900.591	19670
900.711	19586
900.83	19632
900.95	19738
901.069	19742
901.189	19483
901.308	19430
901.427	19301
901.546	19335
901.665	19354
901.784	19316
901.904	19156
902.023	19046
902.141	18817
902.26	18924
902.379	18981
902.498	18840
902.617	18814
902.735	18798
902.854	18791
902.973	18707
903.091	18429
903.21	18498
903.328	18555
903.446	18342
903.565	18258
903.683	18334
903.801	18216
903.919	18372
904.038	18228
904.156	18110
904.274	18182
904.392	18079
904.51	17984
904.627	18007
904.745	18026
904.863	18011
904.981	17786
905.098	17707
905.216	17809
905.334	17737
905.451	17627
905.569	17737
905.686	17691
905.803	17775
905.921	17505
906.038	17589
906.155	17474
906.272	17299
906.389	17360
906.506	17185
906.623	17265
906.74	17197
906.857	17136
906.974	17170
907.091	17235
907.208	17379
907.324	17280
907.441	17208
907.557	16976
907.674	17071
907.79	16744
907.907	16957
908.023	17029
908.139	16965
908.256	16820
908.372	16717
908.488	16824
908.604	16725
908.72	16713
908.836	16687
908.952	16531
909.068	16664
909.184	16767
909.3	16698
909.415	16656
909.531	16702
909.647	16459
909.762	16375
909.878	16344
909.993	16314
910.108	16333
910.224	16318
910.339	16310
910.454	16226
910.57	16219
910.685	16196
910.8	16314
910.915	16344
911.03	16207
911.145	16029
911.259	16055
911.374	15911
911.489	15930
911.604	15823
911.718	15675
911.833	15622
911.947	15656
912.062	15530
912.176	15705
912.291	15770
912.405	15724
912.519	15903
912.633	15956
912.748	15732
912.862	15743
912.976	15538
913.09	15351
913.204	15454
913.318	15542
913.431	15549
913.545	15595
913.659	15641
913.772	15435
913.886	15306
914	15393
914.113	15450
914.226	15454
914.34	15359
914.453	15203
914.566	15325
914.68	15135
914.793	15173
914.906	15024
915.019	14948
915.132	14921
915.245	14925
915.358	15001
915.47	15020
915.583	14963
915.696	14986
915.809	15051
915.921	15024
916.034	14876
916.146	14845
916.259	14876
916.371	14918
916.483	14853
916.595	14800
916.708	14720
916.82	14746
916.932	14765
917.044	14815
917.156	14682
917.268	14613
917.38	14594
917.491	14560
917.603	14720
917.715	14773
917.826	14720
917.938	14545
918.049	14511
918.161	14438
918.272	14663
918.384	14659
918.495	14644
918.606	14374
918.717	14278
918.828	14332
918.939	14454
919.05	14313
919.161	14385
919.272	14221
919.383	14225
919.494	14377
919.604	14587
919.715	14366
919.826	14320
919.936	14317
920.047	14370
920.157	14317
920.267	14415
920.378	14358
920.488	14317
920.598	14530
920.708	14659
920.818	14511
920.928	14488
921.038	14670
921.148	14518
921.258	14290
921.368	14233
921.477	14050
921.587	14142
921.697	13875
921.806	14103
921.916	14016
922.025	13712
922.134	13742
922.244	13674
922.353	13655
922.462	13578
922.571	13586
922.68	13441
922.789	13312
922.898	13438
923.007	13304
923.116	13400
923.224	13343
923.333	13297
923.442	13236
923.55	13251
923.659	13274
923.767	13259
923.876	13145
923.984	13175
924.092	13160
924.201	13213
924.309	13076
924.417	13141
924.525	13050
924.633	13088
924.741	13719
924.849	12844
924.956	12985
925.064	12833
925.172	12715
925.279	12749
925.387	12829
925.494	12711
925.602	12996
925.709	12779
925.816	12681
925.924	12795
926.031	12719
926.138	12814
926.245	12783
926.352	12604
926.459	12703
926.566	12795
926.673	12665
926.779	12582
926.886	12528
926.993	12414
927.099	12369
927.206	12418
927.312	12353
927.419	12357
927.525	12346
927.631	12369
927.737	12247
927.843	12277
927.95	12140
928.056	12270
928.162	12213
928.267	12315
928.373	12791
928.479	12167
928.585	11988
928.69	12155
928.796	12144
928.901	12045
929.007	11817
929.112	12110
929.218	12091
929.323	11927
929.428	11927
929.533	11980
929.638	11760
929.743	11870
929.848	11954
929.953	11870
930.058	11794
930.163	11623
930.267	11733
930.372	11733
930.477	11600
930.581	11745
930.685	11703
930.79	11539
930.894	11600
930.998	11486
931.103	11554
931.207	11288
931.311	11159
931.415	11052
931.519	10873
931.623	10881
