Data from test_V78500241_2136.txt Node
Date: Fri Mar 25 15:56:35 CST 2022
User: usil
Spectrometer: V785-0024
Trigger mode: 0
Integration Time (sec): 4.000000E-1
Scans to average: 1
Nonlinearity correction enabled: false
Boxcar width: 0
Storing dark spectrum: false
XAxis mode: Wavelengths
Number of Pixels in Spectrum: 1024
>>>>>Begin Spectral Data<<<<<
801.071	29010
801.214	28919
801.356	28801
801.499	28672
801.641	28672
801.783	28683
801.926	28622
802.068	28675
802.211	28428
802.353	28443
802.496	28337
802.638	28440
802.78	28223
802.923	28207
803.065	28268
803.208	28295
803.35	28356
803.492	28485
803.635	28519
803.777	28504
803.919	28421
804.061	28911
804.204	28618
804.346	28577
804.488	28523
804.63	28634
804.773	28569
804.915	28656
805.057	28736
805.199	28592
805.341	28584
805.483	28626
805.626	28710
805.768	28687
805.91	28683
806.052	28694
806.194	28668
806.336	28820
806.478	28759
806.62	28687
806.762	28934
806.904	28885
807.046	29242
807.188	29075
807.33	29166
807.472	29090
807.614	29189
807.756	29086
807.898	28976
808.04	29006
808.182	29029
808.324	29033
808.465	29143
808.607	29307
808.749	29387
808.891	29570
809.033	29646
809.174	29455
809.316	29353
809.458	29490
809.6	29364
809.741	29581
809.883	29642
810.025	29680
810.166	29684
810.308	29665
810.45	29551
810.591	29604
810.733	29509
810.875	29474
811.016	29463
811.158	29254
811.299	29467
811.441	29535
811.582	29497
811.724	29448
811.865	29330
812.007	29467
812.148	29482
812.29	29649
812.431	29726
812.573	29726
812.714	29950
812.855	29996
812.997	30030
813.138	30121
813.279	30205
813.421	30057
813.562	29862
813.703	29851
813.845	29779
813.986	29364
814.127	29284
814.268	29083
814.41	29143
814.551	29121
814.692	29246
814.833	29109
814.974	29071
815.115	29220
815.256	29010
815.397	29083
815.539	29132
815.68	28881
815.821	29010
815.962	28934
816.103	28839
816.244	29014
816.385	28706
816.526	28698
816.666	28656
816.807	28424
816.948	28569
817.089	28729
817.23	28500
817.371	28573
817.512	28291
817.653	28443
817.793	28314
817.934	28542
818.075	28508
818.216	28443
818.356	28417
818.497	28417
818.638	28169
818.778	28135
818.919	28169
819.06	28238
819.2	28401
819.341	28554
819.481	28577
819.622	28645
819.762	28972
819.903	28687
820.043	28634
820.184	28675
820.324	28630
820.465	28679
820.605	28542
820.746	28603
820.886	28577
821.026	28630
821.167	28485
821.307	28653
821.447	28512
821.588	28322
821.728	28268
821.868	28120
822.008	27869
822.149	27987
822.289	27903
822.429	27675
822.569	27637
822.709	27690
822.849	27572
822.99	27477
823.13	27481
823.27	27431
823.41	27329
823.55	27233
823.69	27393
823.83	27272
823.97	27287
824.11	27051
824.25	27001
824.389	27062
824.529	27184
824.669	27195
824.809	27100
824.949	27176
825.089	27150
825.228	27176
825.368	26937
825.508	27051
825.648	27146
825.787	27112
825.927	27070
826.067	26937
826.206	26899
826.346	27096
826.485	27039
826.625	27028
826.765	27062
826.904	27077
827.044	26826
827.183	26727
827.323	26746
827.462	26765
827.601	26724
827.741	26781
827.88	26910
828.02	26522
828.159	26807
828.298	26739
828.437	26712
828.577	26678
828.716	26762
828.855	26579
828.994	26476
829.134	26473
829.273	26385
829.412	26507
829.551	26343
829.69	26381
829.829	26450
829.968	26290
830.107	26461
830.246	26446
830.385	26358
830.524	26145
830.663	26328
830.802	25955
830.941	26065
831.08	25849
831.219	26161
831.357	26073
831.496	26252
831.635	25966
831.774	26001
831.913	25913
832.051	25814
832.19	25879
832.329	25769
832.467	25814
832.606	25651
832.744	25556
832.883	25700
833.022	25693
833.16	25601
833.299	25693
833.437	25731
833.576	25670
833.714	25776
833.852	25788
833.991	25795
834.129	25814
834.267	25871
834.406	25746
834.544	25807
834.682	25719
834.821	25658
834.959	25894
835.097	25761
835.235	25761
835.373	25879
835.511	25689
835.65	25514
835.788	25578
835.926	25464
836.064	25483
836.202	25415
836.34	25590
836.478	25681
836.615	25476
836.753	25559
836.891	25616
837.029	25499
837.167	25464
837.305	25388
837.443	25339
837.58	25411
837.718	25472
837.856	25422
837.993	25388
838.131	25384
838.269	25175
838.406	25289
838.544	25156
838.681	24970
838.819	24928
838.956	24768
839.094	24821
839.231	24966
839.369	25061
839.506	25217
839.643	24909
839.781	24840
839.918	24916
840.055	24875
840.193	24730
840.33	24787
840.467	24810
840.604	24738
840.742	24901
840.879	24688
841.016	24540
841.153	24608
841.29	24871
841.427	24768
841.564	24688
841.701	24707
841.838	24661
841.975	24570
842.112	24616
842.249	24464
842.385	24490
842.522	24673
842.659	24597
842.796	24631
842.933	24509
843.069	24403
843.206	24441
843.343	24502
843.479	24441
843.616	24414
843.752	24350
843.889	24498
844.025	24433
844.162	24258
844.298	24384
844.435	24228
844.571	24254
844.708	24224
844.844	24407
844.98	24369
845.117	24437
845.253	24213
845.389	24060
845.525	24079
845.661	24190
845.798	24060
845.934	23996
846.07	23916
846.206	23958
846.342	24129
846.478	24041
846.614	23851
846.75	23687
846.886	23543
847.022	23882
847.158	23729
847.294	23741
847.429	23783
847.565	23794
847.701	24079
847.837	23554
847.972	23402
848.108	23585
848.244	23570
848.379	23444
848.515	23284
848.65	23246
848.786	23433
848.921	23379
849.057	23372
849.192	23505
849.328	23368
849.463	23265
849.598	23311
849.734	23162
849.869	23132
850.004	23014
850.14	23147
850.275	23037
850.41	22976
850.545	22968
850.68	23060
850.815	23109
850.95	23231
851.085	23360
851.22	23227
851.355	23128
851.49	23261
851.625	23094
851.76	22934
851.895	22968
852.03	22984
852.165	23033
852.299	23136
852.434	23105
852.569	23075
852.703	23025
852.838	23239
852.973	23128
853.107	23155
853.242	23052
853.376	22904
853.511	22953
853.645	22820
853.78	23117
853.914	22908
854.048	22866
854.183	22904
854.317	22908
854.451	23132
854.585	22850
854.72	22900
854.854	22938
854.988	22824
855.122	22877
855.256	22790
855.39	22729
855.524	22953
855.658	22866
855.792	22953
855.926	22980
856.06	22896
856.194	22850
856.327	22892
856.461	22835
856.595	22797
856.729	22835
856.862	23109
856.996	22949
857.13	22953
857.263	22968
857.397	22976
857.53	22976
857.664	22854
857.797	22934
857.931	22984
858.064	22900
858.197	22946
858.331	22828
858.464	22957
858.597	22790
858.731	22839
858.864	22782
858.997	22843
859.13	22930
859.263	22889
859.396	22938
859.529	22900
859.662	22744
859.795	22850
859.928	22885
860.061	23037
860.194	23162
860.327	22847
860.46	22934
860.592	22938
860.725	22949
860.858	22881
860.99	22976
861.123	22816
861.256	22786
861.388	22961
861.521	23608
861.653	22698
861.786	22736
861.918	22740
862.05	22733
862.183	22797
862.315	22767
862.447	22824
862.58	22915
862.712	22599
862.844	22485
862.976	22554
863.108	22637
863.24	23124
863.372	22447
863.504	22573
863.636	22683
863.768	22618
863.9	22561
864.032	22455
864.164	22599
864.296	22649
864.428	22687
864.559	22618
864.691	22660
864.823	22489
864.954	22481
865.086	22493
865.217	22512
865.349	22481
865.48	22538
865.612	22394
865.743	22569
865.875	22398
866.006	22413
866.137	22382
866.269	22459
866.4	22443
866.531	22382
866.662	22409
866.793	22386
866.924	22447
867.055	22367
867.186	22436
867.317	22337
867.448	22325
867.579	22432
867.71	22192
867.841	22265
867.972	22371
868.103	22363
868.233	22310
868.364	22382
868.495	22478
868.625	22599
868.756	22721
868.886	22481
869.017	22550
869.147	22645
869.278	22721
869.408	22584
869.539	22588
869.669	22656
869.799	22634
869.929	22786
870.06	22850
870.19	22972
870.32	22904
870.45	23064
870.58	23010
870.71	23128
870.84	23033
870.97	23033
871.1	22976
871.23	23056
871.36	23185
871.489	23041
871.619	23318
871.749	23311
871.879	23307
872.008	23391
872.138	23258
872.267	23311
872.397	23162
872.526	22987
872.656	22877
872.785	23052
872.915	23136
873.044	23425
873.173	23273
873.303	23277
873.432	23292
873.561	23417
873.69	23334
873.819	23322
873.948	23216
874.077	23322
874.206	23162
874.335	23258
874.464	23315
874.593	23356
874.722	23482
874.851	23531
874.979	23471
875.108	23467
875.237	23345
875.365	23311
875.494	23395
875.623	23474
875.751	23440
875.88	23604
876.008	23490
876.136	23570
876.265	23802
876.393	23942
876.521	23969
876.65	23874
876.778	23859
876.906	23859
877.034	23752
877.162	23863
877.29	23733
877.418	23733
877.546	23798
877.674	23627
877.802	23855
877.93	23748
878.058	23710
878.185	23581
878.313	23741
878.441	23676
878.568	23547
878.696	23764
878.824	23786
878.951	23863
879.079	23923
879.206	24030
879.333	23870
879.461	23828
879.588	23817
879.715	23885
879.842	24064
879.97	23786
880.097	23577
880.224	23539
880.351	23756
880.478	23566
880.605	23512
880.732	23512
880.859	23756
880.986	23661
881.112	23646
881.239	23509
881.366	23448
881.493	23261
881.619	23071
881.746	23231
881.872	23265
881.999	23178
882.125	23071
882.252	23189
882.378	23212
882.505	23341
882.631	23048
882.757	22904
882.883	22904
883.01	22740
883.136	22786
883.262	22782
883.388	22599
883.514	22869
883.64	22976
883.766	22702
883.892	22561
884.018	22668
884.143	22774
884.269	22759
884.395	22538
884.52	22287
884.646	22497
884.772	22352
884.897	22291
885.023	22580
885.148	22489
885.274	22607
885.399	22523
885.524	22481
885.65	22557
885.775	22485
885.9	22367
886.025	22573
886.15	22489
886.275	22542
886.4	22382
886.525	22417
886.65	22325
886.775	22356
886.9	22523
887.025	22702
887.149	22428
887.274	22287
887.399	22295
887.523	22253
887.648	22177
887.773	22120
887.897	22310
888.021	22363
888.146	22025
888.27	22215
888.395	22242
888.519	22246
888.643	22284
888.767	22341
888.891	22139
889.015	21949
889.139	22120
889.263	22154
889.387	22112
889.511	22246
889.635	22109
889.759	21899
889.883	22017
890.006	21926
890.13	22090
890.254	21816
890.377	21911
890.501	21854
890.624	21724
890.748	21876
890.871	21686
890.995	21538
891.118	21515
891.241	21557
891.364	21526
891.488	21713
891.611	21583
891.734	21572
891.857	21469
891.98	21534
892.103	21625
892.226	21580
892.349	21473
892.471	21306
892.594	21408
892.717	21435
892.839	21405
892.962	21553
893.085	21469
893.207	21401
893.33	21298
893.452	21367
893.575	21477
893.697	21443
893.819	21549
893.941	21614
894.064	21622
894.186	21363
894.308	21298
894.43	21454
894.552	21538
894.674	21496
894.796	21287
894.918	21302
895.04	21363
895.161	21431
895.283	21424
895.405	21431
895.526	21469
895.648	21389
895.769	21302
895.891	21507
896.012	21576
896.134	21485
896.255	21386
896.376	21447
896.498	21386
896.619	21443
896.74	21397
896.861	21492
896.982	21728
897.103	21880
897.224	21686
897.345	21595
897.466	21557
897.587	21557
897.708	21762
897.828	21701
897.949	21496
898.07	21424
898.19	21492
898.311	21523
898.431	21587
898.552	21568
898.672	21614
898.792	21557
898.913	21447
899.033	21545
899.153	21401
899.273	21237
899.393	21370
899.513	21310
899.633	21367
899.753	21363
899.873	21165
899.993	21298
900.113	21233
900.232	21256
900.352	21161
900.472	21150
900.591	21119
900.711	21001
900.83	21085
900.95	21100
901.069	21203
901.189	21001
901.308	20727
901.427	20636
901.546	20602
901.665	20594
901.784	20609
901.904	20518
902.023	20328
902.141	20180
902.26	20161
902.379	20149
902.498	20225
902.617	20073
902.735	20081
902.854	20088
902.973	19970
903.091	19826
903.21	19791
903.328	19753
903.446	19647
903.565	19624
903.683	19537
903.801	19506
903.919	19594
904.038	19632
904.156	19304
904.274	19472
904.392	19297
904.51	19293
904.627	19422
904.745	19335
904.863	19312
904.981	19152
905.098	19095
905.216	19019
905.334	18993
905.451	18951
905.569	19008
905.686	18962
905.803	19057
905.921	18795
906.038	18920
906.155	18821
906.272	18639
906.389	18722
906.506	18361
906.623	18566
906.74	18563
906.857	18399
906.974	18384
907.091	18547
907.208	18749
907.324	18506
907.441	18448
907.557	18254
907.674	18167
907.79	18190
907.907	18171
908.023	18155
908.139	18273
908.256	18182
908.372	18057
908.488	18140
908.604	18057
908.72	17904
908.836	17954
908.952	17897
909.068	18045
909.184	18053
909.3	17958
909.415	18007
909.531	17847
909.647	17627
909.762	17710
909.878	17668
909.993	17589
910.108	17604
910.224	17562
910.339	17543
910.454	17558
910.57	17505
910.685	17478
910.8	17699
910.915	17573
911.03	17459
911.145	17250
911.259	17147
911.374	17284
911.489	17140
911.604	17140
911.718	16965
911.833	16892
911.947	16934
912.062	16744
912.176	16942
912.291	17003
912.405	16965
912.519	17052
912.633	17178
912.748	16949
912.862	16854
912.976	16698
913.09	16573
913.204	16721
913.318	16774
913.431	16702
913.545	16816
913.659	16854
913.772	16626
913.886	16565
914	16588
914.113	16691
914.226	16649
914.34	16729
914.453	16432
914.566	16516
914.68	16459
914.793	16375
914.906	16162
915.019	16230
915.132	16063
915.245	16017
915.358	16192
915.47	16051
915.583	16131
915.696	16154
915.809	16097
915.921	16234
916.034	15979
916.146	16082
916.259	16025
916.371	15915
916.483	16074
916.595	15892
916.708	15964
916.82	15930
916.932	15888
917.044	15876
917.156	15762
917.268	15717
917.38	15770
917.491	15781
917.603	15698
917.715	15808
917.826	15869
917.938	15648
918.049	15496
918.161	15671
918.272	15804
918.384	15800
918.495	15629
918.606	15447
918.717	15405
918.828	15515
918.939	15511
919.05	15374
919.161	15466
919.272	15207
919.383	15256
919.494	15469
919.604	15610
919.715	15553
919.826	15397
919.936	15389
920.047	15469
920.157	15447
920.267	15595
920.378	15424
920.488	15336
920.598	15675
920.708	15660
920.818	15507
920.928	15473
921.038	15736
921.148	15644
921.258	15313
921.368	15203
921.477	15051
921.587	15119
921.697	15028
921.806	15112
921.916	14906
922.025	14861
922.134	14754
922.244	14716
922.353	14861
922.462	14587
922.571	14644
922.68	14484
922.789	14438
922.898	14484
923.007	14320
923.116	14351
923.224	14377
923.333	14305
923.442	14244
923.55	14225
923.659	14206
923.767	14374
923.876	14221
923.984	14187
924.092	14149
924.201	14103
924.309	14119
924.417	14164
924.525	13986
924.633	14130
924.741	14758
924.849	13795
924.956	14035
925.064	13795
925.172	13765
925.279	13742
925.387	13746
925.494	13807
925.602	13890
925.709	13845
925.816	13693
925.924	13681
926.031	13837
926.138	13662
926.245	13753
926.352	13594
926.459	13719
926.566	13723
926.673	13643
926.779	13468
926.886	13514
926.993	13358
927.099	13297
927.206	13320
927.312	13274
927.419	13289
927.525	13259
927.631	13400
927.737	13232
927.843	13149
927.95	13095
928.056	13072
928.162	13034
928.267	13206
928.373	13731
928.479	13183
928.585	13004
928.69	13015
928.796	13129
928.901	12996
929.007	12871
929.112	12894
929.218	12878
929.323	12928
929.428	12882
929.533	12916
929.638	12665
929.743	12810
929.848	12837
929.953	12825
930.058	12620
930.163	12494
930.267	12525
930.372	12684
930.477	12471
930.581	12623
930.685	12513
930.79	12456
930.894	12365
930.998	12384
931.103	12418
931.207	12083
931.311	12019
931.415	12053
931.519	11783
931.623	11710
