Data from test_V78500241_1698.txt Node
Date: Fri Mar 25 15:53:33 CST 2022
User: usil
Spectrometer: V785-0024
Trigger mode: 0
Integration Time (sec): 4.000000E-1
Scans to average: 1
Nonlinearity correction enabled: false
Boxcar width: 0
Storing dark spectrum: false
XAxis mode: Wavelengths
Number of Pixels in Spectrum: 1024
>>>>>Begin Spectral Data<<<<<
801.071	28249
801.214	28097
801.356	27914
801.499	27766
801.641	27747
801.783	27770
801.926	27720
802.068	27694
802.211	27679
802.353	27618
802.496	27393
802.638	27287
802.78	27264
802.923	27146
803.065	27138
803.208	27336
803.35	27348
803.492	27329
803.635	27549
803.777	27488
803.919	27447
804.061	27778
804.204	27526
804.346	27576
804.488	27511
804.63	27545
804.773	27443
804.915	27576
805.057	27641
805.199	27496
805.341	27603
805.483	27698
805.626	27644
805.768	27568
805.91	27682
806.052	27812
806.194	27545
806.336	27880
806.478	27682
806.62	27679
806.762	27720
806.904	27964
807.046	28314
807.188	28120
807.33	28215
807.472	28200
807.614	28249
807.756	28101
807.898	28051
808.04	27941
808.182	28013
808.324	28029
808.465	27987
808.607	28147
808.749	28284
808.891	28424
809.033	28386
809.174	28360
809.316	28318
809.458	28356
809.6	28367
809.741	28462
809.883	28485
810.025	28683
810.166	28630
810.308	28618
810.45	28592
810.591	28577
810.733	28390
810.875	28341
811.016	28169
811.158	28306
811.299	28478
811.441	28512
811.582	28538
811.724	28287
811.865	28363
812.007	28382
812.148	28272
812.29	28329
812.431	28493
812.573	28584
812.714	28790
812.855	28763
812.997	28980
813.138	29037
813.279	28972
813.421	28820
813.562	28801
813.703	28740
813.845	28656
813.986	28234
814.127	28261
814.268	27972
814.41	28124
814.551	27968
814.692	28070
814.833	27964
814.974	27895
815.115	28090
815.256	27861
815.397	27945
815.539	27827
815.68	27797
815.821	27759
815.962	27759
816.103	27941
816.244	27739
816.385	27759
816.526	27614
816.666	27439
816.807	27355
816.948	27325
817.089	27485
817.23	27283
817.371	27283
817.512	27317
817.653	27226
817.793	27545
817.934	27203
818.075	27310
818.216	27374
818.356	27450
818.497	27142
818.638	26986
818.778	26899
818.919	27157
819.06	27043
819.2	27222
819.341	27351
819.481	27340
819.622	27405
819.762	27778
819.903	27515
820.043	27553
820.184	27561
820.324	27515
820.465	27443
820.605	27431
820.746	27389
820.886	27340
821.026	27443
821.167	27420
821.307	27344
821.447	27370
821.588	27203
821.728	27146
821.868	26921
822.008	26811
822.149	26823
822.289	26819
822.429	26575
822.569	26495
822.709	26651
822.849	26332
822.99	26328
823.13	26244
823.27	26275
823.41	26134
823.55	26062
823.69	26134
823.83	26176
823.97	26115
824.11	25890
824.25	25917
824.389	25906
824.529	25951
824.669	25970
824.809	25989
824.949	26012
825.089	26035
825.228	25928
825.368	25868
825.508	25818
825.648	25784
825.787	25970
825.927	25818
826.067	25769
826.206	25811
826.346	25909
826.485	25849
826.625	25776
826.765	25833
826.904	25932
827.044	25632
827.183	25613
827.323	25476
827.462	25647
827.601	25613
827.741	25285
827.88	25586
828.02	25384
828.159	25479
828.298	25449
828.437	25552
828.577	25609
828.716	25525
828.855	25426
828.994	25221
829.134	25247
829.273	25335
829.412	25194
829.551	25293
829.69	25179
829.829	25362
829.968	25320
830.107	25354
830.246	25316
830.385	25244
830.524	25118
830.663	25213
830.802	24852
830.941	24821
831.08	24810
831.219	24920
831.357	24977
831.496	25031
831.635	24844
831.774	24719
831.913	24700
832.051	24608
832.19	24658
832.329	24658
832.467	24650
832.606	24448
832.744	24391
832.883	24551
833.022	24502
833.16	24547
833.299	24426
833.437	24456
833.576	24582
833.714	24582
833.852	24566
833.991	24623
834.129	24616
834.267	24627
834.406	24593
834.544	24540
834.682	24547
834.821	24646
834.959	24760
835.097	24521
835.235	24570
835.373	24441
835.511	24505
835.65	24483
835.788	24414
835.926	24399
836.064	24243
836.202	24289
836.34	24521
836.478	24323
836.615	24304
836.753	24479
836.891	24414
837.029	24490
837.167	24391
837.305	24361
837.443	24205
837.58	24194
837.718	24273
837.856	24247
837.993	24163
838.131	24159
838.269	24167
838.406	24098
838.544	24076
838.681	23840
838.819	23874
838.956	23779
839.094	23733
839.231	23946
839.369	23874
839.506	24098
839.643	23927
839.781	23699
839.918	23657
840.055	23748
840.193	23665
840.33	23729
840.467	23630
840.604	23581
840.742	23832
840.879	23531
841.016	23387
841.153	23589
841.29	23699
841.427	23493
841.564	23596
841.701	23615
841.838	23490
841.975	23512
842.112	23604
842.249	23341
842.385	23246
842.522	23520
842.659	23395
842.796	23398
842.933	23307
843.069	23356
843.206	23322
843.343	23474
843.479	23360
843.616	23303
843.752	23128
843.889	23162
844.025	23311
844.162	23079
844.298	23140
844.435	23094
844.571	23064
844.708	23132
844.844	23364
844.98	23200
845.117	23273
845.253	23041
845.389	22927
845.525	23044
845.661	23006
845.798	22850
845.934	22835
846.07	22869
846.206	22919
846.342	23025
846.478	22881
846.614	22694
846.75	22466
846.886	22538
847.022	22763
847.158	22531
847.294	22679
847.429	22557
847.565	22569
847.701	22930
847.837	22124
847.972	22379
848.108	22413
848.244	22371
848.379	22223
848.515	22166
848.65	22223
848.786	22249
848.921	22265
849.057	22348
849.192	22299
849.328	22284
849.463	22150
849.598	22105
849.734	22059
849.869	22074
850.004	22036
850.14	22025
850.275	21972
850.41	21888
850.545	21937
850.68	21804
850.815	21922
850.95	21991
851.085	22109
851.22	22013
851.355	22055
851.49	21983
851.625	21915
851.76	21991
851.895	21823
852.03	21903
852.165	21983
852.299	22063
852.434	21972
852.569	22082
852.703	21884
852.838	22051
852.973	22063
853.107	22048
853.242	21903
853.376	21876
853.511	21732
853.645	21720
853.78	21873
853.914	21675
854.048	21694
854.183	21724
854.317	21797
854.451	21865
854.585	21789
854.72	21732
854.854	21831
854.988	21823
855.122	21804
855.256	21739
855.39	21755
855.524	21899
855.658	21781
855.792	21759
855.926	21838
856.06	21876
856.194	21873
856.327	21698
856.461	21743
856.595	21701
856.729	21812
856.862	21854
856.996	21873
857.13	21808
857.263	21755
857.397	21835
857.53	21698
857.664	21865
857.797	21895
857.931	21865
858.064	21854
858.197	21713
858.331	21671
858.464	21701
858.597	21652
858.731	21774
858.864	21892
858.997	21713
859.13	21709
859.263	21770
859.396	21759
859.529	21701
859.662	21629
859.795	21648
859.928	21797
860.061	21915
860.194	21869
860.327	21724
860.46	21785
860.592	21926
860.725	21930
860.858	21983
860.99	21747
861.123	21682
861.256	21622
861.388	21728
861.521	22470
861.653	21698
861.786	21557
861.918	21580
862.05	21599
862.183	21701
862.315	21800
862.447	21774
862.58	21644
862.712	21557
862.844	21523
862.976	21591
863.108	21504
863.24	22017
863.372	21405
863.504	21397
863.636	21447
863.768	21526
863.9	21477
864.032	21435
864.164	21462
864.296	21466
864.428	21519
864.559	21557
864.691	21610
864.823	21564
864.954	21469
865.086	21393
865.217	21397
865.349	21298
865.48	21237
865.612	21351
865.743	21382
865.875	21367
866.006	21378
866.137	21485
866.269	21397
866.4	21401
866.531	21294
866.662	21359
866.793	21233
866.924	21283
867.055	21363
867.186	21450
867.317	21283
867.448	21230
867.579	21272
867.71	21188
867.841	21184
867.972	21313
868.103	21302
868.233	21348
868.364	21344
868.495	21386
868.625	21595
868.756	21572
868.886	21317
869.017	21515
869.147	21644
869.278	21663
869.408	21515
869.539	21507
869.669	21637
869.799	21599
869.929	21656
870.06	21732
870.19	21975
870.32	21869
870.45	21972
870.58	21922
870.71	21922
870.84	22082
870.97	21911
871.1	21983
871.23	22097
871.36	22090
871.489	22185
871.619	22185
871.749	22097
871.879	22181
872.008	22226
872.138	22181
872.267	22135
872.397	21991
872.526	21987
872.656	22051
872.785	22036
872.915	22002
873.044	22360
873.173	22253
873.303	22257
873.432	22337
873.561	22310
873.69	22360
873.819	22188
873.948	22272
874.077	22181
874.206	22135
874.335	22154
874.464	22219
874.593	22405
874.722	22352
874.851	22440
874.979	22447
875.108	22303
875.237	22318
875.365	22367
875.494	22348
875.623	22394
875.751	22322
875.88	22253
876.008	22329
876.136	22546
876.265	22748
876.393	22885
876.521	22915
876.65	22862
876.778	22812
876.906	22672
877.034	22702
877.162	22668
877.29	22664
877.418	22668
877.546	22698
877.674	22767
877.802	22736
877.93	22744
878.058	22691
878.185	22637
878.313	22691
878.441	22546
878.568	22641
878.696	22687
878.824	22759
878.951	22656
879.079	22927
879.206	22923
879.333	22828
879.461	22706
879.588	22740
879.715	22923
879.842	23018
879.97	22733
880.097	22512
880.224	22455
880.351	22569
880.478	22474
880.605	22493
880.732	22500
880.859	22717
880.986	22519
881.112	22596
881.239	22440
881.366	22291
881.493	22097
881.619	22181
881.746	22090
881.872	22116
881.999	22070
882.125	22188
882.252	22086
882.378	22173
882.505	22200
882.631	21956
882.757	21903
882.883	22013
883.01	21789
883.136	21766
883.262	21572
883.388	21572
883.514	21720
883.64	21789
883.766	21755
883.892	21519
884.018	21583
884.143	21804
884.269	21831
884.395	21553
884.52	21424
884.646	21439
884.772	21454
884.897	21291
885.023	21439
885.148	21568
885.274	21606
885.399	21450
885.524	21313
885.65	21428
885.775	21447
885.9	21519
886.025	21644
886.15	21572
886.275	21382
886.4	21298
886.525	21405
886.65	21428
886.775	21302
886.9	21549
887.025	21595
887.149	21363
887.274	21207
887.399	21119
887.523	21104
887.648	21275
887.773	21184
887.897	21275
888.021	21203
888.146	21218
888.27	21173
888.395	21329
888.519	21211
888.643	21195
888.767	21302
888.891	21207
889.015	20979
889.139	21074
889.263	21043
889.387	21135
889.511	21203
889.635	21051
889.759	20963
889.883	20975
890.006	21028
890.13	21211
890.254	20876
890.377	20906
890.501	20648
890.624	20712
890.748	20807
890.871	20659
890.995	20693
891.118	20518
891.241	20640
891.364	20632
891.488	20617
891.611	20575
891.734	20560
891.857	20606
891.98	20522
892.103	20621
892.226	20606
892.349	20568
892.471	20442
892.594	20442
892.717	20606
892.839	20450
892.962	20442
893.085	20499
893.207	20377
893.33	20366
893.452	20419
893.575	20549
893.697	20549
893.819	20640
893.941	20693
894.064	20594
894.186	20446
894.308	20332
894.43	20632
894.552	20545
894.674	20503
894.796	20389
894.918	20320
895.04	20461
895.161	20412
895.283	20495
895.405	20431
895.526	20446
895.648	20419
895.769	20480
895.891	20549
896.012	20632
896.134	20541
896.255	20442
896.376	20400
896.498	20400
896.619	20541
896.74	20495
896.861	20431
896.982	20792
897.103	20842
897.224	20644
897.345	20811
897.466	20522
897.587	20571
897.708	20876
897.828	20735
897.949	20564
898.07	20457
898.19	20670
898.311	20777
898.431	20667
898.552	20716
898.672	20777
898.792	20636
898.913	20746
899.033	20590
899.153	20457
899.273	20374
899.393	20473
899.513	20480
899.633	20488
899.753	20415
899.873	20324
899.993	20374
900.113	20374
900.232	20446
900.352	20248
900.472	20298
900.591	20244
900.711	20199
900.83	20206
900.95	20313
901.069	20298
901.189	20046
901.308	19951
901.427	19791
901.546	19784
901.665	19795
901.784	19731
901.904	19685
902.023	19483
902.141	19407
902.26	19346
902.379	19327
902.498	19426
902.617	19259
902.735	19263
902.854	19259
902.973	19145
903.091	18924
903.21	19027
903.328	18966
903.446	18943
903.565	18852
903.683	18840
903.801	18681
903.919	18688
904.038	18734
904.156	18566
904.274	18642
904.392	18536
904.51	18502
904.627	18498
904.745	18506
904.863	18540
904.981	18429
905.098	18209
905.216	18155
905.334	18247
905.451	18197
905.569	18178
905.686	18209
905.803	18182
905.921	17996
906.038	18064
906.155	18117
906.272	17954
906.389	17885
906.506	17809
906.623	17691
906.74	17794
906.857	17729
906.974	17661
907.091	17805
907.208	17874
907.324	17775
907.441	17741
907.557	17558
907.674	17528
907.79	17516
907.907	17493
908.023	17524
908.139	17535
908.256	17410
908.372	17326
908.488	17250
908.604	17242
908.72	17250
908.836	17227
908.952	17227
909.068	17105
909.184	17208
909.3	17117
909.415	17216
909.531	17121
909.647	16934
909.762	16908
909.878	16885
909.993	16850
910.108	16923
910.224	16812
910.339	16797
910.454	16630
910.57	16694
910.685	16611
910.8	17003
910.915	16828
911.03	16679
911.145	16451
911.259	16573
911.374	16512
911.489	16394
911.604	16230
911.718	16253
911.833	16207
911.947	16086
912.062	16086
912.176	16200
912.291	16219
912.405	16200
912.519	16424
912.633	16493
912.748	16268
912.862	16295
912.976	15949
913.09	15884
913.204	15964
913.318	15994
913.431	16055
913.545	16177
913.659	16120
913.772	15987
913.886	15819
914	15812
914.113	15956
914.226	16032
914.34	15865
914.453	15819
914.566	15781
914.68	15720
914.793	15644
914.906	15393
915.019	15481
915.132	15348
915.245	15367
915.358	15439
915.47	15393
915.583	15408
915.696	15450
915.809	15511
915.921	15610
916.034	15363
916.146	15359
916.259	15157
916.371	15325
916.483	15405
916.595	15233
916.708	15264
916.82	15268
916.932	15119
917.044	15135
917.156	15184
917.268	15055
917.38	15100
917.491	15062
917.603	14990
917.715	15032
917.826	15089
917.938	15043
918.049	14910
918.161	15017
918.272	15150
918.384	15024
918.495	15047
918.606	14830
918.717	14708
918.828	14804
918.939	14963
919.05	14807
919.161	14830
919.272	14648
919.383	14621
919.494	14853
919.604	14956
919.715	14735
919.826	14735
919.936	14640
920.047	14819
920.157	14849
920.267	14960
920.378	14849
920.488	14739
920.598	14876
920.708	15138
920.818	14914
920.928	14902
921.038	15070
921.148	15047
921.258	14674
921.368	14625
921.477	14492
921.587	14579
921.697	14473
921.806	14511
921.916	14343
922.025	14168
922.134	14142
922.244	14142
922.353	14225
922.462	14134
922.571	13955
922.68	13868
922.789	13856
922.898	13826
923.007	13727
923.116	13849
923.224	13826
923.333	13715
923.442	13620
923.55	13556
923.659	13639
923.767	13597
923.876	13521
923.984	13613
924.092	13540
924.201	13552
924.309	13563
924.417	13571
924.525	13457
924.633	13407
924.741	14214
924.849	13255
924.956	13434
925.064	13244
925.172	13194
925.279	13156
925.387	13251
925.494	13168
925.602	13278
925.709	13282
925.816	13069
925.924	13244
926.031	13187
926.138	13137
926.245	13164
926.352	13061
926.459	13065
926.566	13232
926.673	13103
926.779	12890
926.886	12970
926.993	12848
927.099	12719
927.206	12692
927.312	12783
927.419	12719
927.525	12772
927.631	12768
927.737	12612
927.843	12559
927.95	12475
928.056	12536
928.162	12574
928.267	12597
928.373	13270
928.479	12650
928.585	12509
928.69	12525
928.796	12604
928.901	12490
929.007	12319
929.112	12441
929.218	12441
929.323	12357
929.428	12304
929.533	12426
929.638	12266
929.743	12251
929.848	12395
929.953	12228
930.058	12053
930.163	11908
930.267	11942
930.372	12106
930.477	11942
930.581	12213
930.685	12030
930.79	11805
930.894	11851
930.998	11840
931.103	11904
931.207	11581
931.311	11509
931.415	11501
931.519	11261
931.623	11189
