Data from test_V78500241_902.txt Node
Date: Fri Mar 25 15:48:02 CST 2022
User: usil
Spectrometer: V785-0024
Trigger mode: 0
Integration Time (sec): 4.000000E-1
Scans to average: 1
Nonlinearity correction enabled: false
Boxcar width: 0
Storing dark spectrum: false
XAxis mode: Wavelengths
Number of Pixels in Spectrum: 1024
>>>>>Begin Spectral Data<<<<<
801.071	27302
801.214	27279
801.356	26933
801.499	26940
801.641	26864
801.783	26868
801.926	26853
802.068	26918
802.211	26800
802.353	26716
802.496	26370
802.638	26613
802.78	26469
802.923	26461
803.065	26583
803.208	26427
803.35	26537
803.492	26415
803.635	26609
803.777	26385
803.919	26708
804.061	26937
804.204	26705
804.346	26594
804.488	26549
804.63	26594
804.773	26465
804.915	26583
805.057	26670
805.199	26678
805.341	26621
805.483	26693
805.626	26765
805.768	26613
805.91	26781
806.052	26815
806.194	26663
806.336	26887
806.478	26800
806.62	26735
806.762	26883
806.904	27039
807.046	27249
807.188	27260
807.33	27287
807.472	27245
807.614	27150
807.756	27184
807.898	27043
808.04	26902
808.182	26982
808.324	27180
808.465	26952
808.607	27142
808.749	27279
808.891	27466
809.033	27576
809.174	27572
809.316	27367
809.458	27233
809.6	27370
809.741	27450
809.883	27603
810.025	27755
810.166	27637
810.308	27637
810.45	27644
810.591	27424
810.733	27477
810.875	27511
811.016	27252
811.158	27275
811.299	27382
811.441	27652
811.582	27416
811.724	27439
811.865	27222
812.007	27294
812.148	27462
812.29	27359
812.431	27606
812.573	27747
812.714	27922
812.855	27987
812.997	28040
813.138	27972
813.279	28017
813.421	27888
813.562	27941
813.703	27705
813.845	27606
813.986	27348
814.127	27154
814.268	27192
814.41	27081
814.551	27112
814.692	27264
814.833	26902
814.974	26956
815.115	27032
815.256	26948
815.397	26948
815.539	26781
815.68	26815
815.821	26746
815.962	26899
816.103	26754
816.244	26644
816.385	26632
816.526	26693
816.666	26473
816.807	26385
816.948	26571
817.089	26465
817.23	26339
817.371	26298
817.512	26393
817.653	26336
817.793	26115
817.934	26286
818.075	26434
818.216	26317
818.356	26244
818.497	26221
818.638	26115
818.778	26024
818.919	26111
819.06	26206
819.2	26191
819.341	26214
819.481	26415
819.622	26423
819.762	26686
819.903	26663
820.043	26396
820.184	26370
820.324	26442
820.465	26537
820.605	26541
820.746	26518
820.886	26313
821.026	26564
821.167	26419
821.307	26476
821.447	26278
821.588	26172
821.728	26035
821.868	26031
822.008	25807
822.149	25765
822.289	25776
822.429	25605
822.569	25476
822.709	25365
822.849	25369
822.99	25438
823.13	25285
823.27	25236
823.41	25019
823.55	24981
823.69	25164
823.83	25088
823.97	25076
824.11	24871
824.25	24966
824.389	25008
824.529	24970
824.669	24924
824.809	25133
824.949	25019
825.089	25000
825.228	25031
825.368	24734
825.508	24722
825.648	24730
825.787	24844
825.927	24840
826.067	24810
826.206	24768
826.346	24829
826.485	24745
826.625	24745
826.765	24951
826.904	24837
827.044	24627
827.183	24525
827.323	24456
827.462	24597
827.601	24437
827.741	24422
827.88	24445
828.02	24308
828.159	24494
828.298	24528
828.437	24612
828.577	24323
828.716	24608
828.855	24422
828.994	24213
829.134	24197
829.273	24216
829.412	24038
829.551	24114
829.69	24186
829.829	24190
829.968	24174
830.107	24289
830.246	24273
830.385	24209
830.524	24247
830.663	23992
830.802	23874
830.941	23843
831.08	23798
831.219	24110
831.357	23969
831.496	24057
831.635	23790
831.774	23809
831.913	23703
832.051	23623
832.19	23551
832.329	23592
832.467	23474
832.606	23482
832.744	23512
832.883	23452
833.022	23467
833.16	23463
833.299	23554
833.437	23421
833.576	23714
833.714	23551
833.852	23604
833.991	23585
834.129	23566
834.267	23619
834.406	23596
834.544	23589
834.682	23585
834.821	23524
834.959	23741
835.097	23463
835.235	23478
835.373	23471
835.511	23528
835.65	23334
835.788	23334
835.926	23353
836.064	23132
836.202	23235
836.34	23410
836.478	23592
836.615	23356
836.753	23524
836.891	23440
837.029	23421
837.167	23353
837.305	23345
837.443	23193
837.58	23330
837.718	23265
837.856	23296
837.993	23178
838.131	23166
838.269	23174
838.406	23121
838.544	23136
838.681	22904
838.819	22942
838.956	22774
839.094	22615
839.231	22858
839.369	22862
839.506	23162
839.643	23098
839.781	22774
839.918	22706
840.055	22782
840.193	22767
840.33	22653
840.467	22641
840.604	22752
840.742	22877
840.879	22512
841.016	22500
841.153	22565
841.29	22919
841.427	22622
841.564	22668
841.701	22675
841.838	22573
841.975	22481
842.112	22622
842.249	22443
842.385	22447
842.522	22675
842.659	22443
842.796	22356
842.933	22379
843.069	22421
843.206	22394
843.343	22402
843.479	22428
843.616	22211
843.752	22177
843.889	22226
844.025	22375
844.162	22025
844.298	22226
844.435	22177
844.571	22181
844.708	22158
844.844	22318
844.98	22246
845.117	22314
845.253	22025
845.389	22055
845.525	22051
845.661	22101
845.798	21960
845.934	21865
846.07	21899
846.206	21960
846.342	22059
846.478	21899
846.614	21755
846.75	21614
846.886	21671
847.022	21778
847.158	21778
847.294	21736
847.429	21557
847.565	21618
847.701	21888
847.837	21389
847.972	21389
848.108	21450
848.244	21481
848.379	21428
848.515	21207
848.65	21298
848.786	21283
848.921	21325
849.057	21397
849.192	21317
849.328	21275
849.463	21298
849.598	21211
849.734	21138
849.869	21222
850.004	20933
850.14	20982
850.275	21001
850.41	20910
850.545	20963
850.68	21005
850.815	20990
850.95	20899
851.085	21112
851.22	21051
851.355	20982
851.49	20994
851.625	21005
851.76	20929
851.895	20804
852.03	20906
852.165	20971
852.299	21024
852.434	20994
852.569	21055
852.703	21001
852.838	21089
852.973	21142
853.107	20990
853.242	20952
853.376	20861
853.511	20636
853.645	20659
853.78	20861
853.914	20826
854.048	20754
854.183	20788
854.317	20750
854.451	20975
854.585	20830
854.72	20724
854.854	20727
854.988	20819
855.122	21001
855.256	20724
855.39	20849
855.524	20872
855.658	20994
855.792	20899
855.926	20842
856.06	20720
856.194	20876
856.327	20762
856.461	20796
856.595	20735
856.729	20762
856.862	20960
856.996	20872
857.13	20891
857.263	20853
857.397	20952
857.53	20785
857.664	20868
857.797	20925
857.931	20933
858.064	20815
858.197	20975
858.331	20746
858.464	20727
858.597	20648
858.731	20769
858.864	20727
858.997	20857
859.13	20823
859.263	20743
859.396	20944
859.529	20830
859.662	20655
859.795	20731
859.928	20861
860.061	21001
860.194	21081
860.327	20754
860.46	20792
860.592	20933
860.725	20990
860.858	20826
860.99	20800
861.123	20739
861.256	20682
861.388	20914
861.521	21397
861.653	20739
861.786	20655
861.918	20629
862.05	20773
862.183	20651
862.315	20845
862.447	20785
862.58	20758
862.712	20457
862.844	20495
862.976	20651
863.108	20587
863.24	20891
863.372	20457
863.504	20560
863.636	20446
863.768	20625
863.9	20503
864.032	20537
864.164	20454
864.296	20537
864.428	20708
864.559	20587
864.691	20594
864.823	20560
864.954	20476
865.086	20514
865.217	20469
865.349	20412
865.48	20339
865.612	20393
865.743	20644
865.875	20362
866.006	20423
866.137	20465
866.269	20442
866.4	20396
866.531	20408
866.662	20408
866.793	20328
866.924	20328
867.055	20457
867.186	20313
867.317	20377
867.448	20332
867.579	20286
867.71	20366
867.841	20461
867.972	20385
868.103	20404
868.233	20309
868.364	20328
868.495	20476
868.625	20484
868.756	20712
868.886	20522
869.017	20602
869.147	20693
869.278	20739
869.408	20651
869.539	20686
869.669	20853
869.799	20644
869.929	20716
870.06	20800
870.19	20823
870.32	21028
870.45	21001
870.58	20998
870.71	21135
870.84	21131
870.97	20979
871.1	21074
871.23	21214
871.36	21173
871.489	21119
871.619	21176
871.749	21268
871.879	21237
872.008	21230
872.138	21218
872.267	21066
872.397	21058
872.526	21032
872.656	21112
872.785	21150
872.915	21291
873.044	21332
873.173	21241
873.303	21298
873.432	21310
873.561	21374
873.69	21351
873.819	21150
873.948	21393
874.077	21142
874.206	21176
874.335	21176
874.464	21374
874.593	21443
874.722	21374
874.851	21504
874.979	21523
875.108	21370
875.237	21526
875.365	21420
875.494	21363
875.623	21504
875.751	21553
875.88	21496
876.008	21606
876.136	21530
876.265	21808
876.393	21987
876.521	21922
876.65	21960
876.778	21823
876.906	21720
877.034	21759
877.162	21835
877.29	21698
877.418	21823
877.546	21816
877.674	21869
877.802	21816
877.93	21755
878.058	21743
878.185	21652
878.313	21819
878.441	21816
878.568	21625
878.696	21770
878.824	21812
878.951	21861
879.079	21998
879.206	22154
879.333	21991
879.461	21884
879.588	21857
879.715	21972
879.842	22109
879.97	21994
880.097	21690
880.224	21606
880.351	21656
880.478	21728
880.605	21534
880.732	21572
880.859	21789
880.986	21675
881.112	21622
881.239	21488
881.366	21412
881.493	21332
881.619	21336
881.746	21279
881.872	21260
881.999	21169
882.125	21096
882.252	21226
882.378	21325
882.505	21340
882.631	20975
882.757	21005
882.883	21108
883.01	20952
883.136	20842
883.262	20880
883.388	20606
883.514	20933
883.64	20842
883.766	20891
883.892	20731
884.018	20724
884.143	20902
884.269	20960
884.395	20762
884.52	20720
884.646	20598
884.772	20473
884.897	20427
885.023	20606
885.148	20629
885.274	20667
885.399	20655
885.524	20495
885.65	20602
885.775	20465
885.9	20640
886.025	20629
886.15	20765
886.275	20518
886.4	20526
886.525	20537
886.65	20484
886.775	20446
886.9	20575
887.025	20648
887.149	20533
887.274	20343
887.399	20419
887.523	20290
887.648	20237
887.773	20332
887.897	20438
888.021	20374
888.146	20263
888.27	20415
888.395	20347
888.519	20374
888.643	20355
888.767	20343
888.891	20256
889.015	20191
889.139	20126
889.263	20088
889.387	20305
889.511	20366
889.635	20282
889.759	20069
889.883	20172
890.006	20149
890.13	20229
890.254	20229
890.377	20187
890.501	19833
890.624	20001
890.748	19875
890.871	19807
890.995	19738
891.118	19681
891.241	19791
891.364	19723
891.488	19860
891.611	19795
891.734	19772
891.857	19784
891.98	19738
892.103	19738
892.226	19677
892.349	19746
892.471	19476
892.594	19784
892.717	19742
892.839	19658
892.962	19662
893.085	19677
893.207	19586
893.33	19601
893.452	19662
893.575	19757
893.697	19655
893.819	19635
893.941	19818
894.064	19738
894.186	19537
894.308	19635
894.43	19635
894.552	19814
894.674	19765
894.796	19643
894.918	19693
895.04	19681
895.161	19662
895.283	19807
895.405	19552
895.526	19616
895.648	19613
895.769	19753
895.891	19696
896.012	19681
896.134	19643
896.255	19685
896.376	19639
896.498	19719
896.619	19715
896.74	19639
896.861	19704
896.982	19906
897.103	20199
897.224	19936
897.345	19890
897.466	19837
897.587	19879
897.708	20027
897.828	19932
897.949	19822
898.07	19628
898.19	19864
898.311	19967
898.431	19753
898.552	19917
898.672	19947
898.792	19982
898.913	19997
899.033	19784
899.153	19700
899.273	19559
899.393	19719
899.513	19578
899.633	19639
899.753	19643
899.873	19685
899.993	19666
900.113	19662
900.232	19613
900.352	19426
900.472	19537
900.591	19308
900.711	19491
900.83	19411
900.95	19487
901.069	19518
901.189	19403
901.308	19160
901.427	18977
901.546	19012
901.665	19061
901.784	18981
901.904	18890
902.023	18821
902.141	18646
902.26	18532
902.379	18620
902.498	18639
902.617	18608
902.735	18536
902.854	18418
902.973	18426
903.091	18235
903.21	18216
903.328	18190
903.446	18148
903.565	18076
903.683	18019
903.801	17878
903.919	17965
904.038	17969
904.156	17836
904.274	17805
904.392	17764
904.51	17729
904.627	17760
904.745	17809
904.863	17828
904.981	17554
905.098	17372
905.216	17509
905.334	17376
905.451	17452
905.569	17425
905.686	17509
905.803	17436
905.921	17242
906.038	17216
906.155	17315
906.272	17105
906.389	17189
906.506	17041
906.623	17045
906.74	17064
906.857	16850
906.974	16900
907.091	17090
907.208	17143
907.324	17014
907.441	16976
907.557	16771
907.674	16702
907.79	16653
907.907	16736
908.023	16812
908.139	16725
908.256	16664
908.372	16725
908.488	16607
908.604	16443
908.72	16428
908.836	16523
908.952	16466
909.068	16527
909.184	16470
909.3	16379
909.415	16424
909.531	16360
909.647	16169
909.762	16181
909.878	16177
909.993	16093
910.108	16071
910.224	16055
910.339	16063
910.454	16192
910.57	15953
910.685	15884
910.8	16154
910.915	16188
911.03	15994
911.145	15724
911.259	15766
911.374	15755
911.489	15701
911.604	15625
911.718	15488
911.833	15523
911.947	15443
912.062	15294
912.176	15603
912.291	15500
912.405	15591
912.519	15705
912.633	15637
912.748	15454
912.862	15428
912.976	15370
913.09	15176
913.204	15329
913.318	15245
913.431	15302
913.545	15363
913.659	15382
913.772	15245
913.886	15150
914	15138
914.113	15188
914.226	15165
914.34	15184
914.453	14956
914.566	15119
914.68	15077
914.793	14982
914.906	14804
915.019	14769
915.132	14781
915.245	14792
915.358	14807
915.47	14754
915.583	14781
915.696	14785
915.809	14815
915.921	14864
916.034	14697
916.146	14598
916.259	14575
916.371	14830
916.483	14636
916.595	14602
916.708	14537
916.82	14564
916.932	14526
917.044	14583
917.156	14682
917.268	14419
917.38	14434
917.491	14415
917.603	14404
917.715	14507
917.826	14518
917.938	14298
918.049	14305
918.161	14351
918.272	14579
918.384	14434
918.495	14313
918.606	14229
918.717	14187
918.828	14199
918.939	14153
919.05	14161
919.161	14233
919.272	13913
919.383	14096
919.494	14180
919.604	14355
919.715	14119
919.826	14016
919.936	14062
920.047	14233
920.157	14092
920.267	14256
920.378	14183
920.488	14130
920.598	14351
920.708	14431
920.818	14221
920.928	14233
921.038	14480
921.148	14446
921.258	14062
921.368	13986
921.477	13925
921.587	13913
921.697	13738
921.806	13947
921.916	13772
922.025	13605
922.134	13571
922.244	13529
922.353	13563
922.462	13373
922.571	13403
922.68	13206
922.789	13110
922.898	13282
923.007	13088
923.116	13232
923.224	13206
923.333	13202
923.442	13019
923.55	13012
923.659	13072
923.767	13053
923.876	13046
923.984	13080
924.092	12958
924.201	13050
924.309	12985
924.417	12996
924.525	12749
924.633	12909
924.741	13841
924.849	12627
924.956	12814
925.064	12658
925.172	12570
925.279	12692
925.387	12684
925.494	12665
925.602	12802
925.709	12654
925.816	12540
925.924	12604
926.031	12612
926.138	12578
926.245	12585
926.352	12437
926.459	12639
926.566	12635
926.673	12566
926.779	12372
926.886	12422
926.993	12266
927.099	12273
927.206	12220
927.312	12125
927.419	12239
927.525	12258
927.631	12209
927.737	12133
927.843	12038
927.95	11988
928.056	12121
928.162	12068
928.267	12057
928.373	12555
928.479	12114
928.585	11893
928.69	11923
928.796	11935
928.901	11794
929.007	11752
929.112	11897
929.218	11798
929.323	11847
929.428	11786
929.533	11939
929.638	11748
929.743	11741
929.848	11779
929.953	11870
930.058	11646
930.163	11444
930.267	11490
930.372	11600
930.477	11410
930.581	11638
930.685	11414
930.79	11376
930.894	11402
930.998	11429
931.103	11467
931.207	11128
931.311	11041
931.415	10938
931.519	10763
931.623	10721
