Data from test_V78500241_3620.txt Node
Date: Fri Mar 25 16:06:52 CST 2022
User: usil
Spectrometer: V785-0024
Trigger mode: 0
Integration Time (sec): 4.000000E-1
Scans to average: 1
Nonlinearity correction enabled: false
Boxcar width: 0
Storing dark spectrum: false
XAxis mode: Wavelengths
Number of Pixels in Spectrum: 1024
>>>>>Begin Spectral Data<<<<<
801.071	28858
801.214	28702
801.356	28481
801.499	28470
801.641	28341
801.783	28360
801.926	28352
802.068	28314
802.211	28280
802.353	28295
802.496	28234
802.638	28051
802.78	28169
802.923	28109
803.065	27899
803.208	28017
803.35	28044
803.492	28215
803.635	28280
803.777	28181
803.919	28341
804.061	28588
804.204	28405
804.346	28284
804.488	28188
804.63	28253
804.773	28242
804.915	28322
805.057	28379
805.199	28196
805.341	28303
805.483	28535
805.626	28588
805.768	28314
805.91	28462
806.052	28599
806.194	28356
806.336	28550
806.478	28554
806.62	28462
806.762	28672
806.904	28790
807.046	29018
807.188	28904
807.33	29025
807.472	28854
807.614	29006
807.756	28938
807.898	28725
808.04	28721
808.182	28641
808.324	28881
808.465	29003
808.607	29136
808.749	29311
808.891	29296
809.033	29299
809.174	29315
809.316	29227
809.458	29258
809.6	29178
809.741	29227
809.883	29250
810.025	29433
810.166	29429
810.308	29501
810.45	29482
810.591	29455
810.733	29200
810.875	29208
811.016	29353
811.158	29204
811.299	29364
811.441	29387
811.582	29353
811.724	29204
811.865	29151
812.007	29368
812.148	29280
812.29	29235
812.431	29478
812.573	29520
812.714	29554
812.855	29764
812.997	29741
813.138	29969
813.279	29882
813.421	29729
813.562	29657
813.703	29604
813.845	29478
813.986	28991
814.127	29067
814.268	28919
814.41	28927
814.551	28869
814.692	28877
814.833	28904
814.974	28862
815.115	28892
815.256	28759
815.397	28809
815.539	28786
815.68	28881
815.821	28672
815.962	28683
816.103	28603
816.244	28622
816.385	28634
816.526	28409
816.666	28272
816.807	28177
816.948	28299
817.089	28413
817.23	28200
817.371	28291
817.512	28276
817.653	28276
817.793	28268
817.934	28169
818.075	28211
818.216	28280
818.356	28242
818.497	28036
818.638	27972
818.778	27964
818.919	28063
819.06	28116
819.2	28017
819.341	28253
819.481	28173
819.622	28447
819.762	28527
819.903	28405
820.043	28508
820.184	28432
820.324	28341
820.465	28409
820.605	28428
820.746	28341
820.886	28139
821.026	28390
821.167	28352
821.307	28409
821.447	28253
821.588	28143
821.728	28082
821.868	27880
822.008	27770
822.149	27701
822.289	27755
822.429	27496
822.569	27408
822.709	27382
822.849	27230
822.99	27302
823.13	27112
823.27	27112
823.41	27074
823.55	26963
823.69	27188
823.83	27039
823.97	27055
824.11	26853
824.25	26823
824.389	26914
824.529	26967
824.669	26845
824.809	27013
824.949	26883
825.089	26910
825.228	27043
825.368	26632
825.508	26644
825.648	26807
825.787	26933
825.927	26861
826.067	26739
826.206	26781
826.346	26648
826.485	26754
826.625	26796
826.765	26929
826.904	26811
827.044	26518
827.183	26606
827.323	26503
827.462	26495
827.601	26655
827.741	26587
827.88	26469
828.02	26541
828.159	26556
828.298	26545
828.437	26575
828.577	26549
828.716	26518
828.855	26290
828.994	26157
829.134	26267
829.273	26233
829.412	26122
829.551	26168
829.69	26111
829.829	26240
829.968	26206
830.107	26195
830.246	26130
830.385	26191
830.524	25883
830.663	26008
830.802	25803
830.941	25727
831.08	25727
831.219	25791
831.357	25738
831.496	25966
831.635	25734
831.774	25746
831.913	25548
832.051	25620
832.19	25609
832.329	25514
832.467	25495
832.606	25457
832.744	25365
832.883	25476
833.022	25388
833.16	25384
833.299	25407
833.437	25620
833.576	25499
833.714	25506
833.852	25567
833.991	25556
834.129	25575
834.267	25590
834.406	25453
834.544	25491
834.682	25483
834.821	25445
834.959	25731
835.097	25468
835.235	25544
835.373	25609
835.511	25590
835.65	25491
835.788	25392
835.926	25175
836.064	25084
836.202	25187
836.34	25327
836.478	25381
836.615	25324
836.753	25236
836.891	25430
837.029	25293
837.167	25263
837.305	25289
837.443	25213
837.58	25213
837.718	25206
837.856	25209
837.993	25084
838.131	25110
838.269	25031
838.406	25126
838.544	24825
838.681	24772
838.819	24681
838.956	24525
839.094	24559
839.231	24776
839.369	24730
839.506	25069
839.643	24939
839.781	24669
839.918	24528
840.055	24673
840.193	24540
840.33	24623
840.467	24456
840.604	24528
840.742	24825
840.879	24376
841.016	24536
841.153	24407
841.29	24726
841.427	24445
841.564	24612
841.701	24559
841.838	24505
841.975	24452
842.112	24353
842.249	24266
842.385	24319
842.522	24536
842.659	24220
842.796	24353
842.933	24346
843.069	24224
843.206	24098
843.343	24285
843.479	24281
843.616	24300
843.752	24133
843.889	24091
844.025	24247
844.162	24110
844.298	24091
844.435	24079
844.571	24034
844.708	24133
844.844	24152
844.98	24251
845.117	24159
845.253	24110
845.389	23946
845.525	23893
845.661	23863
845.798	23851
845.934	23882
846.07	23897
846.206	23874
846.342	23866
846.478	23828
846.614	23562
846.75	23433
846.886	23520
847.022	23665
847.158	23520
847.294	23520
847.429	23455
847.565	23596
847.701	23646
847.837	23220
847.972	23151
848.108	23349
848.244	23292
848.379	23067
848.515	23010
848.65	23105
848.786	23166
848.921	23056
849.057	23159
849.192	23117
849.328	23227
849.463	23067
849.598	22915
849.734	22896
849.869	22919
850.004	22953
850.14	22858
850.275	22904
850.41	22892
850.545	22733
850.68	22869
850.815	22835
850.95	22866
851.085	22968
851.22	22984
851.355	22911
851.49	22881
851.625	22801
851.76	22820
851.895	22698
852.03	22771
852.165	22778
852.299	22946
852.434	23003
852.569	22896
852.703	23014
852.838	22908
852.973	23064
853.107	23044
853.242	22904
853.376	22782
853.511	22466
853.645	22694
853.78	22805
853.914	22744
854.048	22611
854.183	22641
854.317	22790
854.451	22984
854.585	22850
854.72	22599
854.854	22782
854.988	22637
855.122	22691
855.256	22637
855.39	22729
855.524	22816
855.658	22733
855.792	22744
855.926	22729
856.06	22801
856.194	22748
856.327	22706
856.461	22679
856.595	22618
856.729	22729
856.862	22790
856.996	22729
857.13	22683
857.263	22748
857.397	22744
857.53	22592
857.664	22793
857.797	22797
857.931	22843
858.064	22713
858.197	22771
858.331	22641
858.464	22675
858.597	22596
858.731	22710
858.864	22755
858.997	22683
859.13	22767
859.263	22656
859.396	22679
859.529	22866
859.662	22603
859.795	22599
859.928	22752
860.061	22828
860.194	22942
860.327	22615
860.46	22702
860.592	22748
860.725	22710
860.858	22748
860.99	22755
861.123	22588
861.256	22615
861.388	22706
861.521	23486
861.653	22611
861.786	22382
861.918	22474
862.05	22588
862.183	22592
862.315	22599
862.447	22698
862.58	22615
862.712	22356
862.844	22409
862.976	22421
863.108	22577
863.24	22930
863.372	22360
863.504	22474
863.636	22405
863.768	22481
863.9	22489
864.032	22409
864.164	22447
864.296	22459
864.428	22474
864.559	22394
864.691	22508
864.823	22459
864.954	22185
865.086	22390
865.217	22360
865.349	22295
865.48	22333
865.612	22310
865.743	22371
865.875	22356
866.006	22238
866.137	22318
866.269	22303
866.4	22226
866.531	22310
866.662	22181
866.793	22067
866.924	22207
867.055	22276
867.186	22147
867.317	22090
867.448	22086
867.579	22223
867.71	22166
867.841	22135
867.972	22261
868.103	22093
868.233	22116
868.364	22211
868.495	22284
868.625	22489
868.756	22561
868.886	22382
869.017	22424
869.147	22565
869.278	22546
869.408	22470
869.539	22428
869.669	22508
869.799	22565
869.929	22634
870.06	22504
870.19	22831
870.32	22733
870.45	22812
870.58	22752
870.71	22919
870.84	22892
870.97	22904
871.1	22809
871.23	23052
871.36	23121
871.489	22889
871.619	22930
871.749	23102
871.879	23178
872.008	23105
872.138	23079
872.267	23041
872.397	23037
872.526	22873
872.656	22892
872.785	22885
872.915	22965
873.044	23090
873.173	23090
873.303	23105
873.432	23166
873.561	23075
873.69	23025
873.819	23136
873.948	23094
874.077	23044
874.206	23121
874.335	23128
874.464	23181
874.593	23334
874.722	23246
874.851	23334
874.979	23246
875.108	23284
875.237	23174
875.365	23155
875.494	23200
875.623	23341
875.751	23299
875.88	23326
876.008	23280
876.136	23455
876.265	23653
876.393	23748
876.521	23779
876.65	23775
876.778	23741
876.906	23646
877.034	23573
877.162	23653
877.29	23509
877.418	23592
877.546	23547
877.674	23516
877.802	23551
877.93	23672
878.058	23497
878.185	23429
878.313	23653
878.441	23524
878.568	23406
878.696	23687
878.824	23707
878.951	23653
879.079	23840
879.206	23980
879.333	23775
879.461	23687
879.588	23695
879.715	23843
879.842	23828
879.97	23836
880.097	23524
880.224	23398
880.351	23524
880.478	23452
880.605	23425
880.732	23387
880.859	23615
880.986	23444
881.112	23482
881.239	23235
881.366	23121
881.493	23056
881.619	22946
881.746	22965
881.872	22908
881.999	22961
882.125	22900
882.252	23094
882.378	23010
882.505	23022
882.631	22892
882.757	22828
882.883	22908
883.01	22774
883.136	22573
883.262	22554
883.388	22474
883.514	22702
883.64	22672
883.766	22470
883.892	22341
884.018	22436
884.143	22542
884.269	22778
884.395	22386
884.52	22322
884.646	22303
884.772	22185
884.897	22207
885.023	22390
885.148	22242
885.274	22474
885.399	22432
885.524	22284
885.65	22204
885.775	22272
885.9	22265
886.025	22291
886.15	22325
886.275	22147
886.4	22128
886.525	22234
886.65	22139
886.775	22154
886.9	22356
887.025	22409
887.149	22272
887.274	22010
887.399	22017
887.523	21994
887.648	21983
887.773	21850
887.897	21983
888.021	22044
888.146	21975
888.27	22082
888.395	22154
888.519	22150
888.643	22086
888.767	22185
888.891	21975
889.015	21831
889.139	21949
889.263	21812
889.387	21975
889.511	22090
889.635	21907
889.759	21694
889.883	21789
890.006	21911
890.13	21869
890.254	21739
890.377	21808
890.501	21538
890.624	21576
890.748	21618
890.871	21511
890.995	21336
891.118	21443
891.241	21393
891.364	21348
891.488	21458
891.611	21443
891.734	21389
891.857	21393
891.98	21348
892.103	21549
892.226	21344
892.349	21241
892.471	21150
892.594	21279
892.717	21268
892.839	21272
892.962	21123
893.085	21370
893.207	21306
893.33	21085
893.452	21214
893.575	21302
893.697	21188
893.819	21473
893.941	21580
894.064	21393
894.186	21256
894.308	21123
894.43	21294
894.552	21443
894.674	21370
894.796	21264
894.918	21310
895.04	21165
895.161	21317
895.283	21279
895.405	21199
895.526	21237
895.648	21294
895.769	21336
895.891	21313
896.012	21214
896.134	21321
896.255	21283
896.376	21233
896.498	21268
896.619	21230
896.74	21169
896.861	21321
896.982	21530
897.103	21660
897.224	21435
897.345	21424
897.466	21389
897.587	21561
897.708	21500
897.828	21469
897.949	21393
898.07	21405
898.19	21363
898.311	21519
898.431	21241
898.552	21348
898.672	21542
898.792	21485
898.913	21424
899.033	21336
899.153	21249
899.273	21188
899.393	21036
899.513	21180
899.633	21211
899.753	21138
899.873	21123
899.993	21218
900.113	21150
900.232	21108
900.352	21005
900.472	20967
900.591	20910
900.711	21005
900.83	20937
900.95	21100
901.069	20948
901.189	20823
901.308	20526
901.427	20450
901.546	20541
901.665	20613
901.784	20469
901.904	20328
902.023	20309
902.141	20031
902.26	19932
902.379	20142
902.498	20016
902.617	19811
902.735	20058
902.854	20027
902.973	19913
903.091	19635
903.21	19662
903.328	19677
903.446	19578
903.565	19502
903.683	19411
903.801	19350
903.919	19445
904.038	19297
904.156	19217
904.274	19327
904.392	19293
904.51	19206
904.627	19335
904.745	19244
904.863	19278
904.981	19065
905.098	18878
905.216	18951
905.334	18856
905.451	18935
905.569	18703
905.686	18882
905.803	18890
905.921	18722
906.038	18734
906.155	18764
906.272	18521
906.389	18574
906.506	18547
906.623	18418
906.74	18342
906.857	18342
906.974	18277
907.091	18475
907.208	18445
907.324	18422
907.441	18133
907.557	18178
907.674	18041
907.79	17969
907.907	18266
908.023	18072
908.139	18159
908.256	18079
908.372	18007
908.488	17954
908.604	17908
908.72	17863
908.836	17836
908.952	17798
909.068	17805
909.184	17939
909.3	17771
909.415	17847
909.531	17821
909.647	17406
909.762	17501
909.878	17539
909.993	17535
910.108	17478
910.224	17467
910.339	17562
910.454	17398
910.57	17379
910.685	17284
910.8	17539
910.915	17478
911.03	17208
911.145	17189
911.259	17003
911.374	17014
911.489	17048
911.604	17006
911.718	16930
911.833	16862
911.947	16752
912.062	16706
912.176	16706
912.291	16828
912.405	16809
912.519	17048
912.633	17014
912.748	16793
912.862	16774
912.976	16691
913.09	16573
913.204	16554
913.318	16599
913.431	16660
913.545	16755
913.659	16698
913.772	16607
913.886	16379
914	16424
914.113	16538
914.226	16497
914.34	16516
914.453	16234
914.566	16455
914.68	16287
914.793	16162
914.906	16051
915.019	15953
915.132	15983
915.245	15960
915.358	15949
915.47	15956
915.583	15949
915.696	16002
915.809	16078
915.921	16124
916.034	16006
916.146	15895
916.259	15816
916.371	15972
916.483	15937
916.595	15907
916.708	15876
916.82	15713
916.932	15873
917.044	15724
917.156	15720
917.268	15572
917.38	15705
917.491	15622
917.603	15641
917.715	15622
917.826	15656
917.938	15553
918.049	15428
918.161	15462
918.272	15675
918.384	15663
918.495	15469
918.606	15363
918.717	15298
918.828	15291
918.939	15428
919.05	15313
919.161	15321
919.272	15119
919.383	15256
919.494	15351
919.604	15564
919.715	15348
919.826	15230
919.936	15252
920.047	15359
920.157	15214
920.267	15481
920.378	15291
920.488	15283
920.598	15435
920.708	15572
920.818	15431
920.928	15424
921.038	15538
921.148	15538
921.258	15268
921.368	15161
921.477	14975
921.587	15036
921.697	14876
921.806	15043
921.916	14864
922.025	14659
922.134	14617
922.244	14579
922.353	14720
922.462	14518
922.571	14438
922.68	14278
922.789	14294
922.898	14355
923.007	14290
923.116	14263
923.224	14256
923.333	14225
923.442	14157
923.55	14130
923.659	14119
923.767	14172
923.876	14084
923.984	14115
924.092	14027
924.201	14092
924.309	13986
924.417	14005
924.525	13879
924.633	13849
924.741	14933
924.849	13738
924.956	13833
925.064	13700
925.172	13677
925.279	13582
925.387	13677
925.494	13658
925.602	13830
925.709	13708
925.816	13620
925.924	13632
926.031	13765
926.138	13605
926.245	13689
926.352	13521
926.459	13693
926.566	13658
926.673	13525
926.779	13384
926.886	13495
926.993	13202
927.099	13187
927.206	13072
927.312	13103
927.419	13251
927.525	13255
927.631	13228
927.737	13114
927.843	13004
927.95	13004
928.056	13103
928.162	13069
928.267	13042
928.373	13628
928.479	13057
928.585	12791
928.69	12985
928.796	12993
928.901	12890
929.007	12798
929.112	12863
929.218	12867
929.323	12814
929.428	12696
929.533	12859
929.638	12639
929.743	12646
929.848	12757
929.953	12563
930.058	12650
930.163	12292
930.267	12429
930.372	12559
930.477	12266
930.581	12559
930.685	12486
930.79	12224
930.894	12315
930.998	12243
931.103	12403
931.207	12007
931.311	11885
931.415	11893
931.519	11646
931.623	11680
