Data from test_V78500241_1010.txt Node
Date: Fri Mar 25 15:48:47 CST 2022
User: usil
Spectrometer: V785-0024
Trigger mode: 0
Integration Time (sec): 4.000000E-1
Scans to average: 1
Nonlinearity correction enabled: false
Boxcar width: 0
Storing dark spectrum: false
XAxis mode: Wavelengths
Number of Pixels in Spectrum: 1024
>>>>>Begin Spectral Data<<<<<
801.071	28120
801.214	27945
801.356	27732
801.499	27743
801.641	27618
801.783	27755
801.926	27656
802.068	27648
802.211	27603
802.353	27397
802.496	27412
802.638	27241
802.78	27386
802.923	27142
803.065	27131
803.208	27226
803.35	27211
803.492	27275
803.635	27348
803.777	27401
803.919	27435
804.061	27728
804.204	27454
804.346	27458
804.488	27294
804.63	27534
804.773	27291
804.915	27564
805.057	27526
805.199	27469
805.341	27618
805.483	27755
805.626	27542
805.768	27553
805.91	27671
806.052	27679
806.194	27778
806.336	27838
806.478	27606
806.62	27469
806.762	27899
806.904	27827
807.046	28196
807.188	27998
807.33	28105
807.472	28112
807.614	28029
807.756	28116
807.898	27998
808.04	27930
808.182	27869
808.324	27926
808.465	27861
808.607	28143
808.749	28375
808.891	28344
809.033	28451
809.174	28401
809.316	28234
809.458	28188
809.6	28272
809.741	28500
809.883	28382
810.025	28599
810.166	28592
810.308	28691
810.45	28710
810.591	28596
810.733	28337
810.875	28325
811.016	28158
811.158	28230
811.299	28405
811.441	28500
811.582	28474
811.724	28394
811.865	28318
812.007	28303
812.148	28272
812.29	28341
812.431	28493
812.573	28691
812.714	28740
812.855	28938
812.997	29067
813.138	29105
813.279	28949
813.421	28698
813.562	28793
813.703	28717
813.845	28512
813.986	28249
814.127	28105
814.268	28067
814.41	27968
814.551	28010
814.692	27880
814.833	27884
814.974	28021
815.115	28090
815.256	27979
815.397	27945
815.539	27713
815.68	27766
815.821	27831
815.962	27835
816.103	27804
816.244	27606
816.385	27690
816.526	27568
816.666	27329
816.807	27351
816.948	27485
817.089	27412
817.23	27367
817.371	27367
817.512	27306
817.653	27203
817.793	27184
817.934	27275
818.075	27348
818.216	27256
818.356	27252
818.497	27154
818.638	27001
818.778	27028
818.919	27013
819.06	27180
819.2	27093
819.341	27241
819.481	27275
819.622	27374
819.762	27629
819.903	27504
820.043	27393
820.184	27515
820.324	27325
820.465	27378
820.605	27542
820.746	27405
820.886	27272
821.026	27412
821.167	27397
821.307	27450
821.447	27302
821.588	27207
821.728	27116
821.868	26925
822.008	26834
822.149	26823
822.289	26693
822.429	26492
822.569	26526
822.709	26294
822.849	26389
822.99	26343
823.13	26290
823.27	26339
823.41	26024
823.55	25898
823.69	26050
823.83	26088
823.97	26008
824.11	25841
824.25	25894
824.389	25822
824.529	25993
824.669	25837
824.809	26031
824.949	26054
825.089	26046
825.228	25944
825.368	25765
825.508	25845
825.648	25860
825.787	25982
825.927	26058
826.067	25738
826.206	25693
826.346	25772
826.485	25868
826.625	25868
826.765	25799
826.904	25811
827.044	25578
827.183	25567
827.323	25388
827.462	25586
827.601	25537
827.741	25422
827.88	25620
828.02	25403
828.159	25468
828.298	25594
828.437	25533
828.577	25479
828.716	25544
828.855	25373
828.994	25308
829.134	25160
829.273	25350
829.412	25126
829.551	25122
829.69	25198
829.829	25217
829.968	25232
830.107	25266
830.246	25133
830.385	25221
830.524	25038
830.663	25042
830.802	24882
830.941	24837
831.08	24939
831.219	24951
831.357	24878
831.496	24966
831.635	24882
831.774	24768
831.913	24604
832.051	24620
832.19	24631
832.329	24639
832.467	24403
832.606	24433
832.744	24456
832.883	24429
833.022	24330
833.16	24490
833.299	24372
833.437	24544
833.576	24483
833.714	24467
833.852	24578
833.991	24601
834.129	24464
834.267	24601
834.406	24475
834.544	24563
834.682	24563
834.821	24494
834.959	24544
835.097	24486
835.235	24582
835.373	24513
835.511	24582
835.65	24437
835.788	24422
835.926	24216
836.064	24121
836.202	24106
836.34	24289
836.478	24384
836.615	24369
836.753	24342
836.891	24308
837.029	24502
837.167	24289
837.305	24407
837.443	24239
837.58	24159
837.718	24197
837.856	24133
837.993	24098
838.131	24087
838.269	23969
838.406	24270
838.544	24011
838.681	23821
838.819	23779
838.956	23577
839.094	23718
839.231	23809
839.369	23847
839.506	24110
839.643	23965
839.781	23592
839.918	23646
840.055	23596
840.193	23608
840.33	23520
840.467	23570
840.604	23566
840.742	23824
840.879	23360
841.016	23478
841.153	23410
841.29	23566
841.427	23585
841.564	23714
841.701	23566
841.838	23547
841.975	23570
842.112	23528
842.249	23520
842.385	23448
842.522	23520
842.659	23387
842.796	23200
842.933	23315
843.069	23296
843.206	23212
843.343	23288
843.479	23280
843.616	23337
843.752	23170
843.889	23086
844.025	23261
844.162	23056
844.298	23105
844.435	23086
844.571	22930
844.708	23204
844.844	23254
844.98	23299
845.117	23204
845.253	22946
845.389	22877
845.525	22965
845.661	22915
845.798	22702
845.934	22915
846.07	22824
846.206	22927
846.342	22904
846.478	22767
846.614	22618
846.75	22493
846.886	22481
847.022	22466
847.158	22615
847.294	22630
847.429	22569
847.565	22402
847.701	22866
847.837	22272
847.972	22284
848.108	22379
848.244	22512
848.379	22173
848.515	22215
848.65	22093
848.786	22124
848.921	22158
849.057	22261
849.192	22207
849.328	22169
849.463	22143
849.598	22223
849.734	22116
849.869	21915
850.004	21922
850.14	21953
850.275	21918
850.41	21911
850.545	22029
850.68	21842
850.815	21819
850.95	21831
851.085	22078
851.22	22204
851.355	21827
851.49	21808
851.625	21846
851.76	21895
851.895	21789
852.03	21915
852.165	21991
852.299	21998
852.434	22040
852.569	21972
852.703	22010
852.838	21960
852.973	22196
853.107	22128
853.242	21785
853.376	21816
853.511	21667
853.645	21774
853.78	21899
853.914	21835
854.048	21656
854.183	21698
854.317	21732
854.451	21869
854.585	21884
854.72	21679
854.854	21816
854.988	21667
855.122	21823
855.256	21663
855.39	21717
855.524	21865
855.658	21785
855.792	21728
855.926	21778
856.06	21854
856.194	21770
856.327	21793
856.461	21644
856.595	21781
856.729	21720
856.862	21926
856.996	21800
857.13	21766
857.263	21941
857.397	21812
857.53	21781
857.664	21812
857.797	21778
857.931	21899
858.064	21831
858.197	21854
858.331	21728
858.464	21698
858.597	21667
858.731	21728
858.864	21846
858.997	21652
859.13	21766
859.263	21857
859.396	21926
859.529	21660
859.662	21736
859.795	21637
859.928	21838
860.061	21895
860.194	21975
860.327	21755
860.46	21766
860.592	21846
860.725	21975
860.858	21869
860.99	21892
861.123	21724
861.256	21709
861.388	21759
861.521	22519
861.653	21656
861.786	21530
861.918	21526
862.05	21542
862.183	21736
862.315	21633
862.447	21762
862.58	21713
862.712	21454
862.844	21424
862.976	21450
863.108	21534
863.24	21850
863.372	21321
863.504	21606
863.636	21443
863.768	21515
863.9	21526
864.032	21443
864.164	21428
864.296	21469
864.428	21576
864.559	21576
864.691	21447
864.823	21469
864.954	21359
865.086	21424
865.217	21291
865.349	21272
865.48	21443
865.612	21272
865.743	21500
865.875	21447
866.006	21222
866.137	21325
866.269	21382
866.4	21264
866.531	21252
866.662	21218
866.793	21268
866.924	21283
867.055	21348
867.186	21363
867.317	21241
867.448	21131
867.579	21207
867.71	21154
867.841	21009
867.972	21313
868.103	21260
868.233	21283
868.364	21245
868.495	21466
868.625	21488
868.756	21549
868.886	21545
869.017	21492
869.147	21629
869.278	21709
869.408	21568
869.539	21610
869.669	21488
869.799	21644
869.929	21603
870.06	21648
870.19	21842
870.32	21876
870.45	21960
870.58	21873
870.71	21956
870.84	21949
870.97	21979
871.1	21960
871.23	22139
871.36	22097
871.489	21964
871.619	22013
871.749	22105
871.879	22162
872.008	22097
872.138	22017
872.267	22226
872.397	21987
872.526	21953
872.656	22002
872.785	21960
872.915	22059
873.044	22207
873.173	22211
873.303	22226
873.432	22173
873.561	22268
873.69	22166
873.819	22139
873.948	22303
874.077	22032
874.206	21983
874.335	22124
874.464	22200
874.593	22344
874.722	22306
874.851	22360
874.979	22341
875.108	22447
875.237	22188
875.365	22181
875.494	22348
875.623	22516
875.751	22287
875.88	22375
876.008	22402
876.136	22474
876.265	22797
876.393	22698
876.521	22862
876.65	22843
876.778	22725
876.906	22630
877.034	22592
877.162	22656
877.29	22683
877.418	22736
877.546	22839
877.674	22786
877.802	22733
877.93	22748
878.058	22637
878.185	22603
878.313	22733
878.441	22630
878.568	22523
878.696	22565
878.824	22679
878.951	22683
879.079	22820
879.206	23003
879.333	22828
879.461	22763
879.588	22820
879.715	22877
879.842	23006
879.97	22858
880.097	22573
880.224	22504
880.351	22523
880.478	22504
880.605	22443
880.732	22554
880.859	22683
880.986	22542
881.112	22394
881.239	22352
881.366	22322
881.493	22101
881.619	22090
881.746	22185
881.872	22048
881.999	22051
882.125	22082
882.252	22006
882.378	22082
882.505	22150
882.631	22010
882.757	21682
882.883	21953
883.01	21793
883.136	21831
883.262	21660
883.388	21660
883.514	21717
883.64	21793
883.766	21724
883.892	21515
884.018	21553
884.143	21652
884.269	21770
884.395	21625
884.52	21538
884.646	21553
884.772	21496
884.897	21298
885.023	21351
885.148	21370
885.274	21675
885.399	21663
885.524	21325
885.65	21382
885.775	21424
885.9	21458
886.025	21526
886.15	21439
886.275	21245
886.4	21325
886.525	21401
886.65	21211
886.775	21245
886.9	21507
887.025	21500
887.149	21401
887.274	21245
887.399	21211
887.523	21195
887.648	21112
887.773	21081
887.897	21283
888.021	21222
888.146	21203
888.27	21306
888.395	21291
888.519	21317
888.643	21192
888.767	21317
888.891	21157
889.015	20998
889.139	21157
889.263	20929
889.387	21085
889.511	21192
889.635	21093
889.759	20872
889.883	20861
890.006	21051
890.13	21131
890.254	20746
890.377	20800
890.501	20788
890.624	20667
890.748	20792
890.871	20682
890.995	20621
891.118	20522
891.241	20522
891.364	20552
891.488	20670
891.611	20571
891.734	20507
891.857	20545
891.98	20541
892.103	20655
892.226	20568
892.349	20393
892.471	20415
892.594	20450
892.717	20476
892.839	20362
892.962	20465
893.085	20537
893.207	20358
893.33	20358
893.452	20309
893.575	20568
893.697	20328
893.819	20552
893.941	20701
894.064	20648
894.186	20355
894.308	20313
894.43	20522
894.552	20625
894.674	20541
894.796	20248
894.918	20465
895.04	20358
895.161	20541
895.283	20556
895.405	20309
895.526	20431
895.648	20412
895.769	20518
895.891	20370
896.012	20480
896.134	20415
896.255	20488
896.376	20370
896.498	20377
896.619	20503
896.74	20434
896.861	20480
896.982	20834
897.103	20910
897.224	20735
897.345	20644
897.466	20438
897.587	20720
897.708	20845
897.828	20640
897.949	20609
898.07	20469
898.19	20625
898.311	20720
898.431	20651
898.552	20640
898.672	20667
898.792	20705
898.913	20663
899.033	20579
899.153	20526
899.273	20286
899.393	20355
899.513	20434
899.633	20339
899.753	20492
899.873	20259
899.993	20438
900.113	20244
900.232	20343
900.352	20271
900.472	20195
900.591	20103
900.711	20229
900.83	20077
900.95	20153
901.069	20202
901.189	20111
901.308	19860
901.427	19776
901.546	19780
901.665	19719
901.784	19750
901.904	19689
902.023	19556
902.141	19266
902.26	19354
902.379	19415
902.498	19316
902.617	19084
902.735	19206
902.854	19209
902.973	19152
903.091	18840
903.21	18962
903.328	18958
903.446	18882
903.565	18745
903.683	18890
903.801	18593
903.919	18642
904.038	18593
904.156	18532
904.274	18623
904.392	18437
904.51	18452
904.627	18445
904.745	18448
904.863	18486
904.981	18391
905.098	18136
905.216	18289
905.334	18148
905.451	18251
905.569	18136
905.686	18216
905.803	18133
905.921	18053
906.038	18045
906.155	17977
906.272	17809
906.389	17847
906.506	17809
906.623	17733
906.74	17722
906.857	17604
906.974	17512
907.091	17745
907.208	17771
907.324	17665
907.441	17657
907.557	17467
907.674	17398
907.79	17311
907.907	17322
908.023	17493
908.139	17440
908.256	17315
908.372	17280
908.488	17315
908.604	17220
908.72	17025
908.836	17178
908.952	17128
909.068	17121
909.184	17349
909.3	17143
909.415	17056
909.531	17109
909.647	16835
909.762	16839
909.878	16843
909.993	16771
910.108	16873
910.224	16774
910.339	16755
910.454	16626
910.57	16733
910.685	16546
910.8	16854
910.915	16790
911.03	16542
911.145	16493
911.259	16459
911.374	16390
911.489	16257
911.604	16230
911.718	16188
911.833	16207
911.947	16101
912.062	16021
912.176	16074
912.291	16219
912.405	16166
912.519	16390
912.633	16276
912.748	16200
912.862	16074
912.976	15953
913.09	15903
913.204	15945
913.318	16036
913.431	15972
913.545	16078
913.659	16105
913.772	15922
913.886	15766
914	15797
914.113	15835
914.226	15880
914.34	15743
914.453	15622
914.566	15827
914.68	15732
914.793	15477
914.906	15523
915.019	15355
915.132	15298
915.245	15370
915.358	15443
915.47	15340
915.583	15336
915.696	15378
915.809	15382
915.921	15397
916.034	15359
916.146	15233
916.259	15176
916.371	15348
916.483	15298
916.595	15226
916.708	15169
916.82	15135
916.932	15070
917.044	15184
917.156	15131
917.268	14994
917.38	14986
917.491	14982
917.603	14975
917.715	15047
917.826	15233
917.938	14960
918.049	14910
918.161	14982
918.272	15112
918.384	15161
918.495	14906
918.606	14739
918.717	14727
918.828	14849
918.939	14807
919.05	14659
919.161	14674
919.272	14575
919.383	14716
919.494	14804
919.604	14937
919.715	14746
919.826	14564
919.936	14636
920.047	14746
920.157	14781
920.267	14887
920.378	14773
920.488	14785
920.598	14826
920.708	15020
920.818	14918
920.928	14823
921.038	15123
921.148	14982
921.258	14648
921.368	14667
921.477	14518
921.587	14419
921.697	14336
921.806	14499
921.916	14362
922.025	14092
922.134	14058
922.244	14180
922.353	14126
922.462	13955
922.571	13890
922.68	13780
922.789	13776
922.898	13696
923.007	13708
923.116	13719
923.224	13693
923.333	13696
923.442	13681
923.55	13529
923.659	13651
923.767	13571
923.876	13499
923.984	13537
924.092	13415
924.201	13544
924.309	13362
924.417	13529
924.525	13449
924.633	13426
924.741	14298
924.849	13179
924.956	13270
925.064	13209
925.172	13141
925.279	13225
925.387	13149
925.494	13259
925.602	13228
925.709	13156
925.816	12996
925.924	13114
926.031	13187
926.138	12989
926.245	13122
926.352	13034
926.459	13129
926.566	13179
926.673	13015
926.779	12905
926.886	12791
926.993	12814
927.099	12692
927.206	12658
927.312	12616
927.419	12772
927.525	12692
927.631	12734
927.737	12532
927.843	12559
927.95	12460
928.056	12494
928.162	12506
928.267	12544
928.373	13084
928.479	12566
928.585	12365
928.69	12506
928.796	12635
928.901	12384
929.007	12216
929.112	12429
929.218	12319
929.323	12243
929.428	12178
929.533	12372
929.638	12190
929.743	12220
929.848	12277
929.953	12209
930.058	12068
930.163	11950
930.267	11889
930.372	12030
930.477	11840
930.581	12110
930.685	11965
930.79	11821
930.894	11843
930.998	11821
931.103	11901
931.207	11592
931.311	11444
931.415	11440
931.519	11227
931.623	11197
