Data from test_V78500241_171.txt Node
Date: Fri Mar 25 15:42:59 CST 2022
User: usil
Spectrometer: V785-0024
Trigger mode: 0
Integration Time (sec): 4.000000E-1
Scans to average: 1
Nonlinearity correction enabled: false
Boxcar width: 0
Storing dark spectrum: false
XAxis mode: Wavelengths
Number of Pixels in Spectrum: 1024
>>>>>Begin Spectral Data<<<<<
801.071	29250
801.214	29311
801.356	29102
801.499	28965
801.641	28919
801.783	28793
801.926	28938
802.068	28915
802.211	28828
802.353	28854
802.496	28626
802.638	28569
802.78	28493
802.923	28405
803.065	28375
803.208	28451
803.35	28599
803.492	28611
803.635	28744
803.777	28603
803.919	28675
804.061	28938
804.204	28653
804.346	28523
804.488	28500
804.63	28573
804.773	28371
804.915	28672
805.057	28740
805.199	28622
805.341	28725
805.483	28668
805.626	28641
805.768	28546
805.91	28850
806.052	28759
806.194	28607
806.336	28953
806.478	28812
806.62	28713
806.762	28847
806.904	29052
807.046	29242
807.188	29113
807.33	29014
807.472	29208
807.614	28953
807.756	29060
807.898	29079
808.04	28847
808.182	29105
808.324	28968
808.465	29094
808.607	29174
808.749	29189
808.891	29398
809.033	29292
809.174	29250
809.316	29337
809.458	29261
809.6	29261
809.741	29307
809.883	29391
810.025	29425
810.166	29467
810.308	29581
810.45	29452
810.591	29467
810.733	29360
810.875	29341
811.016	29212
811.158	29349
811.299	29311
811.441	29478
811.582	29265
811.724	29258
811.865	29220
812.007	29185
812.148	29212
812.29	29303
812.431	29379
812.573	29474
812.714	29824
812.855	29646
812.997	29813
813.138	29920
813.279	29923
813.421	29695
813.562	29676
813.703	29566
813.845	29284
813.986	29155
814.127	28877
814.268	28790
814.41	28904
814.551	28858
814.692	28812
814.833	28873
814.974	28965
815.115	28919
815.256	28736
815.397	28538
815.539	28653
815.68	28664
815.821	28565
815.962	28618
816.103	28497
816.244	28462
816.385	28436
816.526	28322
816.666	28200
816.807	28048
816.948	28070
817.089	28246
817.23	27953
817.371	27956
817.512	27914
817.653	27880
817.793	28021
817.934	27994
818.075	28040
818.216	28048
818.356	27846
818.497	27880
818.638	27736
818.778	27622
818.919	27618
819.06	27698
819.2	27854
819.341	27934
819.481	27911
819.622	28070
819.762	28207
819.903	28154
820.043	27949
820.184	27994
820.324	27983
820.465	28173
820.605	28074
820.746	28101
820.886	27937
821.026	27979
821.167	27808
821.307	27949
821.447	27911
821.588	27770
821.728	27660
821.868	27485
822.008	27272
822.149	27355
822.289	27192
822.429	27127
822.569	27005
822.709	26952
822.849	26804
822.99	26853
823.13	26674
823.27	26777
823.41	26613
823.55	26446
823.69	26556
823.83	26583
823.97	26636
824.11	26419
824.25	26408
824.389	26518
824.529	26385
824.669	26343
824.809	26583
824.949	26423
825.089	26522
825.228	26362
825.368	26065
825.508	26282
825.648	26199
825.787	26275
825.927	26396
826.067	26225
826.206	26389
826.346	26221
826.485	26377
826.625	26195
826.765	26271
826.904	26168
827.044	25959
827.183	25947
827.323	25822
827.462	25902
827.601	25822
827.741	25826
827.88	25875
828.02	25666
828.159	25830
828.298	25868
828.437	25951
828.577	25780
828.716	25936
828.855	25647
828.994	25632
829.134	25624
829.273	25491
829.412	25571
829.551	25521
829.69	25616
829.829	25510
829.968	25613
830.107	25575
830.246	25590
830.385	25499
830.524	25468
830.663	25282
830.802	25301
830.941	25095
831.08	24970
831.219	25168
831.357	25213
831.496	25327
831.635	25110
831.774	25061
831.913	24973
832.051	24829
832.19	24802
832.329	24817
832.467	24753
832.606	24719
832.744	24730
832.883	24635
833.022	24673
833.16	24806
833.299	24749
833.437	24681
833.576	24825
833.714	24745
833.852	24776
833.991	24753
834.129	24719
834.267	24783
834.406	24760
834.544	24734
834.682	24821
834.821	24658
834.959	24810
835.097	24661
835.235	24802
835.373	24741
835.511	24719
835.65	24490
835.788	24608
835.926	24426
836.064	24467
836.202	24540
836.34	24380
836.478	24593
836.615	24528
836.753	24570
836.891	24681
837.029	24566
837.167	24471
837.305	24403
837.443	24350
837.58	24315
837.718	24422
837.856	24452
837.993	24327
838.131	24391
838.269	24258
838.406	24323
838.544	24079
838.681	23969
838.819	23992
838.956	23832
839.094	23824
839.231	23802
839.369	24011
839.506	24273
839.643	24106
839.781	23771
839.918	23737
840.055	23703
840.193	23882
840.33	23672
840.467	23722
840.604	23611
840.742	23828
840.879	23687
841.016	23600
841.153	23410
841.29	23805
841.427	23710
841.564	23657
841.701	23687
841.838	23604
841.975	23497
842.112	23558
842.249	23531
842.385	23410
842.522	23455
842.659	23596
842.796	23387
842.933	23364
843.069	23227
843.206	23250
843.343	23410
843.479	23376
843.616	23242
843.752	23064
843.889	23094
844.025	23326
844.162	23109
844.298	23261
844.435	23132
844.571	22942
844.708	22896
844.844	23246
844.98	23193
845.117	23204
845.253	22999
845.389	22995
845.525	22968
845.661	22999
845.798	22843
845.934	22733
846.07	22679
846.206	22847
846.342	22889
846.478	22850
846.614	22542
846.75	22527
846.886	22557
847.022	22569
847.158	22516
847.294	22459
847.429	22500
847.565	22478
847.701	22748
847.837	22200
847.972	22101
848.108	22249
848.244	22242
848.379	22093
848.515	22032
848.65	22032
848.786	22036
848.921	22048
849.057	22139
849.192	22120
849.328	22109
849.463	22082
849.598	22002
849.734	21812
849.869	21884
850.004	21918
850.14	21899
850.275	21770
850.41	21713
850.545	21625
850.68	21713
850.815	21755
850.95	21835
851.085	22017
851.22	21846
851.355	21785
851.49	21679
851.625	21701
851.76	21720
851.895	21663
852.03	21690
852.165	21899
852.299	21850
852.434	21907
852.569	21770
852.703	21873
852.838	21785
852.973	21964
853.107	21812
853.242	21717
853.376	21652
853.511	21462
853.645	21526
853.78	21747
853.914	21561
854.048	21473
854.183	21652
854.317	21625
854.451	21812
854.585	21466
854.72	21622
854.854	21542
854.988	21519
855.122	21435
855.256	21412
855.39	21523
855.524	21511
855.658	21599
855.792	21641
855.926	21679
856.06	21629
856.194	21675
856.327	21603
856.461	21511
856.595	21500
856.729	21488
856.862	21690
856.996	21671
857.13	21667
857.263	21610
857.397	21713
857.53	21599
857.664	21530
857.797	21549
857.931	21709
858.064	21545
858.197	21534
858.331	21397
858.464	21340
858.597	21424
858.731	21481
858.864	21454
858.997	21466
859.13	21595
859.263	21553
859.396	21599
859.529	21469
859.662	21424
859.795	21485
859.928	21488
860.061	21618
860.194	21568
860.327	21599
860.46	21553
860.592	21507
860.725	21603
860.858	21648
860.99	21500
861.123	21389
861.256	21420
861.388	21431
861.521	22219
861.653	21401
861.786	21389
861.918	21382
862.05	21412
862.183	21542
862.315	21439
862.447	21564
862.58	21424
862.712	21272
862.844	21123
862.976	21355
863.108	21382
863.24	21500
863.372	21188
863.504	21214
863.636	21066
863.768	21291
863.9	21089
864.032	21165
864.164	21093
864.296	21195
864.428	21268
864.559	21237
864.691	21142
864.823	21211
864.954	21192
865.086	21017
865.217	21150
865.349	20990
865.48	21135
865.612	21009
865.743	21214
865.875	20979
866.006	20880
866.137	20979
866.269	20990
866.4	21055
866.531	21001
866.662	21024
866.793	20921
866.924	21062
867.055	21100
867.186	21085
867.317	21032
867.448	20960
867.579	20963
867.71	21005
867.841	20861
867.972	21032
868.103	20952
868.233	21020
868.364	20925
868.495	21169
868.625	21104
868.756	21287
868.886	21184
869.017	21252
869.147	21340
869.278	21332
869.408	21279
869.539	21329
869.669	21351
869.799	21287
869.929	21302
870.06	21279
870.19	21614
870.32	21542
870.45	21572
870.58	21633
870.71	21713
870.84	21682
870.97	21633
871.1	21690
871.23	21713
871.36	21800
871.489	21766
871.619	21770
871.749	21732
871.879	21934
872.008	21979
872.138	21926
872.267	21850
872.397	21686
872.526	21720
872.656	21633
872.785	21694
872.915	21762
873.044	21842
873.173	21762
873.303	21937
873.432	21949
873.561	21778
873.69	22010
873.819	21861
873.948	21930
874.077	21846
874.206	21789
874.335	21975
874.464	21926
874.593	22093
874.722	22059
874.851	22040
874.979	22185
875.108	22166
875.237	21899
875.365	21968
875.494	21975
875.623	22188
875.751	22135
875.88	22188
876.008	22166
876.136	22322
876.265	22436
876.393	22645
876.521	22489
876.65	22519
876.778	22519
876.906	22379
877.034	22451
877.162	22398
877.29	22356
877.418	22535
877.546	22512
877.674	22440
877.802	22352
877.93	22504
878.058	22371
878.185	22440
878.313	22428
878.441	22329
878.568	22272
878.696	22394
878.824	22417
878.951	22417
879.079	22611
879.206	22752
879.333	22615
879.461	22478
879.588	22527
879.715	22577
879.842	22755
879.97	22447
880.097	22318
880.224	22196
880.351	22246
880.478	22375
880.605	22291
880.732	22181
880.859	22443
880.986	22185
881.112	22276
881.239	22105
881.366	21968
881.493	21991
881.619	21831
881.746	21857
881.872	21762
881.999	21804
882.125	21812
882.252	21907
882.378	21812
882.505	21972
882.631	21759
882.757	21545
882.883	21671
883.01	21485
883.136	21485
883.262	21370
883.388	21386
883.514	21583
883.64	21561
883.766	21557
883.892	21256
884.018	21386
884.143	21580
884.269	21641
884.395	21287
884.52	21165
884.646	21093
884.772	21173
884.897	21028
885.023	21093
885.148	21306
885.274	21313
885.399	21272
885.524	21192
885.65	21142
885.775	21203
885.9	21119
886.025	21272
886.15	21344
886.275	20967
886.4	20998
886.525	21127
886.65	21154
886.775	21180
886.9	21256
887.025	21382
887.149	21184
887.274	20842
887.399	20880
887.523	20910
887.648	20811
887.773	20796
887.897	20967
888.021	20815
888.146	20876
888.27	20887
888.395	20990
888.519	20975
888.643	20914
888.767	21020
888.891	20746
889.015	20651
889.139	20811
889.263	20587
889.387	20739
889.511	20853
889.635	20815
889.759	20705
889.883	20571
890.006	20727
890.13	20823
890.254	20617
890.377	20556
890.501	20320
890.624	20389
890.748	20530
890.871	20427
890.995	20252
891.118	20149
891.241	20225
891.364	20221
891.488	20393
891.611	20313
891.734	20252
891.857	20244
891.98	20286
892.103	20332
892.226	20317
892.349	20142
892.471	20153
892.594	20180
892.717	20294
892.839	20183
892.962	20233
893.085	20267
893.207	20058
893.33	20058
893.452	20084
893.575	20248
893.697	20077
893.819	20385
893.941	20313
894.064	20328
894.186	20065
894.308	20100
894.43	20161
894.552	20446
894.674	20206
894.796	20119
894.918	20172
895.04	20092
895.161	20218
895.283	20240
895.405	20103
895.526	20130
895.648	20206
895.769	20290
895.891	20180
896.012	20336
896.134	20183
896.255	20221
896.376	20084
896.498	20145
896.619	20263
896.74	20191
896.861	20347
896.982	20705
897.103	20667
897.224	20495
897.345	20442
897.466	20362
897.587	20381
897.708	20476
897.828	20434
897.949	20393
898.07	20271
898.19	20389
898.311	20473
898.431	20328
898.552	20355
898.672	20488
898.792	20499
898.913	20377
899.033	20199
899.153	20187
899.273	20096
899.393	20119
899.513	20191
899.633	20145
899.753	20126
899.873	19887
899.993	20054
900.113	20027
900.232	20092
900.352	19997
900.472	19989
900.591	19826
900.711	19944
900.83	19913
900.95	19955
901.069	20050
901.189	19750
901.308	19582
901.427	19506
901.546	19472
901.665	19487
901.784	19468
901.904	19236
902.023	19236
902.141	18993
902.26	19012
902.379	19088
902.498	18947
902.617	18916
902.735	19061
902.854	18909
902.973	18859
903.091	18734
903.21	18570
903.328	18585
903.446	18483
903.565	18483
903.683	18418
903.801	18277
903.919	18433
904.038	18433
904.156	18186
904.274	18232
904.392	18178
904.51	18216
904.627	18186
904.745	18133
904.863	18304
904.981	17980
905.098	17836
905.216	17923
905.334	17847
905.451	17931
905.569	17767
905.686	17843
905.803	17931
905.921	17661
906.038	17817
906.155	17596
906.272	17638
906.389	17554
906.506	17372
906.623	17455
906.74	17284
906.857	17311
906.974	17296
907.091	17444
907.208	17482
907.324	17341
907.441	17307
907.557	17060
907.674	17052
907.79	17014
907.907	17006
908.023	16995
908.139	17079
908.256	16934
908.372	17022
908.488	16805
908.604	16812
908.72	16694
908.836	16889
908.952	16748
909.068	16740
909.184	16847
909.3	16721
909.415	16793
909.531	16706
909.647	16481
909.762	16443
909.878	16421
909.993	16481
910.108	16379
910.224	16489
910.339	16417
910.454	16261
910.57	16147
910.685	16139
910.8	16455
910.915	16363
911.03	16177
911.145	16040
911.259	16059
911.374	15987
911.489	15979
911.604	15838
911.718	15724
911.833	15823
911.947	15622
912.062	15641
912.176	15793
912.291	15781
912.405	15888
912.519	15941
912.633	15823
912.748	15709
912.862	15622
912.976	15519
913.09	15416
913.204	15428
913.318	15553
913.431	15759
913.545	15679
913.659	15686
913.772	15644
913.886	15458
914	15336
914.113	15386
914.226	15492
914.34	15488
914.453	15222
914.566	15370
914.68	15218
914.793	15237
914.906	14994
915.019	15055
915.132	15043
915.245	14967
915.358	14975
915.47	15013
915.583	15062
915.696	15020
915.809	15150
915.921	15085
916.034	14975
916.146	14883
916.259	14849
916.371	14975
916.483	14883
916.595	14815
916.708	14826
916.82	14834
916.932	14777
917.044	14735
917.156	14678
917.268	14613
917.38	14613
917.491	14549
917.603	14667
917.715	14648
917.826	14682
917.938	14507
918.049	14484
918.161	14598
918.272	14781
918.384	14659
918.495	14583
918.606	14366
918.717	14313
918.828	14469
918.939	14434
919.05	14328
919.161	14358
919.272	14058
919.383	14161
919.494	14347
919.604	14594
919.715	14412
919.826	14172
919.936	14267
920.047	14427
920.157	14381
920.267	14499
920.378	14374
920.488	14317
920.598	14446
920.708	14587
920.818	14484
920.928	14415
921.038	14625
921.148	14446
921.258	14214
921.368	14138
921.477	14073
921.587	14035
921.697	13959
921.806	14005
921.916	13909
922.025	13864
922.134	13704
922.244	13594
922.353	13677
922.462	13571
922.571	13476
922.68	13350
922.789	13297
922.898	13346
923.007	13263
923.116	13312
923.224	13331
923.333	13194
923.442	13259
923.55	13084
923.659	13145
923.767	13247
923.876	13126
923.984	13198
924.092	13099
924.201	13080
924.309	13080
924.417	13050
924.525	12985
924.633	13038
924.741	13712
924.849	12772
924.956	12886
925.064	12795
925.172	12810
925.279	12738
925.387	12768
925.494	12825
925.602	12901
925.709	12863
925.816	12635
925.924	12658
926.031	12829
926.138	12662
926.245	12753
926.352	12597
926.459	12673
926.566	12821
926.673	12700
926.779	12513
926.886	12544
926.993	12369
927.099	12342
927.206	12213
927.312	12357
927.419	12330
927.525	12270
927.631	12285
927.737	12190
927.843	12163
927.95	12095
928.056	12045
928.162	12121
928.267	12182
928.373	12783
928.479	12201
928.585	11999
928.69	12064
928.796	12076
928.901	11996
929.007	11950
929.112	11992
929.218	11977
929.323	11942
929.428	11882
929.533	12026
929.638	11790
929.743	11756
929.848	11817
929.953	11824
930.058	11642
930.163	11547
930.267	11573
930.372	11665
930.477	11543
930.581	11783
930.685	11596
930.79	11429
930.894	11524
930.998	11292
931.103	11520
931.207	11181
931.311	11113
931.415	11010
931.519	10801
931.623	10755
