Data from test_V78500241_586.txt Node
Date: Fri Mar 25 15:45:51 CST 2022
User: usil
Spectrometer: V785-0024
Trigger mode: 0
Integration Time (sec): 4.000000E-1
Scans to average: 1
Nonlinearity correction enabled: false
Boxcar width: 0
Storing dark spectrum: false
XAxis mode: Wavelengths
Number of Pixels in Spectrum: 1024
>>>>>Begin Spectral Data<<<<<
801.071	27233
801.214	27291
801.356	26891
801.499	26899
801.641	26914
801.783	26864
801.926	26940
802.068	26758
802.211	26541
802.353	26674
802.496	26400
802.638	26469
802.78	26499
802.923	26480
803.065	26400
803.208	26514
803.35	26571
803.492	26396
803.635	26606
803.777	26533
803.919	26549
804.061	26735
804.204	26655
804.346	26579
804.488	26408
804.63	26571
804.773	26484
804.915	26552
805.057	26769
805.199	26560
805.341	26735
805.483	26838
805.626	26693
805.768	26598
805.91	26750
806.052	26564
806.194	26636
806.336	26853
806.478	26693
806.62	26746
806.762	26845
806.904	26918
807.046	27203
807.188	27195
807.33	27188
807.472	27249
807.614	27028
807.756	27039
807.898	26979
808.04	26944
808.182	26872
808.324	26952
808.465	27020
808.607	27222
808.749	27378
808.891	27515
809.033	27542
809.174	27386
809.316	27348
809.458	27416
809.6	27332
809.741	27549
809.883	27477
810.025	27572
810.166	27538
810.308	27534
810.45	27408
810.591	27317
810.733	27279
810.875	27355
811.016	27279
811.158	27302
811.299	27523
811.441	27545
811.582	27367
811.724	27245
811.865	27207
812.007	27123
812.148	27268
812.29	27325
812.431	27439
812.573	27614
812.714	27793
812.855	27865
812.997	27922
813.138	28067
813.279	27979
813.421	27857
813.562	27797
813.703	27591
813.845	27572
813.986	27359
814.127	27108
814.268	26956
814.41	26933
814.551	26956
814.692	26960
814.833	26899
814.974	26910
815.115	26853
815.256	26868
815.397	26861
815.539	26861
815.68	26845
815.821	26746
815.962	26693
816.103	26826
816.244	26560
816.385	26480
816.526	26587
816.666	26419
816.807	26358
816.948	26408
817.089	26259
817.23	26195
817.371	26267
817.512	26218
817.653	26259
817.793	26199
817.934	26267
818.075	26233
818.216	26161
818.356	26355
818.497	26153
818.638	25993
818.778	25989
818.919	25913
819.06	26058
819.2	26126
819.341	26206
819.481	26065
819.622	26347
819.762	26499
819.903	26476
820.043	26389
820.184	26347
820.324	26431
820.465	26351
820.605	26400
820.746	26282
820.886	26191
821.026	26195
821.167	26199
821.307	26427
821.447	26298
821.588	26358
821.728	26046
821.868	25902
822.008	25719
822.149	25613
822.289	25689
822.429	25346
822.569	25388
822.709	25457
822.849	25148
822.99	25293
823.13	25171
823.27	25228
823.41	24966
823.55	24928
823.69	24928
823.83	25034
823.97	24935
824.11	24886
824.25	24920
824.389	24738
824.529	24909
824.669	24901
824.809	24840
824.949	25038
825.089	25042
825.228	24890
825.368	24635
825.508	24795
825.648	24814
825.787	24787
825.927	24909
826.067	24730
826.206	24753
826.346	24658
826.485	24665
826.625	24757
826.765	24871
826.904	24779
827.044	24536
827.183	24471
827.323	24258
827.462	24536
827.601	24498
827.741	24410
827.88	24517
828.02	24235
828.159	24319
828.298	24460
828.437	24399
828.577	24194
828.716	24479
828.855	24330
828.994	24163
829.134	24144
829.273	24152
829.412	23984
829.551	24087
829.69	24026
829.829	24091
829.968	24129
830.107	24106
830.246	24068
830.385	24087
830.524	24095
830.663	23931
830.802	23783
830.941	23722
831.08	23672
831.219	23707
831.357	23836
831.496	23954
831.635	23836
831.774	23649
831.913	23703
832.051	23570
832.19	23524
832.329	23459
832.467	23383
832.606	23433
832.744	23345
832.883	23417
833.022	23322
833.16	23242
833.299	23554
833.437	23349
833.576	23501
833.714	23452
833.852	23398
833.991	23376
834.129	23600
834.267	23554
834.406	23471
834.544	23490
834.682	23425
834.821	23398
834.959	23600
835.097	23398
835.235	23455
835.373	23501
835.511	23402
835.65	23269
835.788	23246
835.926	23170
836.064	23200
836.202	23364
836.34	23421
836.478	23528
836.615	23231
836.753	23197
836.891	23318
837.029	23395
837.167	23204
837.305	23197
837.443	23124
837.58	23174
837.718	23227
837.856	23178
837.993	23090
838.131	23147
838.269	23025
838.406	23033
838.544	22942
838.681	22717
838.819	22698
838.956	22725
839.094	22573
839.231	22675
839.369	22774
839.506	22984
839.643	22915
839.781	22683
839.918	22489
840.055	22641
840.193	22565
840.33	22607
840.467	22546
840.604	22470
840.742	22733
840.879	22413
841.016	22382
841.153	22409
841.29	22634
841.427	22557
841.564	22447
841.701	22497
841.838	22478
841.975	22432
842.112	22466
842.249	22382
842.385	22200
842.522	22584
842.659	22402
842.796	22143
842.933	22253
843.069	22223
843.206	22158
843.343	22238
843.479	22230
843.616	22280
843.752	22112
843.889	21968
844.025	22158
844.162	22078
844.298	22181
844.435	22006
844.571	22070
844.708	22067
844.844	22280
844.98	22166
845.117	22048
845.253	21934
845.389	21838
845.525	21922
845.661	21873
845.798	21781
845.934	21854
846.07	21728
846.206	21926
846.342	21895
846.478	21850
846.614	21580
846.75	21568
846.886	21386
847.022	21671
847.158	21606
847.294	21580
847.429	21580
847.565	21576
847.701	21682
847.837	21241
847.972	21131
848.108	21344
848.244	21473
848.379	21119
848.515	21138
848.65	21112
848.786	21184
848.921	21062
849.057	21199
849.192	21199
849.328	21192
849.463	21028
849.598	21051
849.734	20971
849.869	20883
850.004	20891
850.14	20899
850.275	20864
850.41	20735
850.545	20819
850.68	20758
850.815	20906
850.95	20800
851.085	20952
851.22	21020
851.355	20868
851.49	20849
851.625	20861
851.76	20830
851.895	20899
852.03	20811
852.165	20902
852.299	20823
852.434	20883
852.569	20857
852.703	20807
852.838	20883
852.973	21089
853.107	21020
853.242	20914
853.376	20800
853.511	20594
853.645	20701
853.78	20891
853.914	20663
854.048	20708
854.183	20674
854.317	20667
854.451	20823
854.585	20788
854.72	20682
854.854	20811
854.988	20632
855.122	20697
855.256	20533
855.39	20682
855.524	20773
855.658	20815
855.792	20693
855.926	20682
856.06	20811
856.194	20689
856.327	20731
856.461	20609
856.595	20674
856.729	20708
856.862	20804
856.996	20670
857.13	20781
857.263	20834
857.397	20735
857.53	20651
857.664	20750
857.797	20796
857.931	20872
858.064	20777
858.197	20796
858.331	20743
858.464	20712
858.597	20545
858.731	20621
858.864	20682
858.997	20754
859.13	20674
859.263	20667
859.396	20750
859.529	20785
859.662	20632
859.795	20670
859.928	20716
860.061	20975
860.194	20872
860.327	20667
860.46	20765
860.592	20769
860.725	20902
860.858	20880
860.99	20689
861.123	20701
861.256	20613
861.388	20594
861.521	21237
861.653	20537
861.786	20533
861.918	20514
862.05	20682
862.183	20674
862.315	20689
862.447	20735
862.58	20602
862.712	20492
862.844	20347
862.976	20537
863.108	20571
863.24	20948
863.372	20339
863.504	20385
863.636	20431
863.768	20503
863.9	20370
864.032	20366
864.164	20336
864.296	20336
864.428	20598
864.559	20457
864.691	20431
864.823	20336
864.954	20419
865.086	20408
865.217	20214
865.349	20347
865.48	20400
865.612	20454
865.743	20461
865.875	20362
866.006	20377
866.137	20267
866.269	20396
866.4	20317
866.531	20210
866.662	20225
866.793	20271
866.924	20187
867.055	20381
867.186	20214
867.317	20218
867.448	20176
867.579	20252
867.71	20195
867.841	20214
867.972	20244
868.103	20256
868.233	20267
868.364	20103
868.495	20336
868.625	20415
868.756	20602
868.886	20431
869.017	20446
869.147	20503
869.278	20537
869.408	20465
869.539	20393
869.669	20514
869.799	20533
869.929	20746
870.06	20724
870.19	20777
870.32	20754
870.45	20686
870.58	20994
870.71	21066
870.84	20971
870.97	20899
871.1	20880
871.23	21055
871.36	21074
871.489	21001
871.619	21169
871.749	20979
871.879	21146
872.008	21104
872.138	21154
872.267	21081
872.397	20986
872.526	20914
872.656	20914
872.785	20990
872.915	21112
873.044	21138
873.173	21165
873.303	21119
873.432	21268
873.561	21245
873.69	21070
873.819	21230
873.948	21332
874.077	21180
874.206	21192
874.335	21051
874.464	21233
874.593	21431
874.722	21450
874.851	21363
874.979	21386
875.108	21481
875.237	21329
875.365	21123
875.494	21321
875.623	21477
875.751	21313
875.88	21351
876.008	21405
876.136	21568
876.265	21698
876.393	21835
876.521	21953
876.65	21892
876.778	21717
876.906	21690
877.034	21667
877.162	21667
877.29	21599
877.418	21679
877.546	21660
877.674	21690
877.802	21747
877.93	21785
878.058	21686
878.185	21812
878.313	21572
878.441	21675
878.568	21591
878.696	21591
878.824	21747
878.951	21751
879.079	21827
879.206	22074
879.333	21759
879.461	21755
879.588	21892
879.715	21842
879.842	21884
879.97	21785
880.097	21633
880.224	21488
880.351	21542
880.478	21614
880.605	21557
880.732	21416
880.859	21690
880.986	21591
881.112	21595
881.239	21355
881.366	21363
881.493	21249
881.619	21184
881.746	21112
881.872	21100
881.999	21020
882.125	21123
882.252	21207
882.378	21081
882.505	21100
882.631	21020
882.757	20948
882.883	20895
883.01	20765
883.136	20750
883.262	20724
883.388	20640
883.514	20842
883.64	20754
883.766	20743
883.892	20617
884.018	20636
884.143	20811
884.269	20876
884.395	20549
884.52	20400
884.646	20442
884.772	20381
884.897	20400
885.023	20511
885.148	20575
885.274	20678
885.399	20537
885.524	20579
885.65	20480
885.775	20564
885.9	20476
886.025	20640
886.15	20606
886.275	20389
886.4	20419
886.525	20434
886.65	20294
886.775	20400
886.9	20526
887.025	20606
887.149	20461
887.274	20347
887.399	20252
887.523	20256
887.648	20122
887.773	20138
887.897	20282
888.021	20275
888.146	20252
888.27	20358
888.395	20294
888.519	20278
888.643	20446
888.767	20301
888.891	20115
889.015	19963
889.139	20043
889.263	20016
889.387	20172
889.511	20259
889.635	20164
889.759	20069
889.883	20008
890.006	20012
890.13	20168
890.254	19986
890.377	20008
890.501	19951
890.624	19925
890.748	19822
890.871	19757
890.995	19658
891.118	19552
891.241	19590
891.364	19605
891.488	19719
891.611	19616
891.734	19719
891.857	19708
891.98	19635
892.103	19643
892.226	19613
892.349	19647
892.471	19453
892.594	19651
892.717	19643
892.839	19499
892.962	19563
893.085	19655
893.207	19601
893.33	19445
893.452	19396
893.575	19605
893.697	19544
893.819	19746
893.941	19693
894.064	19719
894.186	19476
894.308	19540
894.43	19681
894.552	19590
894.674	19685
894.796	19464
894.918	19487
895.04	19582
895.161	19700
895.283	19643
895.405	19624
895.526	19525
895.648	19609
895.769	19620
895.891	19597
896.012	19704
896.134	19590
896.255	19567
896.376	19499
896.498	19670
896.619	19643
896.74	19605
896.861	19655
896.982	19917
897.103	20062
897.224	19883
897.345	19814
897.466	19685
897.587	19807
897.708	19852
897.828	19803
897.949	19727
898.07	19655
898.19	19753
898.311	19898
898.431	19704
898.552	19830
898.672	19841
898.792	19864
898.913	19852
899.033	19708
899.153	19586
899.273	19540
899.393	19582
899.513	19601
899.633	19586
899.753	19525
899.873	19544
899.993	19457
900.113	19613
900.232	19594
900.352	19426
900.472	19365
900.591	19324
900.711	19419
900.83	19324
900.95	19411
901.069	19457
901.189	19343
901.308	19095
901.427	19046
901.546	18951
901.665	19015
901.784	18890
901.904	18814
902.023	18722
902.141	18555
902.26	18498
902.379	18563
902.498	18498
902.617	18429
902.735	18483
902.854	18483
902.973	18410
903.091	18148
903.21	18121
903.328	18110
903.446	18030
903.565	17939
903.683	17984
903.801	17786
903.919	17863
904.038	17988
904.156	17672
904.274	17752
904.392	17691
904.51	17649
904.627	17634
904.745	17687
904.863	17703
904.981	17452
905.098	17433
905.216	17368
905.334	17440
905.451	17425
905.569	17360
905.686	17387
905.803	17410
905.921	17292
906.038	17311
906.155	17197
906.272	17056
906.389	17136
906.506	17010
906.623	16965
906.74	16930
906.857	16812
906.974	16812
907.091	16965
907.208	17083
907.324	16942
907.441	16938
907.557	16752
907.674	16592
907.79	16531
907.907	16550
908.023	16630
908.139	16618
908.256	16588
908.372	16584
908.488	16500
908.604	16375
908.72	16402
908.836	16382
908.952	16295
909.068	16428
909.184	16382
909.3	16363
909.415	16409
909.531	16360
909.647	16101
909.762	16139
909.878	16025
909.993	16139
910.108	16112
910.224	15945
910.339	16048
910.454	16029
910.57	15854
910.685	15861
910.8	16044
910.915	16032
911.03	15930
911.145	15705
911.259	15644
911.374	15686
911.489	15561
911.604	15580
911.718	15500
911.833	15500
911.947	15420
912.062	15283
912.176	15428
912.291	15496
912.405	15458
912.519	15542
912.633	15629
912.748	15515
912.862	15355
912.976	15218
913.09	15188
913.204	15214
913.318	15104
913.431	15367
913.545	15370
913.659	15348
913.772	15180
913.886	15131
914	15077
914.113	15165
914.226	15230
914.34	15104
914.453	14979
914.566	15085
914.68	14948
914.793	14944
914.906	14807
915.019	14686
915.132	14663
915.245	14655
915.358	14689
915.47	14648
915.583	14651
915.696	14632
915.809	14811
915.921	14762
916.034	14594
916.146	14560
916.259	14556
916.371	14697
916.483	14670
916.595	14495
916.708	14545
916.82	14590
916.932	14583
917.044	14507
917.156	14419
917.268	14347
917.38	14396
917.491	14282
917.603	14294
917.715	14415
917.826	14442
917.938	14298
918.049	14191
918.161	14317
918.272	14484
918.384	14370
918.495	14298
918.606	14134
918.717	14054
918.828	14282
918.939	14142
919.05	14046
919.161	14088
919.272	14016
919.383	13955
919.494	14142
919.604	14267
919.715	14130
919.826	14069
919.936	14073
920.047	14145
920.157	14252
920.267	14214
920.378	14119
920.488	14054
920.598	14252
920.708	14305
920.818	14290
920.928	14248
921.038	14374
921.148	14317
921.258	14054
921.368	13902
921.477	13955
921.587	13936
921.697	13822
921.806	13871
921.916	13647
922.025	13533
922.134	13506
922.244	13514
922.353	13556
922.462	13343
922.571	13316
922.68	13244
922.789	13065
922.898	13175
923.007	13088
923.116	13160
923.224	13141
923.333	13160
923.442	13008
923.55	12970
923.659	12966
923.767	13034
923.876	12928
923.984	13069
924.092	12962
924.201	12947
924.309	12897
924.417	12932
924.525	12768
924.633	12844
924.741	13719
924.849	12593
924.956	12837
925.064	12540
925.172	12513
925.279	12597
925.387	12597
925.494	12616
925.602	12707
925.709	12654
925.816	12490
925.924	12612
926.031	12555
926.138	12551
926.245	12532
926.352	12486
926.459	12608
926.566	12608
926.673	12433
926.779	12391
926.886	12323
926.993	12159
927.099	12076
927.206	12102
927.312	12175
927.419	12175
927.525	12148
927.631	12148
927.737	12136
927.843	12011
927.95	11923
928.056	11908
928.162	11965
928.267	12072
928.373	12662
928.479	12083
928.585	11832
928.69	12019
928.796	12011
928.901	11882
929.007	11665
929.112	11832
929.218	11737
929.323	11745
929.428	11737
929.533	11840
929.638	11611
929.743	11661
929.848	11707
929.953	11680
930.058	11619
930.163	11433
930.267	11501
930.372	11547
930.477	11417
930.581	11619
930.685	11497
930.79	11277
930.894	11383
930.998	11254
931.103	11391
931.207	11052
931.311	10991
931.415	10801
931.519	10694
931.623	10740
