Data from test_V78500241_1590.txt Node
Date: Fri Mar 25 15:52:48 CST 2022
User: usil
Spectrometer: V785-0024
Trigger mode: 0
Integration Time (sec): 4.000000E-1
Scans to average: 1
Nonlinearity correction enabled: false
Boxcar width: 0
Storing dark spectrum: false
XAxis mode: Wavelengths
Number of Pixels in Spectrum: 1024
>>>>>Begin Spectral Data<<<<<
801.071	28109
801.214	28211
801.356	27972
801.499	27774
801.641	27797
801.783	27789
801.926	28029
802.068	27789
802.211	27618
802.353	27576
802.496	27530
802.638	27507
802.78	27386
802.923	27397
803.065	27302
803.208	27401
803.35	27321
803.492	27572
803.635	27553
803.777	27443
803.919	27785
804.061	28021
804.204	27759
804.346	27557
804.488	27386
804.63	27671
804.773	27549
804.915	27629
805.057	27759
805.199	27675
805.341	27713
805.483	27865
805.626	27819
805.768	27637
805.91	27717
806.052	27770
806.194	27785
806.336	27850
806.478	27888
806.62	27937
806.762	27895
806.904	28109
807.046	28310
807.188	28154
807.33	28120
807.472	28417
807.614	28185
807.756	28181
807.898	28112
808.04	28109
808.182	28112
808.324	28097
808.465	28143
808.607	28162
808.749	28333
808.891	28573
809.033	28538
809.174	28489
809.316	28542
809.458	28432
809.6	28474
809.741	28508
809.883	28478
810.025	28729
810.166	28679
810.308	28668
810.45	28641
810.591	28710
810.733	28493
810.875	28367
811.016	28367
811.158	28329
811.299	28466
811.441	28588
811.582	28615
811.724	28573
811.865	28531
812.007	28413
812.148	28421
812.29	28451
812.431	28565
812.573	28748
812.714	28888
812.855	29075
812.997	29060
813.138	29208
813.279	29044
813.421	29109
813.562	29003
813.703	28892
813.845	28721
813.986	28512
814.127	28318
814.268	28116
814.41	28147
814.551	28021
814.692	28314
814.833	28006
814.974	28090
815.115	28078
815.256	27914
815.397	28090
815.539	28124
815.68	27983
815.821	27975
815.962	27861
816.103	27983
816.244	27819
816.385	27686
816.526	27622
816.666	27386
816.807	27397
816.948	27572
817.089	27454
817.23	27420
817.371	27435
817.512	27325
817.653	27564
817.793	27355
817.934	27408
818.075	27363
818.216	27538
818.356	27458
818.497	27443
818.638	27199
818.778	27207
818.919	27165
819.06	27260
819.2	27321
819.341	27431
819.481	27443
819.622	27534
819.762	27701
819.903	27736
820.043	27405
820.184	27526
820.324	27473
820.465	27694
820.605	27648
820.746	27633
820.886	27496
821.026	27408
821.167	27443
821.307	27629
821.447	27530
821.588	27340
821.728	27298
821.868	27176
822.008	27047
822.149	27039
822.289	26910
822.429	26667
822.569	26587
822.709	26571
822.849	26400
822.99	26309
823.13	26343
823.27	26366
823.41	26256
823.55	26126
823.69	26423
823.83	26229
823.97	26221
824.11	26062
824.25	25970
824.389	26130
824.529	26187
824.669	26172
824.809	26096
824.949	26210
825.089	26149
825.228	26100
825.368	26050
825.508	25757
825.648	25925
825.787	25951
825.927	25997
826.067	25883
826.206	25906
826.346	25890
826.485	26088
826.625	25966
826.765	26107
826.904	25928
827.044	25746
827.183	25685
827.323	25635
827.462	25708
827.601	25681
827.741	25601
827.88	25742
828.02	25521
828.159	25537
828.298	25761
828.437	25643
828.577	25521
828.716	25757
828.855	25525
828.994	25274
829.134	25324
829.273	25419
829.412	25396
829.551	25350
829.69	25373
829.829	25358
829.968	25358
830.107	25415
830.246	25259
830.385	25274
830.524	25289
830.663	25023
830.802	25004
830.941	24878
831.08	24928
831.219	25072
831.357	25110
831.496	25141
831.635	24947
831.774	24973
831.913	24840
832.051	24825
832.19	24639
832.329	24730
832.467	24764
832.606	24703
832.744	24772
832.883	24525
833.022	24726
833.16	24627
833.299	24688
833.437	24696
833.576	24722
833.714	24745
833.852	24802
833.991	24574
834.129	24711
834.267	24700
834.406	24757
834.544	24837
834.682	24764
834.821	24631
834.959	24772
835.097	24555
835.235	24783
835.373	24760
835.511	24684
835.65	24471
835.788	24574
835.926	24338
836.064	24228
836.202	24327
836.34	24460
836.478	24673
836.615	24399
836.753	24448
836.891	24707
837.029	24483
837.167	24486
837.305	24353
837.443	24292
837.58	24357
837.718	24281
837.856	24365
837.993	24361
838.131	24243
838.269	24213
838.406	24266
838.544	24254
838.681	23980
838.819	23973
838.956	23817
839.094	23798
839.231	23783
839.369	23920
839.506	24095
839.643	24072
839.781	23840
839.918	23813
840.055	23741
840.193	23729
840.33	23661
840.467	23729
840.604	23786
840.742	23901
840.879	23623
841.016	23638
841.153	23547
841.29	23863
841.427	23680
841.564	23714
841.701	23710
841.838	23608
841.975	23619
842.112	23512
842.249	23554
842.385	23531
842.522	23611
842.659	23547
842.796	23509
842.933	23436
843.069	23406
843.206	23421
843.343	23531
843.479	23520
843.616	23425
843.752	23356
843.889	23159
844.025	23284
844.162	23178
844.298	23402
844.435	23170
844.571	23254
844.708	23383
844.844	23372
844.98	23303
845.117	23387
845.253	23246
845.389	23003
845.525	23083
845.661	23147
845.798	23033
845.934	23010
846.07	22854
846.206	22858
846.342	23170
846.478	22961
846.614	22679
846.75	22546
846.886	22733
847.022	22793
847.158	22816
847.294	22721
847.429	22691
847.565	22702
847.701	22961
847.837	22519
847.972	22310
848.108	22569
848.244	22459
848.379	22306
848.515	22200
848.65	22246
848.786	22413
848.921	22188
849.057	22352
849.192	22371
849.328	22272
849.463	22436
849.598	22215
849.734	22166
849.869	22090
850.004	22219
850.14	22116
850.275	22154
850.41	22017
850.545	22017
850.68	22131
850.815	22135
850.95	21991
851.085	22234
851.22	22188
851.355	22074
851.49	22040
851.625	21953
851.76	22002
851.895	22013
852.03	21987
852.165	22090
852.299	22173
852.434	22044
852.569	22124
852.703	22006
852.838	22090
852.973	22280
853.107	22223
853.242	21918
853.376	21930
853.511	21850
853.645	21842
853.78	21968
853.914	21998
854.048	21884
854.183	21903
854.317	21842
854.451	22116
854.585	21884
854.72	21979
854.854	21972
854.988	21766
855.122	21972
855.256	21759
855.39	21899
855.524	22032
855.658	21880
855.792	21880
855.926	21964
856.06	21903
856.194	21956
856.327	21850
856.461	21804
856.595	21823
856.729	21857
856.862	21949
856.996	21960
857.13	21816
857.263	22070
857.397	21975
857.53	21922
857.664	21869
857.797	21934
857.931	21998
858.064	21899
858.197	22063
858.331	21846
858.464	21816
858.597	21701
858.731	21888
858.864	21743
858.997	21918
859.13	21728
859.263	21876
859.396	21964
859.529	21899
859.662	21915
859.795	21816
859.928	21857
860.061	22105
860.194	21979
860.327	21983
860.46	21861
860.592	21991
860.725	22017
860.858	22055
860.99	21926
861.123	21713
861.256	21857
861.388	21899
861.521	22485
861.653	21797
861.786	21644
861.918	21701
862.05	21720
862.183	21861
862.315	21701
862.447	21899
862.58	21705
862.712	21477
862.844	21530
862.976	21629
863.108	21469
863.24	22078
863.372	21610
863.504	21739
863.636	21701
863.768	21557
863.9	21515
864.032	21583
864.164	21496
864.296	21682
864.428	21785
864.559	21633
864.691	21625
864.823	21595
864.954	21568
865.086	21549
865.217	21485
865.349	21420
865.48	21466
865.612	21515
865.743	21557
865.875	21401
866.006	21466
866.137	21462
866.269	21416
866.4	21363
866.531	21439
866.662	21325
866.793	21443
866.924	21424
867.055	21428
867.186	21473
867.317	21408
867.448	21291
867.579	21291
867.71	21302
867.841	21332
867.972	21530
868.103	21359
868.233	21428
868.364	21374
868.495	21485
868.625	21667
868.756	21736
868.886	21534
869.017	21568
869.147	21785
869.278	21781
869.408	21656
869.539	21717
869.669	21728
869.799	21690
869.929	21705
870.06	21694
870.19	21983
870.32	21945
870.45	21991
870.58	22051
870.71	22204
870.84	22139
870.97	22078
871.1	22025
871.23	22196
871.36	22287
871.489	22158
871.619	22048
871.749	22238
871.879	22257
872.008	22424
872.138	22249
872.267	22261
872.397	22059
872.526	21987
872.656	21987
872.785	22086
872.915	22287
873.044	22379
873.173	22223
873.303	22348
873.432	22360
873.561	22257
873.69	22291
873.819	22291
873.948	22390
874.077	22440
874.206	22135
874.335	22310
874.464	22405
874.593	22516
874.722	22443
874.851	22405
874.979	22596
875.108	22618
875.237	22459
875.365	22363
875.494	22447
875.623	22588
875.751	22382
875.88	22535
876.008	22538
876.136	22679
876.265	22869
876.393	22999
876.521	22915
876.65	22831
876.778	22797
876.906	22923
877.034	22790
877.162	22748
877.29	22793
877.418	22759
877.546	22961
877.674	22820
877.802	22885
877.93	22679
878.058	22809
878.185	22611
878.313	22843
878.441	22892
878.568	22599
878.696	22759
878.824	22911
878.951	22934
879.079	22984
879.206	23075
879.333	23060
879.461	22843
879.588	22949
879.715	22942
879.842	23090
879.97	22934
880.097	22683
880.224	22694
880.351	22713
880.478	22626
880.605	22603
880.732	22660
880.859	22873
880.986	22588
881.112	22698
881.239	22500
881.366	22318
881.493	22215
881.619	22230
881.746	22219
881.872	22135
881.999	22242
882.125	22166
882.252	22177
882.378	22238
882.505	22226
882.631	22128
882.757	21854
882.883	21991
883.01	21835
883.136	21816
883.262	21892
883.388	21743
883.514	21930
883.64	21930
883.766	21800
883.892	21610
884.018	21766
884.143	21827
884.269	22006
884.395	21526
884.52	21473
884.646	21564
884.772	21507
884.897	21397
885.023	21477
885.148	21610
885.274	21671
885.399	21652
885.524	21469
885.65	21660
885.775	21492
885.9	21458
886.025	21633
886.15	21534
886.275	21450
886.4	21424
886.525	21443
886.65	21481
886.775	21450
886.9	21618
887.025	21663
887.149	21466
887.274	21291
887.399	21329
887.523	21359
887.648	21241
887.773	21260
887.897	21370
888.021	21317
888.146	21252
888.27	21351
888.395	21336
888.519	21348
888.643	21298
888.767	21416
888.891	21165
889.015	21157
889.139	21214
889.263	21070
889.387	21135
889.511	21260
889.635	21180
889.759	21085
889.883	21135
890.006	21020
890.13	21233
890.254	20963
890.377	21058
890.501	20895
890.624	20807
890.748	20975
890.871	20838
890.995	20739
891.118	20598
891.241	20735
891.364	20701
891.488	20735
891.611	20754
891.734	20735
891.857	20686
891.98	20701
892.103	20796
892.226	20754
892.349	20465
892.471	20465
892.594	20609
892.717	20602
892.839	20571
892.962	20541
893.085	20743
893.207	20564
893.33	20461
893.452	20476
893.575	20488
893.697	20568
893.819	20648
893.941	20807
894.064	20636
894.186	20507
894.308	20366
894.43	20594
894.552	20667
894.674	20727
894.796	20419
894.918	20594
895.04	20442
895.161	20674
895.283	20602
895.405	20499
895.526	20526
895.648	20552
895.769	20560
895.891	20632
896.012	20678
896.134	20594
896.255	20480
896.376	20564
896.498	20522
896.619	20590
896.74	20533
896.861	20575
896.982	20944
897.103	20948
897.224	20815
897.345	20693
897.466	20727
897.587	20720
897.708	20838
897.828	20746
897.949	20819
898.07	20518
898.19	20724
898.311	20758
898.431	20705
898.552	20746
898.672	20781
898.792	20807
898.913	20739
899.033	20590
899.153	20530
899.273	20461
899.393	20476
899.513	20568
899.633	20511
899.753	20609
899.873	20396
899.993	20446
900.113	20408
900.232	20568
900.352	20362
900.472	20305
900.591	20301
900.711	20259
900.83	20115
900.95	20161
901.069	20339
901.189	20107
901.308	19947
901.427	19913
901.546	19849
901.665	19856
901.784	19868
901.904	19750
902.023	19685
902.141	19537
902.26	19384
902.379	19502
902.498	19449
902.617	19282
902.735	19346
902.854	19407
902.973	19141
903.091	18958
903.21	19023
903.328	19000
903.446	18985
903.565	18738
903.683	18814
903.801	18779
903.919	18837
904.038	18741
904.156	18547
904.274	18566
904.392	18608
904.51	18654
904.627	18601
904.745	18604
904.863	18688
904.981	18258
905.098	18159
905.216	18277
905.334	18334
905.451	18270
905.569	18292
905.686	18372
905.803	18315
905.921	18007
906.038	18167
906.155	18114
906.272	18026
906.389	17961
906.506	17756
906.623	17916
906.74	17760
906.857	17707
906.974	17745
907.091	17756
907.208	17824
907.324	17836
907.441	17741
907.557	17634
907.674	17577
907.79	17493
907.907	17448
908.023	17554
908.139	17505
908.256	17482
908.372	17410
908.488	17383
908.604	17315
908.72	17204
908.836	17178
908.952	17132
909.068	17227
909.184	17296
909.3	17060
909.415	17189
909.531	17220
909.647	16984
909.762	16908
909.878	16850
909.993	17041
910.108	16923
910.224	16877
910.339	16869
910.454	16828
910.57	16664
910.685	16577
910.8	16896
910.915	16797
911.03	16733
911.145	16592
911.259	16489
911.374	16538
911.489	16436
911.604	16421
911.718	16265
911.833	16280
911.947	16211
912.062	16051
912.176	16257
912.291	16299
912.405	16234
912.519	16459
912.633	16382
912.748	16272
912.862	16192
912.976	16097
913.09	15884
913.204	16029
913.318	16143
913.431	16207
913.545	16067
913.659	16040
913.772	16002
913.886	15892
914	15850
914.113	15873
914.226	16055
914.34	15911
914.453	15671
914.566	15956
914.68	15774
914.793	15648
914.906	15534
915.019	15412
915.132	15374
915.245	15420
915.358	15553
915.47	15595
915.583	15405
915.696	15500
915.809	15469
915.921	15591
916.034	15420
916.146	15374
916.259	15302
916.371	15401
916.483	15408
916.595	15370
916.708	15207
916.82	15313
916.932	15192
917.044	15245
917.156	15199
917.268	15070
917.38	15142
917.491	15165
917.603	15077
917.715	15146
917.826	15138
917.938	15028
918.049	14883
918.161	15013
918.272	15131
918.384	15195
918.495	14960
918.606	14864
918.717	14788
918.828	14883
918.939	14864
919.05	14754
919.161	14807
919.272	14621
919.383	14731
919.494	14910
919.604	14933
919.715	14746
919.826	14720
919.936	14735
920.047	14849
920.157	14918
920.267	14956
920.378	14933
920.488	14746
920.598	14990
920.708	15089
920.818	14845
920.928	14975
921.038	15150
921.148	15036
921.258	14731
921.368	14693
921.477	14511
921.587	14594
921.697	14381
921.806	14488
921.916	14450
922.025	14225
922.134	14248
922.244	14301
922.353	14309
922.462	14031
922.571	14024
922.68	13799
922.789	13803
922.898	13860
923.007	13776
923.116	13883
923.224	13826
923.333	13784
923.442	13666
923.55	13628
923.659	13715
923.767	13738
923.876	13613
923.984	13689
924.092	13529
924.201	13559
924.309	13597
924.417	13586
924.525	13460
924.633	13422
924.741	14358
924.849	13289
924.956	13400
925.064	13312
925.172	13198
925.279	13171
925.387	13282
925.494	13266
925.602	13350
925.709	13190
925.816	13107
925.924	13175
926.031	13266
926.138	13190
926.245	13236
926.352	13053
926.459	13225
926.566	13274
926.673	13141
926.779	13129
926.886	13019
926.993	12840
927.099	12719
927.206	12738
927.312	12738
927.419	12833
927.525	12795
927.631	12791
927.737	12612
927.843	12563
927.95	12445
928.056	12589
928.162	12608
928.267	12722
928.373	13263
928.479	12722
928.585	12391
928.69	12544
928.796	12620
928.901	12536
929.007	12273
929.112	12513
929.218	12384
929.323	12319
929.428	12395
929.533	12407
929.638	12163
929.743	12285
929.848	12327
929.953	12235
930.058	12148
930.163	12007
930.267	12049
930.372	12133
930.477	11973
930.581	12159
930.685	12053
930.79	11923
930.894	11996
930.998	11832
931.103	11984
931.207	11688
931.311	11600
931.415	11471
931.519	11193
931.623	11280
