Data from test_V78500241_1935.txt Node
Date: Fri Mar 25 15:55:12 CST 2022
User: usil
Spectrometer: V785-0024
Trigger mode: 0
Integration Time (sec): 4.000000E-1
Scans to average: 1
Nonlinearity correction enabled: false
Boxcar width: 0
Storing dark spectrum: false
XAxis mode: Wavelengths
Number of Pixels in Spectrum: 1024
>>>>>Begin Spectral Data<<<<<
801.071	28679
801.214	28672
801.356	28257
801.499	28177
801.641	28055
801.783	28051
801.926	28249
802.068	28093
802.211	28109
802.353	27846
802.496	27774
802.638	27778
802.78	27739
802.923	27865
803.065	27720
803.208	27717
803.35	27770
803.492	28051
803.635	28010
803.777	28006
803.919	28147
804.061	28367
804.204	28192
804.346	27854
804.488	27926
804.63	28006
804.773	28021
804.915	28128
805.057	28124
805.199	28116
805.341	28070
805.483	28223
805.626	28295
805.768	28051
805.91	28169
806.052	28131
806.194	28177
806.336	28215
806.478	28215
806.62	28238
806.762	28337
806.904	28554
807.046	28797
807.188	28637
807.33	28531
807.472	28637
807.614	28592
807.756	28710
807.898	28474
808.04	28344
808.182	28512
808.324	28493
808.465	28626
808.607	28759
808.749	28961
808.891	28949
809.033	29181
809.174	28938
809.316	28919
809.458	28835
809.6	28824
809.741	28915
809.883	29064
810.025	29102
810.166	29269
810.308	29277
810.45	29147
810.591	29159
810.733	28911
810.875	28949
811.016	28839
811.158	28717
811.299	28949
811.441	28968
811.582	29003
811.724	28862
811.865	28877
812.007	28820
812.148	29083
812.29	28866
812.431	28911
812.573	29239
812.714	29208
812.855	29360
812.997	29467
813.138	29638
813.279	29375
813.421	29265
813.562	29311
813.703	29235
813.845	29090
813.986	28824
814.127	28713
814.268	28485
814.41	28645
814.551	28523
814.692	28630
814.833	28489
814.974	28493
815.115	28607
815.256	28504
815.397	28478
815.539	28531
815.68	28333
815.821	28268
815.962	28401
816.103	28329
816.244	28219
816.385	28238
816.526	28131
816.666	27941
816.807	27854
816.948	27926
817.089	28017
817.23	27876
817.371	27766
817.512	27831
817.653	27762
817.793	27827
817.934	27785
818.075	27918
818.216	27941
818.356	27880
818.497	27652
818.638	27663
818.778	27500
818.919	27622
819.06	27629
819.2	27717
819.341	27728
819.481	27846
819.622	27968
819.762	28162
819.903	28185
820.043	28101
820.184	28017
820.324	27789
820.465	27964
820.605	27979
820.746	27994
820.886	27846
821.026	28032
821.167	27960
821.307	28044
821.447	27751
821.588	27869
821.728	27701
821.868	27564
822.008	27367
822.149	27306
822.289	27283
822.429	27218
822.569	27207
822.709	27055
822.849	26872
822.99	26883
823.13	26765
823.27	26724
823.41	26693
823.55	26571
823.69	26648
823.83	26735
823.97	26602
824.11	26476
824.25	26355
824.389	26507
824.529	26564
824.669	26480
824.809	26568
824.949	26552
825.089	26590
825.228	26609
825.368	26389
825.508	26457
825.648	26278
825.787	26552
825.927	26514
826.067	26389
826.206	26339
826.346	26336
826.485	26328
826.625	26172
826.765	26492
826.904	26332
827.044	26172
827.183	26092
827.323	25993
827.462	26221
827.601	26195
827.741	26103
827.88	26119
828.02	25925
828.159	26168
828.298	26183
828.437	26214
828.577	26039
828.716	26142
828.855	25887
828.994	25826
829.134	25864
829.273	25826
829.412	25799
829.551	25704
829.69	25807
829.829	25849
829.968	25814
830.107	25856
830.246	25909
830.385	25708
830.524	25651
830.663	25483
830.802	25392
830.941	25213
831.08	25331
831.219	25491
831.357	25422
831.496	25723
831.635	25365
831.774	25392
831.913	25373
832.051	25152
832.19	25095
832.329	25244
832.467	25099
832.606	25088
832.744	24886
832.883	24970
833.022	25095
833.16	25053
833.299	25221
833.437	25004
833.576	25034
833.714	25099
833.852	25236
833.991	25285
834.129	25240
834.267	25179
834.406	25198
834.544	25095
834.682	25164
834.821	25004
834.959	25381
835.097	25126
835.235	25160
835.373	25015
835.511	25012
835.65	24875
835.788	24844
835.926	24817
836.064	24745
836.202	24719
836.34	24947
836.478	25141
836.615	24810
836.753	25061
836.891	25023
837.029	24924
837.167	24840
837.305	24844
837.443	24749
837.58	24681
837.718	24894
837.856	24684
837.993	24669
838.131	24783
838.269	24715
838.406	24631
838.544	24616
838.681	24540
838.819	24292
838.956	24243
839.094	24201
839.231	24152
839.369	24399
839.506	24654
839.643	24452
839.781	24232
839.918	24285
840.055	24220
840.193	24209
840.33	24209
840.467	24091
840.604	24167
840.742	24384
840.879	23961
841.016	24129
841.153	24182
841.29	24270
841.427	24144
841.564	24243
841.701	24068
841.838	24209
841.975	24053
842.112	24174
842.249	23950
842.385	23878
842.522	24083
842.659	23958
842.796	23935
842.933	23809
843.069	23885
843.206	23931
843.343	23756
843.479	23817
843.616	23870
843.752	23714
843.889	23680
844.025	23687
844.162	23611
844.298	23813
844.435	23672
844.571	23600
844.708	23611
844.844	23840
844.98	23729
845.117	23794
845.253	23627
845.389	23551
845.525	23649
845.661	23490
845.798	23341
845.934	23497
846.07	23341
846.206	23376
846.342	23627
846.478	23368
846.614	23261
846.75	23067
846.886	23212
847.022	23250
847.158	23041
847.294	23041
847.429	23117
847.565	23102
847.701	23322
847.837	22866
847.972	22812
848.108	22866
848.244	22953
848.379	22698
848.515	22687
848.65	22664
848.786	22672
848.921	22649
849.057	22725
849.192	22793
849.328	22637
849.463	22679
849.598	22618
849.734	22557
849.869	22527
850.004	22527
850.14	22470
850.275	22519
850.41	22291
850.545	22474
850.68	22341
850.815	22554
850.95	22470
851.085	22702
851.22	22497
851.355	22519
851.49	22443
851.625	22413
851.76	22398
851.895	22375
852.03	22394
852.165	22455
852.299	22470
852.434	22512
852.569	22504
852.703	22466
852.838	22588
852.973	22554
853.107	22535
853.242	22500
853.376	22249
853.511	22173
853.645	22223
853.78	22382
853.914	22318
854.048	22344
854.183	22246
854.317	22284
854.451	22409
854.585	22284
854.72	22306
854.854	22352
854.988	22211
855.122	22291
855.256	22207
855.39	22154
855.524	22367
855.658	22280
855.792	22284
855.926	22287
856.06	22348
856.194	22363
856.327	22253
856.461	22234
856.595	22116
856.729	22261
856.862	22299
856.996	22375
857.13	22261
857.263	22249
857.397	22360
857.53	22196
857.664	22295
857.797	22344
857.931	22337
858.064	22276
858.197	22398
858.331	22367
858.464	22116
858.597	22017
858.731	22295
858.864	22196
858.997	22032
859.13	22382
859.263	22276
859.396	22413
859.529	22093
859.662	22223
859.795	22188
859.928	22162
860.061	22443
860.194	22535
860.327	22409
860.46	22215
860.592	22306
860.725	22443
860.858	22390
860.99	22287
861.123	22223
861.256	22188
861.388	22249
861.521	23094
861.653	22135
861.786	22169
861.918	22128
862.05	22097
862.183	22204
862.315	22150
862.447	22322
862.58	22223
862.712	22090
862.844	21911
862.976	22032
863.108	22002
863.24	22402
863.372	21915
863.504	21937
863.636	21911
863.768	22131
863.9	21987
864.032	21956
864.164	21838
864.296	22025
864.428	22131
864.559	22070
864.691	22070
864.823	22010
864.954	21869
865.086	21899
865.217	21876
865.349	21812
865.48	21884
865.612	21812
865.743	21922
865.875	21983
866.006	21808
866.137	21831
866.269	21918
866.4	21930
866.531	21705
866.662	21789
866.793	21759
866.924	21816
867.055	21850
867.186	21781
867.317	21736
867.448	21595
867.579	21785
867.71	21660
867.841	21648
867.972	21751
868.103	21690
868.233	21751
868.364	21869
868.495	21838
868.625	22070
868.756	22040
868.886	21918
869.017	22090
869.147	22093
869.278	22131
869.408	22215
869.539	22002
869.669	22211
869.799	22131
869.929	22204
870.06	22131
870.19	22322
870.32	22238
870.45	22367
870.58	22459
870.71	22493
870.84	22588
870.97	22413
871.1	22382
871.23	22725
871.36	22725
871.489	22588
871.619	22725
871.749	22599
871.879	22645
872.008	22706
872.138	22691
872.267	22641
872.397	22478
872.526	22523
872.656	22542
872.785	22447
872.915	22649
873.044	22782
873.173	22660
873.303	22668
873.432	22691
873.561	22740
873.69	22702
873.819	22687
873.948	22801
874.077	22618
874.206	22527
874.335	22637
874.464	22828
874.593	22866
874.722	22862
874.851	22862
874.979	22927
875.108	22889
875.237	22839
875.365	22797
875.494	22915
875.623	22862
875.751	22881
875.88	22801
876.008	23037
876.136	23098
876.265	23250
876.393	23337
876.521	23227
876.65	23277
876.778	23212
876.906	23105
877.034	23273
877.162	23220
877.29	23174
877.418	23265
877.546	23330
877.674	23170
877.802	23254
877.93	23197
878.058	23124
878.185	23162
878.313	23227
878.441	23200
878.568	23029
878.696	23170
878.824	23227
878.951	23334
879.079	23360
879.206	23520
879.333	23330
879.461	23185
879.588	23258
879.715	23322
879.842	23455
879.97	23250
880.097	22980
880.224	23037
880.351	22953
880.478	23090
880.605	22919
880.732	23056
880.859	23216
880.986	22980
881.112	22984
881.239	22866
881.366	22672
881.493	22759
881.619	22691
881.746	22649
881.872	22664
881.999	22493
882.125	22542
882.252	22615
882.378	22588
882.505	22603
882.631	22565
882.757	22314
882.883	22333
883.01	22280
883.136	22325
883.262	22090
883.388	22211
883.514	22363
883.64	22367
883.766	22234
883.892	22105
884.018	22013
884.143	22219
884.269	22394
884.395	21987
884.52	21884
884.646	21937
884.772	21793
884.897	21819
885.023	21903
885.148	22017
885.274	22116
885.399	22044
885.524	21884
885.65	21854
885.775	21892
885.9	21892
886.025	22112
886.15	22051
886.275	21850
886.4	21823
886.525	21835
886.65	21732
886.775	21918
886.9	21945
887.025	22044
887.149	21846
887.274	21694
887.399	21675
887.523	21538
887.648	21610
887.773	21561
887.897	21743
888.021	21633
888.146	21622
888.27	21755
888.395	21793
888.519	21625
888.643	21816
888.767	21648
888.891	21500
889.015	21408
889.139	21492
889.263	21306
889.387	21564
889.511	21511
889.635	21622
889.759	21458
889.883	21424
890.006	21447
890.13	21485
890.254	21268
890.377	21359
890.501	21112
890.624	21233
890.748	21218
890.871	21077
890.995	20979
891.118	20902
891.241	21135
891.364	21062
891.488	21131
891.611	20963
891.734	21032
891.857	20952
891.98	20956
892.103	21024
892.226	21085
892.349	20971
892.471	20823
892.594	20796
892.717	20902
892.839	20842
892.962	20826
893.085	20921
893.207	20914
893.33	20853
893.452	20788
893.575	20849
893.697	20902
893.819	21055
893.941	20967
894.064	20960
894.186	20834
894.308	20883
894.43	21085
894.552	21024
894.674	21081
894.796	20845
894.918	20754
895.04	20800
895.161	20861
895.283	20944
895.405	20754
895.526	20716
895.648	20842
895.769	20887
895.891	20918
896.012	20967
896.134	20918
896.255	20876
896.376	20826
896.498	20902
896.619	20925
896.74	20876
896.861	20906
896.982	21127
897.103	21275
897.224	21245
897.345	20979
897.466	21070
897.587	20952
897.708	21157
897.828	21028
897.949	20994
898.07	20849
898.19	20925
898.311	21085
898.431	20887
898.552	21028
898.672	21180
898.792	21188
898.913	21058
899.033	21051
899.153	20921
899.273	20800
899.393	20872
899.513	20918
899.633	20883
899.753	20823
899.873	20735
899.993	20811
900.113	20811
900.232	20785
900.352	20674
900.472	20667
900.591	20651
900.711	20667
900.83	20552
900.95	20773
901.069	20670
901.189	20568
901.308	20244
901.427	20130
901.546	20195
901.665	20187
901.784	20164
901.904	20058
902.023	20035
902.141	19814
902.26	19799
902.379	19769
902.498	19681
902.617	19529
902.735	19677
902.854	19643
902.973	19548
903.091	19419
903.21	19324
903.328	19304
903.446	19331
903.565	19145
903.683	19015
903.801	19065
903.919	19091
904.038	19076
904.156	18901
904.274	18871
904.392	18920
904.51	18935
904.627	18863
904.745	18856
904.863	18897
904.981	18719
905.098	18677
905.216	18654
905.334	18627
905.451	18525
905.569	18479
905.686	18544
905.803	18464
905.921	18300
906.038	18570
906.155	18391
906.272	18361
906.389	18277
906.506	18038
906.623	18076
906.74	18159
906.857	17984
906.974	18019
907.091	18163
907.208	18197
907.324	18136
907.441	17980
907.557	17866
907.674	17756
907.79	17786
907.907	17771
908.023	17805
908.139	17809
908.256	17596
908.372	17756
908.488	17779
908.604	17539
908.72	17509
908.836	17630
908.952	17406
909.068	17573
909.184	17661
909.3	17505
909.415	17585
909.531	17459
909.647	17250
909.762	17151
909.878	17117
909.993	17277
910.108	17250
910.224	17220
910.339	17220
910.454	17029
910.57	17048
910.685	16866
910.8	17246
910.915	17113
911.03	17090
911.145	16767
911.259	16805
911.374	16824
911.489	16831
911.604	16721
911.718	16519
911.833	16603
911.947	16470
912.062	16341
912.176	16554
912.291	16607
912.405	16573
912.519	16660
912.633	16683
912.748	16531
912.862	16455
912.976	16371
913.09	16177
913.204	16314
913.318	16253
913.431	16436
913.545	16310
913.659	16432
913.772	16204
913.886	16280
914	16101
914.113	16246
914.226	16204
914.34	16242
914.453	15994
914.566	16166
914.68	15979
914.793	15899
914.906	15766
915.019	15652
915.132	15652
915.245	15660
915.358	15690
915.47	15675
915.583	15720
915.696	15637
915.809	15774
915.921	15770
916.034	15542
916.146	15580
916.259	15553
916.371	15705
916.483	15606
916.595	15530
916.708	15511
916.82	15580
916.932	15614
917.044	15454
917.156	15313
917.268	15374
917.38	15443
917.491	15321
917.603	15412
917.715	15397
917.826	15393
917.938	15344
918.049	15226
918.161	15382
918.272	15374
918.384	15397
918.495	15306
918.606	15055
918.717	14986
918.828	15146
918.939	15104
919.05	15036
919.161	15066
919.272	14788
919.383	14883
919.494	15123
919.604	15382
919.715	15047
919.826	14982
919.936	14998
920.047	15077
920.157	15005
920.267	15264
920.378	15024
920.488	15005
920.598	15184
920.708	15192
920.818	15108
920.928	15218
921.038	15226
921.148	15226
921.258	14994
921.368	14918
921.477	14667
921.587	14667
921.697	14564
921.806	14773
921.916	14556
922.025	14503
922.134	14324
922.244	14324
922.353	14400
922.462	14294
922.571	14278
922.68	14065
922.789	14138
922.898	14092
923.007	14058
923.116	14062
923.224	14043
923.333	13967
923.442	13890
923.55	13906
923.659	13799
923.767	13951
923.876	13894
923.984	13837
924.092	13799
924.201	13830
924.309	13814
924.417	13791
924.525	13708
924.633	13769
924.741	14716
924.849	13510
924.956	13575
925.064	13559
925.172	13419
925.279	13453
925.387	13529
925.494	13502
925.602	13552
925.709	13525
925.816	13274
925.924	13377
926.031	13480
926.138	13438
926.245	13419
926.352	13297
926.459	13381
926.566	13369
926.673	13308
926.779	13209
926.886	13183
926.993	13046
927.099	13027
927.206	12993
927.312	12970
927.419	12977
927.525	12985
927.631	12970
927.737	12837
927.843	12757
927.95	12757
928.056	12715
928.162	12783
928.267	12913
928.373	13350
928.479	12947
928.585	12646
928.69	12768
928.796	12772
928.901	12597
929.007	12528
929.112	12677
929.218	12658
929.323	12570
929.428	12536
929.533	12662
929.638	12475
929.743	12494
929.848	12536
929.953	12479
930.058	12380
930.163	12258
930.267	12159
930.372	12285
930.477	12155
930.581	12475
930.685	12205
930.79	12064
930.894	12091
930.998	12068
931.103	12091
931.207	11779
931.311	11760
931.415	11619
931.519	11425
931.623	11417
