Data from test_V78500241_751.txt Node
Date: Fri Mar 25 15:47:00 CST 2022
User: usil
Spectrometer: V785-0024
Trigger mode: 0
Integration Time (sec): 4.000000E-1
Scans to average: 1
Nonlinearity correction enabled: false
Boxcar width: 0
Storing dark spectrum: false
XAxis mode: Wavelengths
Number of Pixels in Spectrum: 1024
>>>>>Begin Spectral Data<<<<<
801.071	27850
801.214	27595
801.356	27420
801.499	27386
801.641	27450
801.783	27340
801.926	27435
802.068	27382
802.211	27169
802.353	27154
802.496	26910
802.638	26948
802.78	27036
802.923	26925
803.065	27032
803.208	27024
803.35	27013
803.492	27028
803.635	27146
803.777	27047
803.919	27138
804.061	27538
804.204	27279
804.346	27188
804.488	27043
804.63	27154
804.773	27104
804.915	27294
805.057	27264
805.199	27161
805.341	27192
805.483	27268
805.626	27359
805.768	27154
805.91	27252
806.052	27321
806.194	27135
806.336	27454
806.478	27420
806.62	27321
806.762	27359
806.904	27561
807.046	27759
807.188	27675
807.33	27747
807.472	27698
807.614	27694
807.756	27679
807.898	27500
808.04	27572
808.182	27576
808.324	27587
808.465	27614
808.607	27949
808.749	27838
808.891	27964
809.033	28242
809.174	28010
809.316	28010
809.458	27937
809.6	28067
809.741	28093
809.883	28002
810.025	28265
810.166	28276
810.308	28204
810.45	28204
810.591	28261
810.733	28067
810.875	27854
811.016	27903
811.158	27895
811.299	28002
811.441	28143
811.582	28234
811.724	27979
811.865	28021
812.007	27934
812.148	27854
812.29	28010
812.431	27994
812.573	28291
812.714	28398
812.855	28394
812.997	28489
813.138	28698
813.279	28599
813.421	28519
813.562	28512
813.703	28382
813.845	28333
813.986	27789
814.127	27701
814.268	27682
814.41	27778
814.551	27625
814.692	27747
814.833	27564
814.974	27671
815.115	27762
815.256	27466
815.397	27561
815.539	27477
815.68	27401
815.821	27359
815.962	27538
816.103	27420
816.244	27291
816.385	27218
816.526	27192
816.666	27093
816.807	27070
816.948	27051
817.089	27131
817.23	27024
817.371	27009
817.512	26834
817.653	26937
817.793	26758
817.934	26944
818.075	27043
818.216	26933
818.356	26887
818.497	26727
818.638	26670
818.778	26746
818.919	26689
819.06	26819
819.2	26754
819.341	26956
819.481	26952
819.622	27142
819.762	27199
819.903	27264
820.043	27070
820.184	27036
820.324	26880
820.465	27077
820.605	27138
820.746	26990
820.886	26887
821.026	26982
821.167	26971
821.307	27055
821.447	26788
821.588	26921
821.728	26762
821.868	26560
822.008	26313
822.149	26332
822.289	26427
822.429	26138
822.569	26054
822.709	25970
822.849	25902
822.99	25841
823.13	25925
823.27	25978
823.41	25712
823.55	25552
823.69	25788
823.83	25658
823.97	25685
824.11	25624
824.25	25453
824.389	25487
824.529	25575
824.669	25483
824.809	25605
824.949	25662
825.089	25624
825.228	25540
825.368	25362
825.508	25453
825.648	25525
825.787	25487
825.927	25403
826.067	25453
826.206	25415
826.346	25479
826.485	25495
826.625	25419
826.765	25487
826.904	25563
827.044	25244
827.183	25236
827.323	25019
827.462	25137
827.601	25091
827.741	24996
827.88	25008
828.02	25057
828.159	25012
828.298	25004
828.437	25236
828.577	25023
828.716	25107
828.855	25171
828.994	24738
829.134	24897
829.273	24856
829.412	24848
829.551	24802
829.69	24814
829.829	24821
829.968	24856
830.107	24882
830.246	24837
830.385	24802
830.524	24719
830.663	24623
830.802	24654
830.941	24414
831.08	24395
831.219	24464
831.357	24422
831.496	24620
831.635	24410
831.774	24369
831.913	24254
832.051	24216
832.19	24197
832.329	24186
832.467	24121
832.606	24060
832.744	24079
832.883	24102
833.022	23961
833.16	24167
833.299	24201
833.437	24041
833.576	24098
833.714	24076
833.852	24216
833.991	24239
834.129	24292
834.267	24201
834.406	24216
834.544	24216
834.682	24110
834.821	24098
834.959	24292
835.097	24022
835.235	24064
835.373	24144
835.511	24140
835.65	23821
835.788	23988
835.926	23809
836.064	23840
836.202	23794
836.34	23927
836.478	24182
836.615	24015
836.753	23889
836.891	24171
837.029	24083
837.167	23999
837.305	23912
837.443	23893
837.58	23885
837.718	23996
837.856	23843
837.993	23832
838.131	23893
838.269	23668
838.406	23752
838.544	23642
838.681	23459
838.819	23570
838.956	23227
839.094	23349
839.231	23433
839.369	23368
839.506	23718
839.643	23630
839.781	23330
839.918	23284
840.055	23433
840.193	23334
840.33	23242
840.467	23197
840.604	23318
840.742	23600
840.879	23159
841.016	23322
841.153	23159
841.29	23349
841.427	23044
841.564	23318
841.701	23261
841.838	23117
841.975	23071
842.112	23189
842.249	23098
842.385	22885
842.522	23143
842.659	23200
842.796	22885
842.933	23010
843.069	23006
843.206	22889
843.343	22999
843.479	22877
843.616	22930
843.752	22786
843.889	22820
844.025	22896
844.162	22653
844.298	22793
844.435	22782
844.571	22672
844.708	22801
844.844	22839
844.98	22778
845.117	22790
845.253	22554
845.389	22630
845.525	22660
845.661	22546
845.798	22516
845.934	22455
846.07	22436
846.206	22531
846.342	22497
846.478	22470
846.614	22265
846.75	22196
846.886	22143
847.022	22211
847.158	22158
847.294	22185
847.429	22246
847.565	22192
847.701	22580
847.837	21964
847.972	21964
848.108	22051
848.244	22040
848.379	21876
848.515	21831
848.65	21686
848.786	21774
848.921	21880
849.057	21831
849.192	21987
849.328	21915
849.463	21766
849.598	21770
849.734	21739
849.869	21606
850.004	21583
850.14	21504
850.275	21603
850.41	21462
850.545	21511
850.68	21507
850.815	21568
850.95	21515
851.085	21701
851.22	21618
851.355	21469
851.49	21545
851.625	21614
851.76	21568
851.895	21549
852.03	21530
852.165	21679
852.299	21466
852.434	21781
852.569	21572
852.703	21583
852.838	21629
852.973	21873
853.107	21732
853.242	21458
853.376	21439
853.511	21401
853.645	21310
853.78	21545
853.914	21500
854.048	21382
854.183	21382
854.317	21374
854.451	21553
854.585	21568
854.72	21431
854.854	21287
854.988	21306
855.122	21443
855.256	21188
855.39	21306
855.524	21416
855.658	21435
855.792	21447
855.926	21488
856.06	21428
856.194	21485
856.327	21294
856.461	21283
856.595	21355
856.729	21397
856.862	21500
856.996	21504
857.13	21382
857.263	21523
857.397	21469
857.53	21439
857.664	21428
857.797	21496
857.931	21583
858.064	21340
858.197	21534
858.331	21515
858.464	21321
858.597	21272
858.731	21462
858.864	21287
858.997	21389
859.13	21439
859.263	21405
859.396	21462
859.529	21336
859.662	21363
859.795	21370
859.928	21386
860.061	21580
860.194	21629
860.327	21420
860.46	21481
860.592	21526
860.725	21568
860.858	21507
860.99	21370
861.123	21260
861.256	21374
861.388	21458
861.521	22116
861.653	21226
861.786	21100
861.918	21211
862.05	21291
862.183	21344
862.315	21386
862.447	21477
862.58	21332
862.712	21154
862.844	21009
862.976	21169
863.108	21169
863.24	21519
863.372	21074
863.504	21100
863.636	21066
863.768	21100
863.9	21104
864.032	21066
864.164	21081
864.296	21077
864.428	21272
864.559	21260
864.691	21211
864.823	20967
864.954	21047
865.086	21150
865.217	21013
865.349	20906
865.48	20979
865.612	21055
865.743	21085
865.875	21005
866.006	20941
866.137	21009
866.269	21051
866.4	20994
866.531	21043
866.662	20921
866.793	20967
866.924	20906
867.055	20868
867.186	20933
867.317	20853
867.448	20876
867.579	20872
867.71	20746
867.841	20811
867.972	20990
868.103	20830
868.233	20914
868.364	20853
868.495	20929
868.625	21173
868.756	21252
868.886	21077
869.017	21176
869.147	21207
869.278	21176
869.408	21241
869.539	21165
869.669	21192
869.799	21233
869.929	21275
870.06	21378
870.19	21466
870.32	21435
870.45	21538
870.58	21591
870.71	21743
870.84	21682
870.97	21507
871.1	21530
871.23	21629
871.36	21838
871.489	21641
871.619	21682
871.749	21701
871.879	21785
872.008	21812
872.138	21679
872.267	21728
872.397	21504
872.526	21587
872.656	21557
872.785	21644
872.915	21778
873.044	21835
873.173	21842
873.303	21789
873.432	21884
873.561	21812
873.69	21831
873.819	21880
873.948	21854
874.077	21816
874.206	21736
874.335	21686
874.464	21907
874.593	21911
874.722	21892
874.851	21987
874.979	22090
875.108	22040
875.237	21987
875.365	21869
875.494	22044
875.623	22078
875.751	21930
875.88	22036
876.008	22139
876.136	22078
876.265	22295
876.393	22390
876.521	22462
876.65	22550
876.778	22386
876.906	22489
877.034	22249
877.162	22265
877.29	22360
877.418	22360
877.546	22390
877.674	22405
877.802	22344
877.93	22352
878.058	22424
878.185	22291
878.313	22325
878.441	22234
878.568	22093
878.696	22272
878.824	22451
878.951	22447
879.079	22577
879.206	22698
879.333	22580
879.461	22333
879.588	22527
879.715	22527
879.842	22611
879.97	22462
880.097	22284
880.224	22322
880.351	22154
880.478	22207
880.605	22124
880.732	22090
880.859	22409
880.986	22139
881.112	22215
881.239	22002
881.366	21975
881.493	21823
881.619	21694
881.746	21819
881.872	21747
881.999	21724
882.125	21568
882.252	21732
882.378	21736
882.505	21800
882.631	21629
882.757	21473
882.883	21466
883.01	21576
883.136	21443
883.262	21393
883.388	21450
883.514	21553
883.64	21431
883.766	21378
883.892	21283
884.018	21268
884.143	21386
884.269	21492
884.395	21077
884.52	21074
884.646	21138
884.772	21104
884.897	21062
885.023	21131
885.148	21192
885.274	21226
885.399	21218
885.524	21119
885.65	21039
885.775	21180
885.9	21043
886.025	21154
886.15	21218
886.275	20975
886.4	21062
886.525	21051
886.65	21020
886.775	20994
886.9	21192
887.025	21283
887.149	21055
887.274	20906
887.399	20872
887.523	20842
887.648	20861
887.773	20716
887.897	20925
888.021	20872
888.146	20754
888.27	20914
888.395	20998
888.519	20792
888.643	20883
888.767	20804
888.891	20735
889.015	20568
889.139	20663
889.263	20651
889.387	20762
889.511	20853
889.635	20804
889.759	20556
889.883	20636
890.006	20678
890.13	20670
890.254	20492
890.377	20594
890.501	20434
890.624	20374
890.748	20465
890.871	20339
890.995	20153
891.118	20218
891.241	20210
891.364	20301
891.488	20271
891.611	20267
891.734	20229
891.857	20278
891.98	20248
892.103	20199
892.226	20248
892.349	20229
892.471	20031
892.594	20054
892.717	20119
892.839	20103
892.962	20164
893.085	20294
893.207	20081
893.33	20054
893.452	20073
893.575	20202
893.697	20100
893.819	20301
893.941	20381
894.064	20252
894.186	20115
894.308	20046
894.43	20202
894.552	20339
894.674	20138
894.796	20142
894.918	20062
895.04	20126
895.161	20259
895.283	20263
895.405	20168
895.526	20161
895.648	20119
895.769	20046
895.891	20210
896.012	20180
896.134	20202
896.255	20142
896.376	20115
896.498	20157
896.619	20278
896.74	20168
896.861	20252
896.982	20450
897.103	20648
897.224	20412
897.345	20389
897.466	20301
897.587	20298
897.708	20533
897.828	20488
897.949	20336
898.07	20324
898.19	20275
898.311	20389
898.431	20309
898.552	20336
898.672	20389
898.792	20503
898.913	20336
899.033	20214
899.153	20111
899.273	20077
899.393	20153
899.513	20122
899.633	20043
899.753	19944
899.873	19993
899.993	20039
900.113	20016
900.232	20050
900.352	19898
900.472	19780
900.591	19890
900.711	19887
900.83	19868
900.95	19925
901.069	20046
901.189	19799
901.308	19613
901.427	19445
901.546	19510
901.665	19548
901.784	19384
901.904	19247
902.023	19244
902.141	19156
902.26	19053
902.379	19126
902.498	18985
902.617	18909
902.735	18996
902.854	18833
902.973	18916
903.091	18646
903.21	18627
903.328	18570
903.446	18502
903.565	18471
903.683	18471
903.801	18372
903.919	18445
904.038	18410
904.156	18334
904.274	18403
904.392	18327
904.51	18209
904.627	18167
904.745	18209
904.863	18308
904.981	18144
905.098	17760
905.216	17874
905.334	17935
905.451	17920
905.569	17851
905.686	17901
905.803	17832
905.921	17699
906.038	17836
906.155	17676
906.272	17600
906.389	17501
906.506	17372
906.623	17448
906.74	17459
906.857	17341
906.974	17364
907.091	17558
907.208	17596
907.324	17444
907.441	17387
907.557	17143
907.674	17208
907.79	17113
907.907	17083
908.023	17067
908.139	17193
908.256	17025
908.372	17003
908.488	17037
908.604	16828
908.72	16885
908.836	16721
908.952	16820
909.068	16885
909.184	16930
909.3	16835
909.415	16862
909.531	16847
909.647	16668
909.762	16618
909.878	16691
909.993	16554
910.108	16634
910.224	16478
910.339	16451
910.454	16462
910.57	16333
910.685	16242
910.8	16542
910.915	16500
911.03	16314
911.145	16173
911.259	16090
911.374	16188
911.489	16181
911.604	16006
911.718	15979
911.833	15918
911.947	15876
912.062	15876
912.176	15869
912.291	15956
912.405	15956
912.519	15975
912.633	16116
912.748	16006
912.862	15865
912.976	15656
913.09	15648
913.204	15743
913.318	15701
913.431	15819
913.545	15755
913.659	15800
913.772	15690
913.886	15644
914	15496
914.113	15675
914.226	15568
914.34	15606
914.453	15401
914.566	15542
914.68	15477
914.793	15291
914.906	15173
915.019	15180
915.132	15104
915.245	15176
915.358	15150
915.47	15165
915.583	15131
915.696	15184
915.809	15233
915.921	15272
916.034	15051
916.146	15077
916.259	14952
916.371	14998
916.483	15093
916.595	15001
916.708	14944
916.82	14880
916.932	14960
917.044	14937
917.156	14842
917.268	14853
917.38	14857
917.491	14765
917.603	14686
917.715	14746
917.826	14918
917.938	14781
918.049	14659
918.161	14830
918.272	14804
918.384	14868
918.495	14625
918.606	14602
918.717	14549
918.828	14583
918.939	14670
919.05	14332
919.161	14514
919.272	14214
919.383	14469
919.494	14571
919.604	14712
919.715	14590
919.826	14351
919.936	14583
920.047	14511
920.157	14552
920.267	14655
920.378	14488
920.488	14469
920.598	14670
920.708	14823
920.818	14640
920.928	14655
921.038	14807
921.148	14773
921.258	14434
921.368	14385
921.477	14259
921.587	14214
921.697	14103
921.806	14248
921.916	14096
922.025	13902
922.134	13833
922.244	13883
922.353	14001
922.462	13761
922.571	13731
922.68	13628
922.789	13510
922.898	13552
923.007	13415
923.116	13544
923.224	13518
923.333	13510
923.442	13396
923.55	13278
923.659	13392
923.767	13506
923.876	13354
923.984	13434
924.092	13259
924.201	13282
924.309	13259
924.417	13190
924.525	13107
924.633	13251
924.741	14214
924.849	13015
924.956	13164
925.064	13019
925.172	12821
925.279	12924
925.387	13000
925.494	13038
925.602	12973
925.709	13004
925.816	12802
925.924	12859
926.031	12996
926.138	12882
926.245	13008
926.352	12783
926.459	12875
926.566	12867
926.673	12825
926.779	12692
926.886	12745
926.993	12585
927.099	12494
927.206	12559
927.312	12460
927.419	12513
927.525	12536
927.631	12506
927.737	12452
927.843	12441
927.95	12277
928.056	12319
928.162	12308
928.267	12350
928.373	12882
928.479	12399
928.585	12121
928.69	12243
928.796	12380
928.901	12216
929.007	12045
929.112	12201
929.218	12277
929.323	12129
929.428	12098
929.533	12117
929.638	12007
929.743	11969
929.848	12011
929.953	12076
930.058	11855
930.163	11653
930.267	11767
930.372	11893
930.477	11714
930.581	12003
930.685	11809
930.79	11611
930.894	11653
930.998	11661
931.103	11684
931.207	11410
931.311	11334
931.415	11246
931.519	10999
931.623	11079
