Data from test_V78500241_293.txt Node
Date: Fri Mar 25 15:43:49 CST 2022
User: usil
Spectrometer: V785-0024
Trigger mode: 0
Integration Time (sec): 4.000000E-1
Scans to average: 1
Nonlinearity correction enabled: false
Boxcar width: 0
Storing dark spectrum: false
XAxis mode: Wavelengths
Number of Pixels in Spectrum: 1024
>>>>>Begin Spectral Data<<<<<
801.071	29493
801.214	29425
801.356	29231
801.499	29258
801.641	29227
801.783	29212
801.926	29147
802.068	29204
802.211	28911
802.353	28866
802.496	28710
802.638	28748
802.78	28672
802.923	28740
803.065	28618
803.208	28656
803.35	28675
803.492	28877
803.635	28900
803.777	28835
803.919	28881
804.061	29162
804.204	28957
804.346	28774
804.488	28858
804.63	28908
804.773	28748
804.915	28797
805.057	29041
805.199	28896
805.341	28934
805.483	28930
805.626	28942
805.768	28873
805.91	28980
806.052	29022
806.194	29014
806.336	29151
806.478	29056
806.62	29056
806.762	29223
806.904	29364
807.046	29573
807.188	29326
807.33	29356
807.472	29493
807.614	29387
807.756	29372
807.898	29090
808.04	29330
808.182	29246
808.324	29231
808.465	29197
808.607	29337
808.749	29573
808.891	29805
809.033	29954
809.174	29760
809.316	29672
809.458	29718
809.6	29524
809.741	29638
809.883	29760
810.025	29920
810.166	29775
810.308	30011
810.45	29897
810.591	29729
810.733	29737
810.875	29722
811.016	29512
811.158	29497
811.299	29764
811.441	29722
811.582	29752
811.724	29642
811.865	29585
812.007	29657
812.148	29604
812.29	29573
812.431	29741
812.573	30114
812.714	30045
812.855	30057
812.997	30167
813.138	30456
813.279	30372
813.421	30152
813.562	29969
813.703	29958
813.845	29893
813.986	29611
814.127	29444
814.268	29208
814.41	29372
814.551	29292
814.692	29269
814.833	29212
814.974	29227
815.115	29231
815.256	29265
815.397	29105
815.539	29124
815.68	28999
815.821	28968
815.962	28957
816.103	29098
816.244	28927
816.385	28835
816.526	28713
816.666	28557
816.807	28588
816.948	28649
817.089	28481
817.23	28573
817.371	28607
817.512	28504
817.653	28344
817.793	28405
817.934	28516
818.075	28428
818.216	28546
818.356	28413
818.497	28424
818.638	28120
818.778	28185
818.919	28268
819.06	28234
819.2	28440
819.341	28268
819.481	28295
819.622	28535
819.762	28771
819.903	28637
820.043	28656
820.184	28466
820.324	28538
820.465	28611
820.605	28637
820.746	28478
820.886	28428
821.026	28516
821.167	28519
821.307	28645
821.447	28390
821.588	28173
821.728	28169
821.868	28021
822.008	27964
822.149	27789
822.289	27869
822.429	27507
822.569	27549
822.709	27739
822.849	27310
822.99	27382
823.13	27386
823.27	27287
823.41	27302
823.55	27036
823.69	27180
823.83	27157
823.97	27180
824.11	27005
824.25	26979
824.389	27005
824.529	27108
824.669	26940
824.809	27108
824.949	27036
825.089	27112
825.228	27066
825.368	26777
825.508	26986
825.648	26902
825.787	26804
825.927	26887
826.067	26724
826.206	26796
826.346	26929
826.485	26929
826.625	26739
826.765	26826
826.904	26804
827.044	26568
827.183	26602
827.323	26488
827.462	26522
827.601	26469
827.741	26446
827.88	26613
828.02	26301
828.159	26400
828.298	26549
828.437	26507
828.577	26419
828.716	26613
828.855	26400
828.994	26161
829.134	26195
829.273	26126
829.412	26084
829.551	26191
829.69	25944
829.829	26256
829.968	26267
830.107	26164
830.246	26206
830.385	26122
830.524	25993
830.663	26001
830.802	25837
830.941	25757
831.08	25639
831.219	25746
831.357	25696
831.496	25879
831.635	25845
831.774	25575
831.913	25540
832.051	25613
832.19	25373
832.329	25601
832.467	25400
832.606	25282
832.744	25339
832.883	25449
833.022	25377
833.16	25415
833.299	25411
833.437	25381
833.576	25575
833.714	25514
833.852	25453
833.991	25400
834.129	25384
834.267	25464
834.406	25529
834.544	25441
834.682	25441
834.821	25324
834.959	25594
835.097	25453
835.235	25582
835.373	25255
835.511	25403
835.65	25209
835.788	25278
835.926	24970
836.064	24992
836.202	25057
836.34	25190
836.478	25270
836.615	25183
836.753	25198
836.891	25259
837.029	25164
837.167	25156
837.305	25145
837.443	25072
837.58	24935
837.718	24928
837.856	24878
837.993	24806
838.131	24985
838.269	24939
838.406	24905
838.544	24947
838.681	24578
838.819	24635
838.956	24467
839.094	24460
839.231	24494
839.369	24601
839.506	24951
839.643	24738
839.781	24490
839.918	24467
840.055	24330
840.193	24323
840.33	24372
840.467	24289
840.604	24258
840.742	24601
840.879	24129
841.016	24186
841.153	24155
841.29	24407
841.427	24330
841.564	24342
841.701	24338
841.838	24224
841.975	24083
842.112	24213
842.249	24159
842.385	24125
842.522	24254
842.659	24083
842.796	24110
842.933	24034
843.069	23942
843.206	23996
843.343	24049
843.479	24057
843.616	23916
843.752	23855
843.889	23805
844.025	23988
844.162	23729
844.298	23832
844.435	23783
844.571	23863
844.708	23847
844.844	24007
844.98	24026
845.117	23916
845.253	23729
845.389	23630
845.525	23691
845.661	23596
845.798	23482
845.934	23611
846.07	23589
846.206	23611
846.342	23733
846.478	23524
846.614	23231
846.75	23159
846.886	23193
847.022	23227
847.158	23269
847.294	23155
847.429	23162
847.565	23124
847.701	23509
847.837	23041
847.972	23014
848.108	23071
848.244	23079
848.379	22869
848.515	22866
848.65	22675
848.786	22759
848.921	22710
849.057	22949
849.192	22778
849.328	22839
849.463	22786
849.598	22763
849.734	22698
849.869	22736
850.004	22550
850.14	22554
850.275	22481
850.41	22478
850.545	22527
850.68	22413
850.815	22523
850.95	22443
851.085	22660
851.22	22538
851.355	22493
851.49	22432
851.625	22500
851.76	22653
851.895	22447
852.03	22451
852.165	22504
852.299	22577
852.434	22672
852.569	22603
852.703	22512
852.838	22554
852.973	22634
853.107	22630
853.242	22428
853.376	22356
853.511	22291
853.645	22147
853.78	22474
853.914	22356
854.048	22223
854.183	22211
854.317	22215
854.451	22519
854.585	22402
854.72	22299
854.854	22432
854.988	22284
855.122	22238
855.256	22120
855.39	22246
855.524	22398
855.658	22424
855.792	22337
855.926	22318
856.06	22421
856.194	22322
856.327	22310
856.461	22131
856.595	22280
856.729	22177
856.862	22314
856.996	22295
857.13	22234
857.263	22500
857.397	22432
857.53	22306
857.664	22230
857.797	22352
857.931	22379
858.064	22287
858.197	22405
858.331	22257
858.464	22246
858.597	22181
858.731	22299
858.864	22238
858.997	22188
859.13	22409
859.263	22284
859.396	22402
859.529	22211
859.662	22154
859.795	22128
859.928	22234
860.061	22356
860.194	22455
860.327	22432
860.46	22356
860.592	22318
860.725	22367
860.858	22230
860.99	22192
861.123	22188
861.256	22135
861.388	22215
861.521	22953
861.653	22177
861.786	21930
861.918	22105
862.05	22207
862.183	22310
862.315	22352
862.447	22181
862.58	22284
862.712	21838
862.844	21911
862.976	22029
863.108	21899
863.24	22310
863.372	21865
863.504	22010
863.636	21983
863.768	21934
863.9	22010
864.032	21911
864.164	21857
864.296	21903
864.428	22032
864.559	22013
864.691	22006
864.823	21956
864.954	21994
865.086	21785
865.217	21876
865.349	21770
865.48	21797
865.612	21827
865.743	21941
865.875	21797
866.006	21819
866.137	21812
866.269	21793
866.4	21789
866.531	21713
866.662	21709
866.793	21724
866.924	21705
867.055	21789
867.186	21762
867.317	21713
867.448	21698
867.579	21652
867.71	21606
867.841	21629
867.972	21751
868.103	21774
868.233	21728
868.364	21789
868.495	21797
868.625	21911
868.756	22101
868.886	21865
869.017	21968
869.147	22067
869.278	21991
869.408	22048
869.539	21911
869.669	22032
869.799	22090
869.929	22032
870.06	22105
870.19	22348
870.32	22234
870.45	22265
870.58	22371
870.71	22516
870.84	22497
870.97	22386
871.1	22306
871.23	22421
871.36	22588
871.489	22512
871.619	22561
871.749	22531
871.879	22565
872.008	22622
872.138	22561
872.267	22588
872.397	22306
872.526	22485
872.656	22394
872.785	22394
872.915	22592
873.044	22668
873.173	22516
873.303	22641
873.432	22607
873.561	22691
873.69	22580
873.819	22599
873.948	22596
874.077	22500
874.206	22569
874.335	22611
874.464	22679
874.593	22892
874.722	22866
874.851	22744
874.979	22976
875.108	22957
875.237	22816
875.365	22698
875.494	22717
875.623	22881
875.751	22759
875.88	22744
876.008	22843
876.136	22927
876.265	23216
876.393	23402
876.521	23326
876.65	23200
876.778	23155
876.906	23128
877.034	23174
877.162	23185
877.29	23174
877.418	23147
877.546	23220
877.674	23265
877.802	23178
877.93	23227
878.058	23159
878.185	22972
878.313	23121
878.441	23044
878.568	22946
878.696	23064
878.824	23197
878.951	23269
879.079	23315
879.206	23330
879.333	23303
879.461	23250
879.588	23273
879.715	23299
879.842	23505
879.97	23227
880.097	22904
880.224	22873
880.351	22999
880.478	22847
880.605	22831
880.732	22984
880.859	23208
880.986	22991
881.112	23075
881.239	22824
881.366	22717
881.493	22801
881.619	22584
881.746	22546
881.872	22523
881.999	22523
882.125	22481
882.252	22615
882.378	22538
882.505	22580
882.631	22341
882.757	22291
882.883	22318
883.01	22318
883.136	22150
883.262	22150
883.388	22105
883.514	22352
883.64	22177
883.766	22120
883.892	22188
884.018	21979
884.143	22249
884.269	22348
884.395	21880
884.52	21835
884.646	21915
884.772	21747
884.897	21660
885.023	21816
885.148	21937
885.274	22013
885.399	21972
885.524	21876
885.65	21854
885.775	21865
885.9	21987
886.025	21956
886.15	21998
886.275	21854
886.4	21732
886.525	21804
886.65	21743
886.775	21682
886.9	21998
887.025	22070
887.149	21816
887.274	21667
887.399	21523
887.523	21660
887.648	21538
887.773	21538
887.897	21610
888.021	21568
888.146	21424
888.27	21667
888.395	21663
888.519	21732
888.643	21667
888.767	21606
888.891	21458
889.015	21393
889.139	21466
889.263	21416
889.387	21397
889.511	21644
889.635	21488
889.759	21374
889.883	21329
890.006	21519
890.13	21454
890.254	21173
890.377	21355
890.501	21085
890.624	21096
890.748	21203
890.871	21013
890.995	20975
891.118	20941
891.241	20986
891.364	21077
891.488	21081
891.611	21077
891.734	20899
891.857	20944
891.98	20933
892.103	20956
892.226	20967
892.349	20925
892.471	20815
892.594	20838
892.717	20899
892.839	20819
892.962	20883
893.085	20971
893.207	20724
893.33	20705
893.452	20861
893.575	20815
893.697	20834
893.819	21032
893.941	20982
894.064	20941
894.186	20845
894.308	20735
894.43	20830
894.552	20960
894.674	20849
894.796	20826
894.918	20788
895.04	20906
895.161	20796
895.283	20921
895.405	20777
895.526	20811
895.648	20762
895.769	20834
895.891	20887
896.012	20956
896.134	20861
896.255	20910
896.376	20735
896.498	20724
896.619	20956
896.74	20830
896.861	20967
896.982	21199
897.103	21310
897.224	21070
897.345	21108
897.466	20937
897.587	21013
897.708	21222
897.828	21074
897.949	21036
898.07	20716
898.19	20979
898.311	21039
898.431	20975
898.552	21070
898.672	21074
898.792	21055
898.913	21020
899.033	20834
899.153	20800
899.273	20678
899.393	20716
899.513	20864
899.633	20758
899.753	20705
899.873	20712
899.993	20811
900.113	20651
900.232	20754
900.352	20640
900.472	20484
900.591	20476
900.711	20655
900.83	20518
900.95	20629
901.069	20644
901.189	20347
901.308	20050
901.427	20073
901.546	20058
901.665	20168
901.784	20107
901.904	19944
902.023	19909
902.141	19582
902.26	19609
902.379	19651
902.498	19521
902.617	19518
902.735	19632
902.854	19609
902.973	19297
903.091	19247
903.21	19259
903.328	19293
903.446	19095
903.565	19038
903.683	19076
903.801	18928
903.919	19034
904.038	18973
904.156	18779
904.274	18897
904.392	18795
904.51	18791
904.627	18738
904.745	18863
904.863	18825
904.981	18623
905.098	18410
905.216	18441
905.334	18399
905.451	18384
905.569	18479
905.686	18323
905.803	18372
905.921	18224
906.038	18467
906.155	18232
906.272	18133
906.389	18110
906.506	17980
906.623	18003
906.74	17939
906.857	17843
906.974	17901
907.091	17969
907.208	18121
907.324	18003
907.441	17927
907.557	17726
907.674	17653
907.79	17623
907.907	17649
908.023	17726
908.139	17699
908.256	17562
908.372	17585
908.488	17471
908.604	17364
908.72	17395
908.836	17341
908.952	17299
909.068	17364
909.184	17486
909.3	17349
909.415	17353
909.531	17330
909.647	17109
909.762	17067
909.878	17022
909.993	17124
910.108	17067
910.224	16915
910.339	17025
910.454	16904
910.57	16744
910.685	16786
910.8	17098
910.915	17067
911.03	16771
911.145	16672
911.259	16687
911.374	16675
911.489	16611
911.604	16565
911.718	16371
911.833	16466
911.947	16246
912.062	16223
912.176	16417
912.291	16440
912.405	16215
912.519	16626
912.633	16584
912.748	16527
912.862	16230
912.976	16135
913.09	15945
913.204	16055
913.318	16166
913.431	16242
913.545	16303
913.659	16215
913.772	16154
913.886	15979
914	15880
914.113	16025
914.226	16055
914.34	15991
914.453	15766
914.566	15956
914.68	15888
914.793	15732
914.906	15485
915.019	15534
915.132	15557
915.245	15561
915.358	15542
915.47	15504
915.583	15511
915.696	15557
915.809	15644
915.921	15720
916.034	15488
916.146	15466
916.259	15431
916.371	15473
916.483	15481
916.595	15397
916.708	15313
916.82	15496
916.932	15336
917.044	15351
917.156	15313
917.268	15249
917.38	15169
917.491	15062
917.603	15173
917.715	15226
917.826	15336
917.938	14990
918.049	14979
918.161	15100
918.272	15279
918.384	15180
918.495	15104
918.606	15112
918.717	14998
918.828	14933
918.939	14933
919.05	14781
919.161	14891
919.272	14796
919.383	14849
919.494	14998
919.604	15218
919.715	14845
919.826	14781
919.936	14883
920.047	14906
920.157	14785
920.267	15036
920.378	14910
920.488	14769
920.598	15051
920.708	15154
920.818	14918
920.928	14998
921.038	15211
921.148	15100
921.258	14868
921.368	14651
921.477	14617
921.587	14530
921.697	14461
921.806	14587
921.916	14454
922.025	14221
922.134	14256
922.244	14164
922.353	14248
922.462	14077
922.571	14035
922.68	13898
922.789	13849
922.898	13852
923.007	13704
923.116	13833
923.224	13742
923.333	13776
923.442	13715
923.55	13586
923.659	13738
923.767	13677
923.876	13586
923.984	13666
924.092	13578
924.201	13571
924.309	13548
924.417	13609
924.525	13472
924.633	13559
924.741	14320
924.849	13301
924.956	13472
925.064	13270
925.172	13236
925.279	13312
925.387	13327
925.494	13194
925.602	13350
925.709	13312
925.816	13145
925.924	13198
926.031	13308
926.138	13232
926.245	13247
926.352	13050
926.459	13171
926.566	13213
926.673	13095
926.779	12966
926.886	12901
926.993	12798
927.099	12776
927.206	12768
927.312	12787
927.419	12772
927.525	12757
927.631	12768
927.737	12741
927.843	12612
927.95	12604
928.056	12711
928.162	12608
928.267	12677
928.373	13285
928.479	12620
928.585	12426
928.69	12555
928.796	12593
928.901	12528
929.007	12300
929.112	12483
929.218	12403
929.323	12346
929.428	12342
929.533	12456
929.638	12178
929.743	12372
929.848	12388
929.953	12258
930.058	12247
930.163	11984
930.267	11977
930.372	12175
930.477	11912
930.581	12129
930.685	11973
930.79	11840
930.894	11965
930.998	11855
931.103	11965
931.207	11638
931.311	11562
931.415	11444
931.519	11242
931.623	11269
