Data from test_V78500241_726.txt Node
Date: Fri Mar 25 15:46:49 CST 2022
User: usil
Spectrometer: V785-0024
Trigger mode: 0
Integration Time (sec): 4.000000E-1
Scans to average: 1
Nonlinearity correction enabled: false
Boxcar width: 0
Storing dark spectrum: false
XAxis mode: Wavelengths
Number of Pixels in Spectrum: 1024
>>>>>Begin Spectral Data<<<<<
801.071	27972
801.214	27873
801.356	27720
801.499	27389
801.641	27500
801.783	27272
801.926	27435
802.068	27507
802.211	27439
802.353	27294
802.496	27066
802.638	27058
802.78	27001
802.923	27005
803.065	27108
803.208	27062
803.35	27249
803.492	27192
803.635	27374
803.777	27199
803.919	27374
804.061	27701
804.204	27287
804.346	27249
804.488	27233
804.63	27313
804.773	27077
804.915	27412
805.057	27443
805.199	27351
805.341	27100
805.483	27450
805.626	27435
805.768	27397
805.91	27325
806.052	27412
806.194	27431
806.336	27576
806.478	27443
806.62	27477
806.762	27618
806.904	27679
807.046	27831
807.188	27846
807.33	27941
807.472	27949
807.614	27656
807.756	27880
807.898	27553
808.04	27739
808.182	27747
808.324	27606
808.465	27633
808.607	27930
808.749	28029
808.891	28124
809.033	28314
809.174	28078
809.316	28185
809.458	28196
809.6	28070
809.741	28261
809.883	28257
810.025	28367
810.166	28310
810.308	28261
810.45	28318
810.591	28230
810.733	28158
810.875	27987
811.016	28147
811.158	28059
811.299	28181
811.441	28341
811.582	28226
811.724	28082
811.865	28169
812.007	28105
812.148	28059
812.29	28223
812.431	28196
812.573	28466
812.714	28516
812.855	28668
812.997	28721
813.138	29052
813.279	28740
813.421	28519
813.562	28573
813.703	28325
813.845	28303
813.986	28135
814.127	27762
814.268	27759
814.41	27880
814.551	27709
814.692	27785
814.833	27876
814.974	27709
815.115	27644
815.256	27732
815.397	27789
815.539	27625
815.68	27485
815.821	27500
815.962	27523
816.103	27629
816.244	27306
816.385	27367
816.526	27291
816.666	27116
816.807	27066
816.948	27150
817.089	27237
817.23	27135
817.371	27116
817.512	27066
817.653	26998
817.793	26960
817.934	26975
818.075	27169
818.216	27058
818.356	27024
818.497	26979
818.638	26765
818.778	26811
818.919	26864
819.06	26891
819.2	27005
819.341	26967
819.481	27009
819.622	27294
819.762	27469
819.903	27279
820.043	27222
820.184	27169
820.324	27108
820.465	27252
820.605	27218
820.746	27169
820.886	26891
821.026	27123
821.167	27233
821.307	27230
821.447	27146
821.588	27017
821.728	26857
821.868	26682
822.008	26678
822.149	26575
822.289	26632
822.429	26336
822.569	26229
822.709	26240
822.849	26088
822.99	25940
823.13	26134
823.27	25986
823.41	25799
823.55	25681
823.69	25898
823.83	25833
823.97	25887
824.11	25685
824.25	25693
824.389	25693
824.529	25746
824.669	25693
824.809	25845
824.949	25769
825.089	25887
825.228	25849
825.368	25540
825.508	25613
825.648	25563
825.787	25651
825.927	25662
826.067	25567
826.206	25552
826.346	25620
826.485	25624
826.625	25445
826.765	25578
826.904	25590
827.044	25369
827.183	25400
827.323	25278
827.462	25400
827.601	25240
827.741	25168
827.88	25301
828.02	25213
828.159	25217
828.298	25278
828.437	25419
828.577	25301
828.716	25438
828.855	25164
828.994	24958
829.134	24909
829.273	25000
829.412	24996
829.551	24916
829.69	24909
829.829	24977
829.968	25088
830.107	25076
830.246	24947
830.385	24814
830.524	24856
830.663	24703
830.802	24661
830.941	24627
831.08	24593
831.219	24688
831.357	24776
831.496	24871
831.635	24711
831.774	24486
831.913	24498
832.051	24486
832.19	24365
832.329	24486
832.467	24319
832.606	24220
832.744	24350
832.883	24258
833.022	24136
833.16	24384
833.299	24384
833.437	24251
833.576	24247
833.714	24369
833.852	24384
833.991	24380
834.129	24353
834.267	24403
834.406	24437
834.544	24323
834.682	24372
834.821	24445
834.959	24410
835.097	24289
835.235	24361
835.373	24338
835.511	24418
835.65	24110
835.788	24178
835.926	24133
836.064	23950
836.202	23999
836.34	24102
836.478	24224
836.615	24057
836.753	24129
836.891	24106
837.029	24201
837.167	24144
837.305	24102
837.443	24030
837.58	23996
837.718	23946
837.856	23950
837.993	24060
838.131	24003
838.269	23931
838.406	24045
838.544	23870
838.681	23615
838.819	23714
838.956	23436
839.094	23387
839.231	23471
839.369	23745
839.506	23897
839.643	23714
839.781	23482
839.918	23334
840.055	23531
840.193	23379
840.33	23318
840.467	23356
840.604	23497
840.742	23680
840.879	23288
841.016	23372
841.153	23204
841.29	23604
841.427	23448
841.564	23471
841.701	23303
841.838	23223
841.975	23372
842.112	23212
842.249	23113
842.385	23170
842.522	23345
842.659	23254
842.796	23060
842.933	23147
843.069	23067
843.206	23075
843.343	23121
843.479	23181
843.616	23159
843.752	22889
843.889	22908
844.025	23018
844.162	22809
844.298	22953
844.435	22900
844.571	22782
844.708	22957
844.844	23056
844.98	22957
845.117	22976
845.253	22847
845.389	22797
845.525	22816
845.661	22778
845.798	22630
845.934	22725
846.07	22584
846.206	22580
846.342	22725
846.478	22710
846.614	22481
846.75	22329
846.886	22428
847.022	22322
847.158	22379
847.294	22375
847.429	22341
847.565	22306
847.701	22626
847.837	22181
847.972	22051
848.108	22337
848.244	22200
848.379	22124
848.515	21918
848.65	21934
848.786	21983
848.921	21964
849.057	22029
849.192	22116
849.328	22017
849.463	21895
849.598	21937
849.734	21850
849.869	21728
850.004	21705
850.14	21854
850.275	21804
850.41	21614
850.545	21603
850.68	21629
850.815	21622
850.95	21644
851.085	21842
851.22	21907
851.355	21675
851.49	21663
851.625	21633
851.76	21827
851.895	21644
852.03	21781
852.165	21743
852.299	21838
852.434	21705
852.569	21743
852.703	21759
852.838	21835
852.973	21876
853.107	21888
853.242	21652
853.376	21542
853.511	21443
853.645	21416
853.78	21625
853.914	21534
854.048	21587
854.183	21519
854.317	21481
854.451	21785
854.585	21572
854.72	21477
854.854	21606
854.988	21488
855.122	21500
855.256	21397
855.39	21420
855.524	21656
855.658	21507
855.792	21435
855.926	21545
856.06	21557
856.194	21557
856.327	21431
856.461	21382
856.595	21610
856.729	21431
856.862	21675
856.996	21473
857.13	21519
857.263	21625
857.397	21652
857.53	21580
857.664	21622
857.797	21587
857.931	21618
858.064	21587
858.197	21648
858.331	21443
858.464	21435
858.597	21431
858.731	21469
858.864	21454
858.997	21534
859.13	21500
859.263	21610
859.396	21641
859.529	21549
859.662	21568
859.795	21462
859.928	21526
860.061	21644
860.194	21751
860.327	21641
860.46	21431
860.592	21759
860.725	21759
860.858	21618
860.99	21644
861.123	21477
861.256	21424
861.388	21610
861.521	22086
861.653	21454
861.786	21378
861.918	21378
862.05	21473
862.183	21572
862.315	21416
862.447	21492
862.58	21481
862.712	21230
862.844	21131
862.976	21389
863.108	21275
863.24	21709
863.372	21180
863.504	21230
863.636	21245
863.768	21302
863.9	21332
864.032	21184
864.164	21195
864.296	21249
864.428	21488
864.559	21332
864.691	21363
864.823	21283
864.954	21256
865.086	21146
865.217	21112
865.349	21157
865.48	21112
865.612	21142
865.743	21329
865.875	21188
866.006	21123
866.137	21230
866.269	21195
866.4	21169
866.531	21207
866.662	21089
866.793	20990
866.924	20944
867.055	21142
867.186	21119
867.317	21062
867.448	20861
867.579	20990
867.71	21005
867.841	21028
867.972	21055
868.103	21001
868.233	21165
868.364	21005
868.495	21127
868.625	21332
868.756	21447
868.886	21237
869.017	21306
869.147	21424
869.278	21416
869.408	21351
869.539	21321
869.669	21287
869.799	21370
869.929	21477
870.06	21386
870.19	21679
870.32	21644
870.45	21717
870.58	21759
870.71	21728
870.84	21781
870.97	21709
871.1	21717
871.23	21987
871.36	21953
871.489	21739
871.619	21968
871.749	21823
871.879	22036
872.008	22010
872.138	21854
872.267	21968
872.397	21781
872.526	21717
872.656	21720
872.785	21663
872.915	21793
873.044	21979
873.173	21930
873.303	22032
873.432	21926
873.561	21991
873.69	21888
873.819	21903
873.948	22063
874.077	22006
874.206	21953
874.335	21854
874.464	21991
874.593	22124
874.722	22318
874.851	22207
874.979	22131
875.108	22147
875.237	22006
875.365	22044
875.494	22128
875.623	22150
875.751	22158
875.88	22173
876.008	22181
876.136	22318
876.265	22538
876.393	22710
876.521	22596
876.65	22645
876.778	22546
876.906	22512
877.034	22432
877.162	22554
877.29	22478
877.418	22500
877.546	22618
877.674	22561
877.802	22341
877.93	22504
878.058	22413
878.185	22348
878.313	22527
878.441	22459
878.568	22417
878.696	22500
878.824	22516
878.951	22592
879.079	22577
879.206	22843
879.333	22691
879.461	22462
879.588	22706
879.715	22641
879.842	22713
879.97	22565
880.097	22295
880.224	22268
880.351	22398
880.478	22272
880.605	22280
880.732	22382
880.859	22478
880.986	22367
881.112	22440
881.239	22147
881.366	22078
881.493	21983
881.619	21842
881.746	21899
881.872	21918
881.999	21861
882.125	21831
882.252	21934
882.378	21854
882.505	21983
882.631	21717
882.757	21816
882.883	21622
883.01	21648
883.136	21568
883.262	21492
883.388	21317
883.514	21572
883.64	21500
883.766	21473
883.892	21507
884.018	21469
884.143	21481
884.269	21469
884.395	21370
884.52	21154
884.646	21199
884.772	21070
884.897	21070
885.023	21279
885.148	21298
885.274	21386
885.399	21393
885.524	21321
885.65	21230
885.775	21184
885.9	21272
886.025	21378
886.15	21291
886.275	21173
886.4	21116
886.525	21157
886.65	21180
886.775	21192
886.9	21268
887.025	21344
887.149	21203
887.274	21055
887.399	20998
887.523	21096
887.648	21005
887.773	20971
887.897	21081
888.021	21127
888.146	21043
888.27	21135
888.395	21096
888.519	21058
888.643	20902
888.767	21070
888.891	20960
889.015	20792
889.139	20910
889.263	20762
889.387	20902
889.511	21020
889.635	20941
889.759	20667
889.883	20708
890.006	20861
890.13	20895
890.254	20686
890.377	20636
890.501	20507
890.624	20522
890.748	20545
890.871	20465
890.995	20415
891.118	20305
891.241	20343
891.364	20419
891.488	20427
891.611	20301
891.734	20305
891.857	20374
891.98	20362
892.103	20381
892.226	20381
892.349	20233
892.471	20187
892.594	20332
892.717	20381
892.839	20252
892.962	20301
893.085	20286
893.207	20271
893.33	20195
893.452	20187
893.575	20240
893.697	20282
893.819	20431
893.941	20473
894.064	20415
894.186	20111
894.308	20122
894.43	20233
894.552	20294
894.674	20347
894.796	20195
894.918	20183
895.04	20214
895.161	20313
895.283	20374
895.405	20100
895.526	20202
895.648	20256
895.769	20248
895.891	20271
896.012	20343
896.134	20244
896.255	20214
896.376	20290
896.498	20218
896.619	20324
896.74	20336
896.861	20355
896.982	20598
897.103	20868
897.224	20606
897.345	20400
897.466	20419
897.587	20423
897.708	20564
897.828	20560
897.949	20415
898.07	20298
898.19	20393
898.311	20530
898.431	20393
898.552	20442
898.672	20549
898.792	20511
898.913	20518
899.033	20389
899.153	20195
899.273	20191
899.393	20271
899.513	20240
899.633	20183
899.753	20176
899.873	20221
899.993	20267
900.113	20225
900.232	20195
900.352	20153
900.472	20084
900.591	19932
900.711	20027
900.83	20035
900.95	20065
901.069	20054
901.189	19837
901.308	19624
901.427	19616
901.546	19567
901.665	19624
901.784	19658
901.904	19335
902.023	19441
902.141	19202
902.26	19129
902.379	19156
902.498	19209
902.617	19190
902.735	19221
902.854	19050
902.973	19053
903.091	18856
903.21	18722
903.328	18798
903.446	18722
903.565	18582
903.683	18642
903.801	18452
903.919	18532
904.038	18547
904.156	18376
904.274	18346
904.392	18281
904.51	18304
904.627	18323
904.745	18228
904.863	18357
904.981	18182
905.098	17904
905.216	18053
905.334	17999
905.451	17988
905.569	17935
905.686	18087
905.803	17901
905.921	17771
906.038	17870
906.155	17843
906.272	17649
906.389	17798
906.506	17524
906.623	17657
906.74	17471
906.857	17436
906.974	17505
907.091	17581
907.208	17562
907.324	17619
907.441	17467
907.557	17383
907.674	17220
907.79	17117
907.907	17189
908.023	17185
908.139	17155
908.256	17170
908.372	17242
908.488	17121
908.604	16984
908.72	16930
908.836	17041
908.952	16892
909.068	16972
909.184	17098
909.3	16980
909.415	16965
909.531	17014
909.647	16755
909.762	16679
909.878	16588
909.993	16687
910.108	16660
910.224	16615
910.339	16763
910.454	16508
910.57	16481
910.685	16428
910.8	16713
910.915	16630
911.03	16523
911.145	16310
911.259	16257
911.374	16265
911.489	16147
911.604	16143
911.718	16048
911.833	16006
911.947	15941
912.062	15915
912.176	16029
912.291	16059
912.405	16063
912.519	16253
912.633	16211
912.748	16071
912.862	15972
912.976	15884
913.09	15762
913.204	15751
913.318	15873
913.431	15941
913.545	15926
913.659	15800
913.772	15717
913.886	15686
914	15625
914.113	15603
914.226	15705
914.34	15671
914.453	15564
914.566	15694
914.68	15466
914.793	15420
914.906	15260
915.019	15245
915.132	15241
915.245	15313
915.358	15298
915.47	15188
915.583	15214
915.696	15310
915.809	15351
915.921	15348
916.034	15176
916.146	15199
916.259	15112
916.371	15260
916.483	15199
916.595	15009
916.708	15112
916.82	14967
916.932	14994
917.044	14948
917.156	14918
917.268	14773
917.38	14899
917.491	14754
917.603	14872
917.715	14998
917.826	14982
917.938	14823
918.049	14765
918.161	14785
918.272	14941
918.384	14906
918.495	14895
918.606	14648
918.717	14610
918.828	14708
918.939	14689
919.05	14594
919.161	14530
919.272	14431
919.383	14450
919.494	14537
919.604	14823
919.715	14651
919.826	14446
919.936	14575
920.047	14750
920.157	14644
920.267	14895
920.378	14579
920.488	14461
920.598	14823
920.708	14910
920.818	14724
920.928	14716
921.038	14937
921.148	14845
921.258	14442
921.368	14476
921.477	14381
921.587	14298
921.697	14199
921.806	14370
921.916	14161
922.025	14001
922.134	13906
922.244	13947
922.353	13955
922.462	13852
922.571	13826
922.68	13582
922.789	13575
922.898	13609
923.007	13620
923.116	13613
923.224	13510
923.333	13548
923.442	13556
923.55	13453
923.659	13453
923.767	13468
923.876	13373
923.984	13468
924.092	13324
924.201	13350
924.309	13384
924.417	13369
924.525	13335
924.633	13240
924.741	14271
924.849	13042
924.956	13278
925.064	13179
925.172	12943
925.279	13065
925.387	13015
925.494	13008
925.602	13088
925.709	12996
925.816	12939
925.924	12947
926.031	13080
926.138	12973
926.245	12966
926.352	12852
926.459	13053
926.566	12981
926.673	12859
926.779	12745
926.886	12753
926.993	12623
927.099	12604
927.206	12551
927.312	12513
927.419	12707
927.525	12532
927.631	12639
927.737	12460
927.843	12391
927.95	12426
928.056	12403
928.162	12517
928.267	12399
928.373	13053
928.479	12498
928.585	12235
928.69	12277
928.796	12441
928.901	12239
929.007	12209
929.112	12235
929.218	12262
929.323	12247
929.428	12102
929.533	12216
929.638	12011
929.743	12159
929.848	12186
929.953	12079
930.058	11950
930.163	11843
930.267	11824
930.372	11908
930.477	11745
930.581	11992
930.685	11863
930.79	11661
930.894	11684
930.998	11630
931.103	11828
931.207	11463
931.311	11356
931.415	11220
931.519	11083
931.623	11014
