Data from test_V78500241_1663.txt Node
Date: Fri Mar 25 15:53:19 CST 2022
User: usil
Spectrometer: V785-0024
Trigger mode: 0
Integration Time (sec): 4.000000E-1
Scans to average: 1
Nonlinearity correction enabled: false
Boxcar width: 0
Storing dark spectrum: false
XAxis mode: Wavelengths
Number of Pixels in Spectrum: 1024
>>>>>Begin Spectral Data<<<<<
801.071	28337
801.214	28295
801.356	28139
801.499	28154
801.641	27949
801.783	27835
801.926	27812
802.068	27812
802.211	27827
802.353	27713
802.496	27644
802.638	27462
802.78	27538
802.923	27408
803.065	27427
803.208	27397
803.35	27736
803.492	27701
803.635	27663
803.777	27633
803.919	27713
804.061	28090
804.204	27759
804.346	27739
804.488	27846
804.63	27720
804.773	27572
804.915	27766
805.057	27991
805.199	27762
805.341	27724
805.483	27846
805.626	27857
805.768	27888
805.91	27884
806.052	27895
806.194	27899
806.336	28120
806.478	27857
806.62	27914
806.762	28097
806.904	28238
807.046	28413
807.188	28390
807.33	28268
807.472	28348
807.614	28314
807.756	28386
807.898	28219
808.04	28177
808.182	28097
808.324	28150
808.465	28272
808.607	28322
808.749	28466
808.891	28592
809.033	28675
809.174	28710
809.316	28615
809.458	28481
809.6	28519
809.741	28660
809.883	28641
810.025	28771
810.166	28911
810.308	28885
810.45	28816
810.591	28923
810.733	28588
810.875	28557
811.016	28535
811.158	28421
811.299	28653
811.441	28721
811.582	28717
811.724	28554
811.865	28626
812.007	28531
812.148	28561
812.29	28470
812.431	28759
812.573	28873
812.714	29018
812.855	29048
812.997	29064
813.138	29360
813.279	28968
813.421	29056
813.562	28999
813.703	28991
813.845	28965
813.986	28493
814.127	28386
814.268	28356
814.41	28249
814.551	28230
814.692	28474
814.833	28147
814.974	28128
815.115	28367
815.256	28105
815.397	28147
815.539	28147
815.68	27991
815.821	28021
815.962	28078
816.103	28131
816.244	27968
816.385	27975
816.526	27728
816.666	27717
816.807	27618
816.948	27618
817.089	27736
817.23	27576
817.371	27633
817.512	27644
817.653	27523
817.793	27389
817.934	27549
818.075	27572
818.216	27504
818.356	27485
818.497	27420
818.638	27275
818.778	27393
818.919	27283
819.06	27275
819.2	27405
819.341	27473
819.481	27644
819.622	27667
819.762	27823
819.903	27785
820.043	27732
820.184	27724
820.324	27660
820.465	27743
820.605	27808
820.746	27568
820.886	27466
821.026	27633
821.167	27625
821.307	27675
821.447	27648
821.588	27389
821.728	27397
821.868	27218
822.008	27043
822.149	27127
822.289	27047
822.429	26823
822.569	26750
822.709	26705
822.849	26594
822.99	26606
823.13	26533
823.27	26438
823.41	26237
823.55	26199
823.69	26301
823.83	26282
823.97	26263
824.11	26172
824.25	26084
824.389	26176
824.529	26221
824.669	26225
824.809	26183
824.949	26259
825.089	26214
825.228	26294
825.368	26183
825.508	26043
825.648	25966
825.787	26149
825.927	26161
826.067	25993
826.206	26016
826.346	26100
826.485	26031
826.625	25993
826.765	26172
826.904	26149
827.044	25780
827.183	25780
827.323	25723
827.462	25727
827.601	25837
827.741	25723
827.88	25784
828.02	25734
828.159	25803
828.298	25757
828.437	25860
828.577	25666
828.716	25864
828.855	25727
828.994	25510
829.134	25426
829.273	25514
829.412	25537
829.551	25384
829.69	25479
829.829	25594
829.968	25502
830.107	25552
830.246	25479
830.385	25373
830.524	25365
830.663	25084
830.802	25187
830.941	25107
831.08	24981
831.219	25168
831.357	25126
831.496	25381
831.635	25057
831.774	25076
831.913	24970
832.051	24821
832.19	24901
832.329	24837
832.467	24684
832.606	24604
832.744	24730
832.883	24730
833.022	24764
833.16	24848
833.299	24715
833.437	24772
833.576	24878
833.714	24810
833.852	24848
833.991	24852
834.129	24856
834.267	24920
834.406	24798
834.544	24916
834.682	24806
834.821	24905
834.959	24878
835.097	24722
835.235	24875
835.373	24779
835.511	24768
835.65	24620
835.788	24574
835.926	24608
836.064	24388
836.202	24403
836.34	24566
836.478	24772
836.615	24559
836.753	24574
836.891	24608
837.029	24707
837.167	24677
837.305	24544
837.443	24319
837.58	24536
837.718	24429
837.856	24551
837.993	24395
838.131	24330
838.269	24281
838.406	24266
838.544	24330
838.681	24106
838.819	24148
838.956	23901
839.094	23851
839.231	24152
839.369	24247
839.506	24167
839.643	24163
839.781	23821
839.918	23973
840.055	23980
840.193	23874
840.33	23802
840.467	23790
840.604	23836
840.742	24152
840.879	23699
841.016	23714
841.153	23687
841.29	24003
841.427	23874
841.564	23901
841.701	23904
841.838	23874
841.975	23771
842.112	23615
842.249	23619
842.385	23570
842.522	23790
842.659	23672
842.796	23661
842.933	23638
843.069	23486
843.206	23452
843.343	23547
843.479	23634
843.616	23611
843.752	23337
843.889	23417
844.025	23387
844.162	23482
844.298	23455
844.435	23440
844.571	23372
844.708	23387
844.844	23512
844.98	23414
845.117	23490
845.253	23353
845.389	23239
845.525	23193
845.661	23162
845.798	22984
845.934	23128
846.07	23166
846.206	23044
846.342	23162
846.478	23041
846.614	22889
846.75	22793
846.886	22797
847.022	22957
847.158	22915
847.294	22835
847.429	22824
847.565	22767
847.701	22991
847.837	22474
847.972	22436
848.108	22611
848.244	22645
848.379	22379
848.515	22470
848.65	22424
848.786	22409
848.921	22413
849.057	22519
849.192	22352
849.328	22424
849.463	22493
849.598	22352
849.734	22268
849.869	22265
850.004	22268
850.14	22238
850.275	22204
850.41	22051
850.545	22166
850.68	22230
850.815	22120
850.95	22059
851.085	22284
851.22	22291
851.355	22154
851.49	22169
851.625	22097
851.76	22192
851.895	22021
852.03	21994
852.165	22067
852.299	22219
852.434	22101
852.569	22242
852.703	22215
852.838	22230
852.973	22363
853.107	22318
853.242	22154
853.376	22002
853.511	21876
853.645	21854
853.78	22128
853.914	22120
854.048	21941
854.183	22010
854.317	22090
854.451	22284
854.585	21972
854.72	21857
854.854	22097
854.988	21930
855.122	22017
855.256	21854
855.39	21941
855.524	22021
855.658	21991
855.792	21956
855.926	22010
856.06	22044
856.194	21983
856.327	21930
856.461	21918
856.595	21934
856.729	21991
856.862	22090
856.996	22006
857.13	21994
857.263	22097
857.397	22105
857.53	21991
857.664	22002
857.797	22074
857.931	22021
858.064	21899
858.197	22078
858.331	21903
858.464	22010
858.597	21869
858.731	21994
858.864	21884
858.997	21888
859.13	21983
859.263	21983
859.396	22013
859.529	21937
859.662	21975
859.795	21888
859.928	21941
860.061	22154
860.194	22249
860.327	22131
860.46	21994
860.592	22120
860.725	22048
860.858	22135
860.99	22070
861.123	21934
861.256	21975
861.388	21922
861.521	22599
861.653	21854
861.786	21698
861.918	21816
862.05	21979
862.183	21789
862.315	21846
862.447	21937
862.58	21861
862.712	21717
862.844	21591
862.976	21675
863.108	21720
863.24	22078
863.372	21599
863.504	21637
863.636	21618
863.768	21679
863.9	21660
864.032	21576
864.164	21751
864.296	21717
864.428	21781
864.559	21766
864.691	21759
864.823	21652
864.954	21660
865.086	21682
865.217	21698
865.349	21591
865.48	21694
865.612	21568
865.743	21739
865.875	21469
866.006	21519
866.137	21603
866.269	21660
866.4	21553
866.531	21408
866.662	21488
866.793	21458
866.924	21523
867.055	21412
867.186	21618
867.317	21576
867.448	21428
867.579	21378
867.71	21378
867.841	21340
867.972	21549
868.103	21538
868.233	21477
868.364	21462
868.495	21629
868.625	21656
868.756	21903
868.886	21610
869.017	21736
869.147	21880
869.278	21895
869.408	21778
869.539	21724
869.669	21789
869.799	21728
869.929	21941
870.06	21869
870.19	22010
870.32	22097
870.45	22086
870.58	22139
870.71	22322
870.84	22329
870.97	22166
871.1	22116
871.23	22196
871.36	22402
871.489	22303
871.619	22238
871.749	22295
871.879	22344
872.008	22500
872.138	22371
872.267	22284
872.397	22086
872.526	22059
872.656	22124
872.785	22246
872.915	22200
873.044	22379
873.173	22436
873.303	22386
873.432	22538
873.561	22398
873.69	22325
873.819	22333
873.948	22382
874.077	22253
874.206	22394
874.335	22299
874.464	22459
874.593	22611
874.722	22508
874.851	22645
874.979	22630
875.108	22687
875.237	22584
875.365	22405
875.494	22691
875.623	22561
875.751	22417
875.88	22679
876.008	22634
876.136	22755
876.265	23022
876.393	23041
876.521	23147
876.65	22949
876.778	23014
876.906	22733
877.034	22866
877.162	23010
877.29	22953
877.418	22976
877.546	22923
877.674	22927
877.802	22968
877.93	22904
878.058	22850
878.185	22843
878.313	22790
878.441	22946
878.568	22710
878.696	22805
878.824	22972
878.951	23037
879.079	23064
879.206	23254
879.333	23014
879.461	22987
879.588	23010
879.715	22999
879.842	23189
879.97	22965
880.097	22767
880.224	22626
880.351	22736
880.478	22740
880.605	22691
880.732	22683
880.859	22904
880.986	22729
881.112	22698
881.239	22546
881.366	22516
881.493	22493
881.619	22344
881.746	22508
881.872	22318
881.999	22234
882.125	22196
882.252	22344
882.378	22337
882.505	22428
882.631	22173
882.757	22082
882.883	22135
883.01	21983
883.136	21899
883.262	21846
883.388	21789
883.514	22059
883.64	22070
883.766	22006
883.892	21880
884.018	21892
884.143	21930
884.269	21994
884.395	21614
884.52	21610
884.646	21618
884.772	21686
884.897	21564
885.023	21610
885.148	21732
885.274	21774
885.399	21797
885.524	21568
885.65	21671
885.775	21686
885.9	21591
886.025	21694
886.15	21690
886.275	21610
886.4	21477
886.525	21557
886.65	21580
886.775	21599
886.9	21625
887.025	21831
887.149	21641
887.274	21325
887.399	21420
887.523	21382
887.648	21374
887.773	21260
887.897	21424
888.021	21344
888.146	21291
888.27	21591
888.395	21481
888.519	21370
888.643	21405
888.767	21557
888.891	21428
889.015	21222
889.139	21310
889.263	21222
889.387	21298
889.511	21351
889.635	21230
889.759	21272
889.883	21188
890.006	21241
890.13	21256
890.254	21100
890.377	21051
890.501	20944
890.624	21001
890.748	20975
890.871	20716
890.995	20667
891.118	20689
891.241	20731
891.364	20712
891.488	20937
891.611	20644
891.734	20697
891.857	20849
891.98	20769
892.103	20838
892.226	20735
892.349	20743
892.471	20484
892.594	20712
892.717	20648
892.839	20583
892.962	20655
893.085	20629
893.207	20663
893.33	20594
893.452	20606
893.575	20724
893.697	20613
893.819	20754
893.941	20811
894.064	20727
894.186	20434
894.308	20537
894.43	20651
894.552	20727
894.674	20705
894.796	20552
894.918	20598
895.04	20541
895.161	20640
895.283	20655
895.405	20579
895.526	20575
895.648	20701
895.769	20636
895.891	20621
896.012	20682
896.134	20800
896.255	20598
896.376	20594
896.498	20533
896.619	20686
896.74	20644
896.861	20682
896.982	20887
897.103	21085
897.224	20933
897.345	20826
897.466	20807
897.587	20883
897.708	20861
897.828	20804
897.949	20667
898.07	20720
898.19	20769
898.311	20944
898.431	20712
898.552	20716
898.672	20944
898.792	20788
898.913	20910
899.033	20804
899.153	20549
899.273	20507
899.393	20629
899.513	20545
899.633	20644
899.753	20598
899.873	20423
899.993	20564
900.113	20495
900.232	20621
900.352	20465
900.472	20408
900.591	20199
900.711	20339
900.83	20294
900.95	20556
901.069	20336
901.189	20202
901.308	20054
901.427	20065
901.546	19947
901.665	19982
901.784	19955
901.904	19772
902.023	19731
902.141	19468
902.26	19548
902.379	19426
902.498	19460
902.617	19373
902.735	19472
902.854	19419
902.973	19266
903.091	19080
903.21	19122
903.328	19187
903.446	18928
903.565	18954
903.683	18909
903.801	18753
903.919	18833
904.038	18825
904.156	18654
904.274	18692
904.392	18593
904.51	18578
904.627	18563
904.745	18665
904.863	18696
904.981	18532
905.098	18270
905.216	18334
905.334	18376
905.451	18361
905.569	18311
905.686	18346
905.803	18350
905.921	18060
906.038	18133
906.155	18190
906.272	18034
906.389	17946
906.506	17843
906.623	17923
906.74	17828
906.857	17741
906.974	17767
907.091	17855
907.208	17885
907.324	17775
907.441	17760
907.557	17573
907.674	17596
907.79	17459
907.907	17486
908.023	17627
908.139	17615
908.256	17448
908.372	17391
908.488	17482
908.604	17395
908.72	17265
908.836	17265
908.952	17318
909.068	17235
909.184	17421
909.3	17204
909.415	17311
909.531	17322
909.647	17079
909.762	17033
909.878	16923
909.993	17022
910.108	17041
910.224	17003
910.339	16968
910.454	16877
910.57	16778
910.685	16622
910.8	16919
910.915	16957
911.03	16885
911.145	16504
911.259	16580
911.374	16554
911.489	16573
911.604	16546
911.718	16200
911.833	16405
911.947	16344
912.062	16192
912.176	16246
912.291	16246
912.405	16363
912.519	16554
912.633	16443
912.748	16287
912.862	16284
912.976	16025
913.09	15968
913.204	16093
913.318	16223
913.431	16303
913.545	16192
913.659	16188
913.772	16150
913.886	15975
914	15861
914.113	15968
914.226	16025
914.34	16048
914.453	15762
914.566	15941
914.68	15831
914.793	15819
914.906	15663
915.019	15587
915.132	15492
915.245	15595
915.358	15504
915.47	15473
915.583	15561
915.696	15492
915.809	15644
915.921	15648
916.034	15458
916.146	15382
916.259	15325
916.371	15485
916.483	15481
916.595	15351
916.708	15294
916.82	15272
916.932	15310
917.044	15249
917.156	15245
917.268	15218
917.38	15066
917.491	15173
917.603	15157
917.715	15207
917.826	15203
917.938	15119
918.049	15020
918.161	15154
918.272	15222
918.384	15211
918.495	15097
918.606	14876
918.717	14819
918.828	14899
918.939	14872
919.05	14826
919.161	14880
919.272	14667
919.383	14819
919.494	14895
919.604	15100
919.715	14876
919.826	14788
919.936	14830
920.047	14845
920.157	14864
920.267	15043
920.378	14921
920.488	14853
920.598	15028
920.708	15150
920.818	14990
920.928	14933
921.038	15207
921.148	15131
921.258	14819
921.368	14716
921.477	14488
921.587	14556
921.697	14549
921.806	14594
921.916	14533
922.025	14317
922.134	14294
922.244	14252
922.353	14282
922.462	14119
922.571	14062
922.68	14031
922.789	13925
922.898	13818
923.007	13879
923.116	13894
923.224	13738
923.333	13879
923.442	13715
923.55	13753
923.659	13750
923.767	13734
923.876	13651
923.984	13746
924.092	13666
924.201	13651
924.309	13613
924.417	13586
924.525	13559
924.633	13506
924.741	14301
924.849	13335
924.956	13407
925.064	13285
925.172	13282
925.279	13327
925.387	13358
925.494	13179
925.602	13362
925.709	13289
925.816	13110
925.924	13221
926.031	13270
926.138	13263
926.245	13251
926.352	13137
926.459	13247
926.566	13175
926.673	13076
926.779	13004
926.886	13053
926.993	12852
927.099	12833
927.206	12791
927.312	12719
927.419	12772
927.525	12871
927.631	12795
927.737	12662
927.843	12635
927.95	12604
928.056	12665
928.162	12684
928.267	12665
928.373	13343
928.479	12772
928.585	12464
928.69	12582
928.796	12692
928.901	12456
929.007	12342
929.112	12437
929.218	12475
929.323	12376
929.428	12334
929.533	12414
929.638	12319
929.743	12281
929.848	12399
929.953	12346
930.058	12216
930.163	12038
930.267	12064
930.372	12129
930.477	12022
930.581	12213
930.685	12102
930.79	11999
930.894	11927
930.998	11889
931.103	12007
931.207	11691
931.311	11551
931.415	11493
931.519	11265
931.623	11364
