Data from test_V78500241_1639.txt Node
Date: Fri Mar 25 15:53:09 CST 2022
User: usil
Spectrometer: V785-0024
Trigger mode: 0
Integration Time (sec): 4.000000E-1
Scans to average: 1
Nonlinearity correction enabled: false
Boxcar width: 0
Storing dark spectrum: false
XAxis mode: Wavelengths
Number of Pixels in Spectrum: 1024
>>>>>Begin Spectral Data<<<<<
801.071	27660
801.214	27504
801.356	27405
801.499	27477
801.641	27321
801.783	27252
801.926	27344
802.068	27260
802.211	27252
802.353	27138
802.496	27024
802.638	26937
802.78	26880
802.923	26796
803.065	26830
803.208	26727
803.35	26963
803.492	27066
803.635	27001
803.777	26986
803.919	27062
804.061	27329
804.204	27211
804.346	27043
804.488	27032
804.63	27077
804.773	27028
804.915	27104
805.057	27199
805.199	27245
805.341	26994
805.483	27192
805.626	27218
805.768	27096
805.91	27112
806.052	27218
806.194	27135
806.336	27439
806.478	27302
806.62	27256
806.762	27416
806.904	27454
807.046	27705
807.188	27671
807.33	27709
807.472	27774
807.614	27530
807.756	27667
807.898	27622
808.04	27408
808.182	27427
808.324	27382
808.465	27477
808.607	27652
808.749	27728
808.891	27850
809.033	27945
809.174	27842
809.316	27797
809.458	27690
809.6	27804
809.741	27876
809.883	27968
810.025	28253
810.166	28112
810.308	28013
810.45	28025
810.591	28006
810.733	27812
810.875	27667
811.016	27717
811.158	27762
811.299	27800
811.441	27937
811.582	27895
811.724	27835
811.865	27835
812.007	27774
812.148	27770
812.29	27861
812.431	28002
812.573	28135
812.714	28120
812.855	28371
812.997	28500
813.138	28428
813.279	28531
813.421	28306
813.562	28284
813.703	28124
813.845	27972
813.986	27720
814.127	27618
814.268	27443
814.41	27545
814.551	27389
814.692	27549
814.833	27348
814.974	27473
815.115	27450
815.256	27256
815.397	27416
815.539	27306
815.68	27283
815.821	27211
815.962	27275
816.103	27195
816.244	27123
816.385	27226
816.526	27218
816.666	26861
816.807	26743
816.948	26914
817.089	27009
817.23	26845
817.371	26811
817.512	26849
817.653	26727
817.793	26727
817.934	26743
818.075	26727
818.216	26754
818.356	26735
818.497	26659
818.638	26465
818.778	26590
818.919	26590
819.06	26511
819.2	26621
819.341	26758
819.481	26754
819.622	26906
819.762	27131
819.903	27100
820.043	26952
820.184	26918
820.324	26948
820.465	26895
820.605	26948
820.746	26769
820.886	26731
821.026	26826
821.167	26895
821.307	26883
821.447	26887
821.588	26746
821.728	26564
821.868	26431
822.008	26259
822.149	26077
822.289	26225
822.429	26050
822.569	25932
822.709	25830
822.849	25814
822.99	25712
823.13	25803
823.27	25704
823.41	25548
823.55	25457
823.69	25529
823.83	25548
823.97	25491
824.11	25350
824.25	25415
824.389	25316
824.529	25506
824.669	25411
824.809	25544
824.949	25460
825.089	25464
825.228	25411
825.368	25293
825.508	25217
825.648	25221
825.787	25263
825.927	25324
826.067	25126
826.206	25236
826.346	25316
826.485	25232
826.625	25324
826.765	25331
826.904	25179
827.044	24989
827.183	25008
827.323	24947
827.462	25137
827.601	24909
827.741	24905
827.88	24958
828.02	24875
828.159	24966
828.298	25057
828.437	24916
828.577	24817
828.716	24985
828.855	24810
828.994	24604
829.134	24658
829.273	24665
829.412	24650
829.551	24703
829.69	24669
829.829	24692
829.968	24916
830.107	24661
830.246	24612
830.385	24612
830.524	24559
830.663	24441
830.802	24464
830.941	24167
831.08	24247
831.219	24407
831.357	24254
831.496	24422
831.635	24292
831.774	24133
831.913	24129
832.051	24125
832.19	23984
832.329	24053
832.467	23988
832.606	23855
832.744	23950
832.883	23946
833.022	23897
833.16	23988
833.299	23977
833.437	24045
833.576	24095
833.714	24060
833.852	23988
833.991	23996
834.129	24041
834.267	24003
834.406	23965
834.544	23980
834.682	24003
834.821	23927
834.959	24045
835.097	23802
835.235	24026
835.373	23939
835.511	23984
835.65	23897
835.788	23866
835.926	23809
836.064	23581
836.202	23649
836.34	23771
836.478	23786
836.615	23771
836.753	23878
836.891	23722
837.029	23707
837.167	23802
837.305	23836
837.443	23687
837.58	23699
837.718	23627
837.856	23722
837.993	23592
838.131	23657
838.269	23421
838.406	23611
838.544	23455
838.681	23299
838.819	23296
838.956	23033
839.094	23029
839.231	23235
839.369	23334
839.506	23535
839.643	23315
839.781	23098
839.918	23037
840.055	23181
840.193	23086
840.33	23060
840.467	23018
840.604	23102
840.742	23330
840.879	22965
841.016	22953
841.153	22858
841.29	23117
841.427	22999
841.564	23052
841.701	22892
841.838	23033
841.975	22911
842.112	22908
842.249	22809
842.385	22660
842.522	23094
842.659	22877
842.796	22839
842.933	22812
843.069	22744
843.206	22729
843.343	22881
843.479	22755
843.616	22733
843.752	22577
843.889	22535
844.025	22790
844.162	22512
844.298	22653
844.435	22493
844.571	22497
844.708	22626
844.844	22717
844.98	22691
845.117	22736
845.253	22459
845.389	22474
845.525	22409
845.661	22417
845.798	22379
845.934	22314
846.07	22246
846.206	22299
846.342	22371
846.478	22333
846.614	22177
846.75	21972
846.886	21979
847.022	22169
847.158	22093
847.294	22044
847.429	22207
847.565	21987
847.701	22226
847.837	21797
847.972	21743
848.108	21854
848.244	21857
848.379	21660
848.515	21641
848.65	21545
848.786	21587
848.921	21595
849.057	21774
849.192	21701
849.328	21705
849.463	21622
849.598	21553
849.734	21450
849.869	21519
850.004	21469
850.14	21458
850.275	21389
850.41	21420
850.545	21332
850.68	21370
850.815	21424
850.95	21245
851.085	21568
851.22	21439
851.355	21443
851.49	21367
851.625	21420
851.76	21405
851.895	21291
852.03	21325
852.165	21443
852.299	21351
852.434	21488
852.569	21367
852.703	21401
852.838	21348
852.973	21424
853.107	21416
853.242	21363
853.376	21241
853.511	20956
853.645	21024
853.78	21291
853.914	21233
854.048	21207
854.183	21184
854.317	21279
854.451	21386
854.585	21230
854.72	21260
854.854	21321
854.988	21001
855.122	21104
855.256	21043
855.39	21173
855.524	21256
855.658	21336
855.792	21104
855.926	21192
856.06	21275
856.194	21245
856.327	21211
856.461	21089
856.595	21081
856.729	21176
856.862	21389
856.996	21188
857.13	21302
857.263	21317
857.397	21306
857.53	21150
857.664	21351
857.797	21233
857.931	21313
858.064	21173
858.197	21439
858.331	21275
858.464	21211
858.597	21108
858.731	21188
858.864	21222
858.997	21184
859.13	21214
859.263	21184
859.396	21367
859.529	21233
859.662	21222
859.795	21089
859.928	21173
860.061	21332
860.194	21439
860.327	21283
860.46	21203
860.592	21222
860.725	21401
860.858	21344
860.99	21291
861.123	21104
861.256	21161
861.388	21154
861.521	21911
861.653	21028
861.786	20998
861.918	21039
862.05	21165
862.183	21161
862.315	21169
862.447	21310
862.58	21104
862.712	20895
862.844	20918
862.976	20975
863.108	21005
863.24	21294
863.372	20838
863.504	20910
863.636	21154
863.768	20941
863.9	20811
864.032	20971
864.164	20906
864.296	21009
864.428	21051
864.559	20948
864.691	20979
864.823	20807
864.954	20994
865.086	20929
865.217	20880
865.349	20800
865.48	20864
865.612	20895
865.743	20948
865.875	20773
866.006	20785
866.137	20845
866.269	20830
866.4	20834
866.531	20613
866.662	20701
866.793	20743
866.924	20754
867.055	20849
867.186	20785
867.317	20727
867.448	20670
867.579	20754
867.71	20636
867.841	20731
867.972	20823
868.103	20697
868.233	20731
868.364	20838
868.495	20956
868.625	20868
868.756	21100
868.886	20807
869.017	21032
869.147	21005
869.278	21161
869.408	21001
869.539	21017
869.669	21123
869.799	21127
869.929	21104
870.06	21146
870.19	21241
870.32	21233
870.45	21329
870.58	21481
870.71	21542
870.84	21454
870.97	21321
871.1	21454
871.23	21477
871.36	21561
871.489	21485
871.619	21622
871.749	21629
871.879	21629
872.008	21641
872.138	21633
872.267	21583
872.397	21454
872.526	21435
872.656	21526
872.785	21504
872.915	21523
873.044	21671
873.173	21500
873.303	21728
873.432	21679
873.561	21728
873.69	21675
873.819	21660
873.948	21694
874.077	21660
874.206	21553
874.335	21778
874.464	21720
874.593	21827
874.722	21759
874.851	21892
874.979	22063
875.108	21960
875.237	21728
875.365	21671
875.494	21759
875.623	21812
875.751	21797
875.88	21892
876.008	22036
876.136	22150
876.265	22344
876.393	22306
876.521	22390
876.65	22211
876.778	22303
876.906	22234
877.034	22150
877.162	22219
877.29	22097
877.418	22196
877.546	22291
877.674	22188
877.802	22166
877.93	22352
878.058	22310
878.185	22013
878.313	22268
878.441	22040
878.568	21979
878.696	22124
878.824	22173
878.951	22238
879.079	22325
879.206	22451
879.333	22360
879.461	22268
879.588	22363
879.715	22314
879.842	22478
879.97	22360
880.097	22082
880.224	22002
880.351	22010
880.478	22143
880.605	22021
880.732	22044
880.859	22185
880.986	21979
881.112	22067
881.239	21835
881.366	21679
881.493	21682
881.619	21663
881.746	21583
881.872	21656
881.999	21568
882.125	21637
882.252	21694
882.378	21553
882.505	21625
882.631	21515
882.757	21298
882.883	21462
883.01	21310
883.136	21279
883.262	21237
883.388	21096
883.514	21367
883.64	21260
883.766	21340
883.892	21081
884.018	20979
884.143	21310
884.269	21416
884.395	20979
884.52	20941
884.646	21001
884.772	20895
884.897	20849
885.023	20842
885.148	21028
885.274	21131
885.399	20986
885.524	20883
885.65	20887
885.775	20975
885.9	20941
886.025	21020
886.15	20971
886.275	20925
886.4	20849
886.525	20944
886.65	20849
886.775	20868
886.9	20994
887.025	21089
887.149	21028
887.274	20663
887.399	20727
887.523	20705
887.648	20674
887.773	20587
887.897	20861
888.021	20807
888.146	20560
888.27	20842
888.395	20864
888.519	20876
888.643	20769
888.767	20697
888.891	20587
889.015	20674
889.139	20579
889.263	20442
889.387	20678
889.511	20708
889.635	20720
889.759	20545
889.883	20632
890.006	20583
890.13	20568
890.254	20431
890.377	20473
890.501	20301
890.624	20240
890.748	20244
890.871	20221
890.995	20161
891.118	20096
891.241	20062
891.364	20073
891.488	20153
891.611	20122
891.734	20050
891.857	20168
891.98	20202
892.103	20161
892.226	20096
892.349	20001
892.471	19799
892.594	20012
892.717	20008
892.839	19955
892.962	19970
893.085	20046
893.207	20050
893.33	19879
893.452	19917
893.575	20050
893.697	19951
893.819	20073
893.941	20187
894.064	20096
894.186	20012
894.308	19830
894.43	19970
894.552	20138
894.674	20046
894.796	19875
894.918	19894
895.04	19887
895.161	20157
895.283	19978
895.405	19940
895.526	19970
895.648	19997
895.769	19978
895.891	20005
896.012	20031
896.134	20069
896.255	19970
896.376	19875
896.498	20088
896.619	20164
896.74	19932
896.861	20008
896.982	20476
897.103	20469
897.224	20366
897.345	20153
897.466	20142
897.587	20229
897.708	20210
897.828	20225
897.949	20100
898.07	20172
898.19	20077
898.311	20286
898.431	20145
898.552	20199
898.672	20355
898.792	20332
898.913	20206
899.033	20058
899.153	20149
899.273	19959
899.393	20012
899.513	19925
899.633	20031
899.753	19955
899.873	19947
899.993	20020
900.113	19811
900.232	19932
900.352	19864
900.472	19807
900.591	19769
900.711	19807
900.83	19723
900.95	19822
901.069	19944
901.189	19639
901.308	19495
901.427	19400
901.546	19316
901.665	19285
901.784	19206
901.904	19225
902.023	19080
902.141	19008
902.26	18821
902.379	18913
902.498	18863
902.617	18848
902.735	18814
902.854	18829
902.973	18776
903.091	18532
903.21	18506
903.328	18467
903.446	18456
903.565	18262
903.683	18357
903.801	18262
903.919	18315
904.038	18232
904.156	18133
904.274	18155
904.392	18144
904.51	18083
904.627	18117
904.745	18228
904.863	18125
904.981	17977
905.098	17756
905.216	17687
905.334	17897
905.451	17767
905.569	17828
905.686	17790
905.803	17802
905.921	17604
906.038	17619
906.155	17665
906.272	17566
906.389	17429
906.506	17315
906.623	17284
906.74	17322
906.857	17117
906.974	17227
907.091	17379
907.208	17414
907.324	17349
907.441	17212
907.557	17045
907.674	17018
907.79	16965
907.907	17022
908.023	16995
908.139	16984
908.256	16976
908.372	16839
908.488	16942
908.604	16774
908.72	16664
908.836	16774
908.952	16702
909.068	16733
909.184	16862
909.3	16752
909.415	16835
909.531	16752
909.647	16470
909.762	16459
909.878	16466
909.993	16432
910.108	16424
910.224	16375
910.339	16299
910.454	16230
910.57	16272
910.685	16204
910.8	16371
910.915	16394
911.03	16272
911.145	16025
911.259	16071
911.374	16071
911.489	16017
911.604	15945
911.718	15888
911.833	15869
911.947	15682
912.062	15629
912.176	15812
912.291	15835
912.405	15751
912.519	15987
912.633	15953
912.748	15846
912.862	15797
912.976	15663
913.09	15523
913.204	15549
913.318	15599
913.431	15682
913.545	15709
913.659	15682
913.772	15595
913.886	15492
914	15401
914.113	15439
914.226	15545
914.34	15416
914.453	15268
914.566	15431
914.68	15302
914.793	15188
914.906	15066
915.019	15104
915.132	14994
915.245	14986
915.358	15028
915.47	14986
915.583	14933
915.696	15043
915.809	15077
915.921	15218
916.034	14853
916.146	14925
916.259	14902
916.371	15119
916.483	14952
916.595	14902
916.708	14853
916.82	14727
916.932	14773
917.044	14800
917.156	14906
917.268	14663
917.38	14670
917.491	14636
917.603	14712
917.715	14716
917.826	14792
917.938	14655
918.049	14473
918.161	14560
918.272	14667
918.384	14697
918.495	14579
918.606	14564
918.717	14431
918.828	14362
918.939	14408
919.05	14343
919.161	14415
919.272	14142
919.383	14275
919.494	14396
919.604	14640
919.715	14374
919.826	14400
919.936	14275
920.047	14606
920.157	14442
920.267	14549
920.378	14324
920.488	14374
920.598	14594
920.708	14678
920.818	14571
920.928	14625
921.038	14651
921.148	14617
921.258	14252
921.368	14313
921.477	14123
921.587	14202
921.697	13989
921.806	14210
921.916	13967
922.025	13841
922.134	13845
922.244	13803
922.353	13830
922.462	13658
922.571	13590
922.68	13415
922.789	13472
922.898	13460
923.007	13373
923.116	13460
923.224	13365
923.333	13346
923.442	13228
923.55	13160
923.659	13213
923.767	13369
923.876	13198
923.984	13251
924.092	13221
924.201	13217
924.309	13232
924.417	13118
924.525	13160
924.633	13050
924.741	13814
924.849	12863
924.956	13023
925.064	12928
925.172	12791
925.279	12856
925.387	12878
925.494	12951
925.602	12996
925.709	12966
925.816	12776
925.924	12745
926.031	12951
926.138	12772
926.245	12852
926.352	12665
926.459	12848
926.566	12848
926.673	12707
926.779	12639
926.886	12612
926.993	12460
927.099	12490
927.206	12414
927.312	12350
927.419	12433
927.525	12467
927.631	12536
927.737	12247
927.843	12308
927.95	12197
928.056	12235
928.162	12292
928.267	12304
928.373	12913
928.479	12308
928.585	12049
928.69	12289
928.796	12228
928.901	12155
929.007	12060
929.112	12068
929.218	12106
929.323	12019
929.428	12011
929.533	12095
929.638	11897
929.743	11912
929.848	12022
929.953	11954
930.058	11935
930.163	11665
930.267	11661
930.372	11828
930.477	11745
930.581	11954
930.685	11691
930.79	11623
930.894	11699
930.998	11570
931.103	11691
931.207	11277
931.311	11284
931.415	11212
931.519	10995
931.623	10953
