Data from test_V78500241_440.txt Node
Date: Fri Mar 25 15:44:50 CST 2022
User: usil
Spectrometer: V785-0024
Trigger mode: 0
Integration Time (sec): 4.000000E-1
Scans to average: 1
Nonlinearity correction enabled: false
Boxcar width: 0
Storing dark spectrum: false
XAxis mode: Wavelengths
Number of Pixels in Spectrum: 1024
>>>>>Begin Spectral Data<<<<<
801.071	28858
801.214	28752
801.356	28763
801.499	28516
801.641	28512
801.783	28371
801.926	28527
802.068	28360
802.211	28421
802.353	28265
802.496	28090
802.638	28101
802.78	28109
802.923	28078
803.065	28051
803.208	28101
803.35	28128
803.492	28226
803.635	28120
803.777	28249
803.919	28124
804.061	28542
804.204	28310
804.346	28215
804.488	28124
804.63	28147
804.773	28185
804.915	28238
805.057	28360
805.199	28230
805.341	28291
805.483	28280
805.626	28238
805.768	28287
805.91	28299
806.052	28310
806.194	28219
806.336	28493
806.478	28401
806.62	28379
806.762	28428
806.904	28706
807.046	28873
807.188	28919
807.33	28885
807.472	28930
807.614	28816
807.756	28706
807.898	28634
808.04	28538
808.182	28634
808.324	28664
808.465	28641
808.607	28744
808.749	29132
808.891	29037
809.033	29246
809.174	29204
809.316	29159
809.458	29071
809.6	29029
809.741	29132
809.883	29189
810.025	29436
810.166	29261
810.308	29414
810.45	29204
810.591	29162
810.733	28946
810.875	29064
811.016	28991
811.158	29029
811.299	29079
811.441	29368
811.582	29185
811.724	28911
811.865	29048
812.007	29060
812.148	28927
812.29	28976
812.431	29071
812.573	29463
812.714	29440
812.855	29493
812.997	29672
813.138	29813
813.279	29783
813.421	29509
813.562	29581
813.703	29261
813.845	29250
813.986	28923
814.127	28809
814.268	28797
814.41	28683
814.551	28649
814.692	28717
814.833	28615
814.974	28683
815.115	28668
815.256	28440
815.397	28554
815.539	28687
815.68	28356
815.821	28360
815.962	28508
816.103	28417
816.244	28516
816.385	28333
816.526	28211
816.666	28070
816.807	27914
816.948	28067
817.089	28040
817.23	27831
817.371	27987
817.512	27937
817.653	27960
817.793	27949
817.934	28013
818.075	27861
818.216	27998
818.356	27960
818.497	27899
818.638	27694
818.778	27679
818.919	27743
819.06	27690
819.2	27873
819.341	27850
819.481	27766
819.622	28105
819.762	28253
819.903	28040
820.043	28185
820.184	28051
820.324	27998
820.465	28013
820.605	28051
820.746	28017
820.886	27812
821.026	27876
821.167	27850
821.307	28070
821.447	27968
821.588	27934
821.728	27682
821.868	27485
822.008	27412
822.149	27412
822.289	27252
822.429	27135
822.569	27199
822.709	26944
822.849	26883
822.99	26781
823.13	26823
823.27	26762
823.41	26807
823.55	26602
823.69	26594
823.83	26655
823.97	26648
824.11	26571
824.25	26507
824.389	26526
824.529	26530
824.669	26484
824.809	26556
824.949	26484
825.089	26495
825.228	26499
825.368	26290
825.508	26434
825.648	26453
825.787	26351
825.927	26473
826.067	26214
826.206	26282
826.346	26343
826.485	26503
826.625	26328
826.765	26343
826.904	26290
827.044	26088
827.183	26065
827.323	26005
827.462	26062
827.601	25986
827.741	25909
827.88	26016
828.02	25822
828.159	25986
828.298	25966
828.437	26065
828.577	25944
828.716	25997
828.855	25913
828.994	25651
829.134	25693
829.273	25769
829.412	25727
829.551	25571
829.69	25590
829.829	25772
829.968	25765
830.107	25860
830.246	25613
830.385	25704
830.524	25567
830.663	25620
830.802	25567
830.941	25209
831.08	25266
831.219	25331
831.357	25312
831.496	25525
831.635	25225
831.774	25244
831.913	25107
832.051	25038
832.19	25019
832.329	25171
832.467	25038
832.606	24840
832.744	24920
832.883	24913
833.022	24821
833.16	25008
833.299	24977
833.437	24932
833.576	24966
833.714	24882
833.852	25065
833.991	25122
834.129	25129
834.267	25042
834.406	24977
834.544	25053
834.682	25019
834.821	24989
834.959	25179
835.097	24886
835.235	24909
835.373	25061
835.511	24909
835.65	24768
835.788	24795
835.926	24623
836.064	24532
836.202	24540
836.34	24840
836.478	24772
836.615	24787
836.753	24760
836.891	24932
837.029	24768
837.167	24768
837.305	24681
837.443	24627
837.58	24669
837.718	24700
837.856	24688
837.993	24479
838.131	24593
838.269	24479
838.406	24467
838.544	24414
838.681	24243
838.819	24209
838.956	24091
839.094	24060
839.231	24171
839.369	24224
839.506	24509
839.643	24220
839.781	23996
839.918	24060
840.055	24049
840.193	24038
840.33	23950
840.467	24011
840.604	23923
840.742	24205
840.879	23756
841.016	23908
841.153	23764
841.29	24045
841.427	23889
841.564	23908
841.701	23863
841.838	23893
841.975	23786
842.112	23832
842.249	23722
842.385	23657
842.522	23874
842.659	23729
842.796	23646
842.933	23684
843.069	23604
843.206	23577
843.343	23687
843.479	23710
843.616	23649
843.752	23421
843.889	23467
844.025	23482
844.162	23368
844.298	23551
844.435	23376
844.571	23376
844.708	23471
844.844	23653
844.98	23474
845.117	23547
845.253	23417
845.389	23318
845.525	23311
845.661	23292
845.798	23121
845.934	23235
846.07	23109
846.206	23220
846.342	23421
846.478	23086
846.614	22885
846.75	22904
846.886	22736
847.022	22949
847.158	22881
847.294	22942
847.429	22938
847.565	22767
847.701	23181
847.837	22592
847.972	22634
848.108	22649
848.244	22763
848.379	22428
848.515	22516
848.65	22379
848.786	22382
848.921	22424
849.057	22588
849.192	22535
849.328	22402
849.463	22398
849.598	22402
849.734	22268
849.869	22272
850.004	22173
850.14	22131
850.275	22173
850.41	22040
850.545	22162
850.68	22067
850.815	22150
850.95	22093
851.085	22398
851.22	22360
851.355	22204
851.49	22181
851.625	22169
851.76	22196
851.895	22051
852.03	22048
852.165	22147
852.299	22310
852.434	22223
852.569	22128
852.703	22154
852.838	22200
852.973	22265
853.107	22291
853.242	22029
853.376	22097
853.511	21857
853.645	21953
853.78	22032
853.914	21865
854.048	22017
854.183	21949
854.317	22101
854.451	22173
854.585	21930
854.72	21949
854.854	21991
854.988	21975
855.122	21949
855.256	21873
855.39	22025
855.524	22029
855.658	22013
855.792	21918
855.926	22063
856.06	22025
856.194	22093
856.327	22013
856.461	22002
856.595	21884
856.729	22063
856.862	22032
856.996	22059
857.13	21854
857.263	22105
857.397	22101
857.53	21991
857.664	22013
857.797	22063
857.931	22025
858.064	21953
858.197	21998
858.331	21903
858.464	21827
858.597	21861
858.731	21861
858.864	21911
858.997	21911
859.13	22078
859.263	21953
859.396	22070
859.529	21979
859.662	21854
859.795	21854
859.928	21937
860.061	22135
860.194	22093
860.327	22044
860.46	21937
860.592	21979
860.725	22150
860.858	22173
860.99	21918
861.123	21903
861.256	21945
861.388	22010
861.521	22527
861.653	21785
861.786	21808
861.918	21743
862.05	21827
862.183	21869
862.315	21934
862.447	22032
862.58	21926
862.712	21648
862.844	21717
862.976	21728
863.108	21736
863.24	22093
863.372	21488
863.504	21652
863.636	21561
863.768	21591
863.9	21568
864.032	21545
864.164	21526
864.296	21671
864.428	21747
864.559	21606
864.691	21686
864.823	21717
864.954	21576
865.086	21583
865.217	21614
865.349	21481
865.48	21625
865.612	21500
865.743	21641
865.875	21492
866.006	21454
866.137	21549
866.269	21610
866.4	21428
866.531	21428
866.662	21359
866.793	21424
866.924	21492
867.055	21534
867.186	21370
867.317	21287
867.448	21397
867.579	21401
867.71	21351
867.841	21401
867.972	21515
868.103	21416
868.233	21526
868.364	21515
868.495	21583
868.625	21717
868.756	21823
868.886	21785
869.017	21713
869.147	21785
869.278	21838
869.408	21774
869.539	21690
869.669	21717
869.799	21679
869.929	21743
870.06	21800
870.19	22029
870.32	21876
870.45	22013
870.58	22200
870.71	22139
870.84	22280
870.97	22040
871.1	22131
871.23	22268
871.36	22139
871.489	22147
871.619	22219
871.749	22287
871.879	22211
872.008	22440
872.138	22363
872.267	22200
872.397	22242
872.526	22109
872.656	22090
872.785	22090
872.915	22318
873.044	22424
873.173	22314
873.303	22325
873.432	22447
873.561	22405
873.69	22314
873.819	22265
873.948	22360
874.077	22177
874.206	22310
874.335	22261
874.464	22455
874.593	22649
874.722	22508
874.851	22500
874.979	22508
875.108	22577
875.237	22466
875.365	22405
875.494	22424
875.623	22637
875.751	22466
875.88	22508
876.008	22679
876.136	22729
876.265	22911
876.393	23044
876.521	23010
876.65	23003
876.778	22881
876.906	22831
877.034	22858
877.162	22946
877.29	22797
877.418	22885
877.546	22881
877.674	22885
877.802	22854
877.93	22953
878.058	22843
878.185	22774
878.313	22740
878.441	22896
878.568	22744
878.696	22771
878.824	22839
878.951	22885
879.079	23098
879.206	23166
879.333	22995
879.461	22881
879.588	22953
879.715	22995
879.842	23094
879.97	23018
880.097	22649
880.224	22691
880.351	22828
880.478	22664
880.605	22694
880.732	22679
880.859	22782
880.986	22698
881.112	22729
881.239	22577
881.366	22440
881.493	22291
881.619	22230
881.746	22333
881.872	22303
881.999	22322
882.125	22181
882.252	22276
882.378	22177
882.505	22398
882.631	22150
882.757	21983
882.883	22135
883.01	21850
883.136	21854
883.262	21743
883.388	21850
883.514	21907
883.64	21994
883.766	21888
883.892	21755
884.018	21724
884.143	21930
884.269	21869
884.395	21587
884.52	21580
884.646	21633
884.772	21557
884.897	21382
885.023	21492
885.148	21728
885.274	21720
885.399	21652
885.524	21686
885.65	21462
885.775	21549
885.9	21572
886.025	21587
886.15	21633
886.275	21545
886.4	21359
886.525	21549
886.65	21511
886.775	21469
886.9	21603
887.025	21819
887.149	21583
887.274	21443
887.399	21325
887.523	21264
887.648	21389
887.773	21230
887.897	21496
888.021	21389
888.146	21241
888.27	21500
888.395	21443
888.519	21428
888.643	21302
888.767	21374
888.891	21256
889.015	21195
889.139	21131
889.263	21192
889.387	21100
889.511	21310
889.635	21142
889.759	21123
889.883	20990
890.006	21195
890.13	21116
890.254	20941
890.377	21165
890.501	20921
890.624	20807
890.748	21066
890.871	20754
890.995	20720
891.118	20625
891.241	20629
891.364	20670
891.488	20880
891.611	20648
891.734	20712
891.857	20670
891.98	20701
892.103	20659
892.226	20708
892.349	20587
892.471	20461
892.594	20682
892.717	20686
892.839	20480
892.962	20674
893.085	20640
893.207	20541
893.33	20507
893.452	20446
893.575	20682
893.697	20537
893.819	20674
893.941	20686
894.064	20762
894.186	20549
894.308	20492
894.43	20632
894.552	20708
894.674	20701
894.796	20556
894.918	20503
895.04	20606
895.161	20720
895.283	20632
895.405	20419
895.526	20530
895.648	20564
895.769	20530
895.891	20758
896.012	20648
896.134	20640
896.255	20537
896.376	20484
896.498	20609
896.619	20697
896.74	20522
896.861	20590
896.982	20918
897.103	20979
897.224	20906
897.345	20861
897.466	20674
897.587	20872
897.708	20948
897.828	20819
897.949	20765
898.07	20511
898.19	20823
898.311	20819
898.431	20735
898.552	20823
898.672	20804
898.792	20887
898.913	20819
899.033	20651
899.153	20602
899.273	20537
899.393	20571
899.513	20545
899.633	20541
899.753	20651
899.873	20431
899.993	20632
900.113	20469
900.232	20480
900.352	20438
900.472	20419
900.591	20267
900.711	20259
900.83	20259
900.95	20396
901.069	20480
901.189	20218
901.308	19864
901.427	19928
901.546	19826
901.665	19887
901.784	19970
901.904	19738
902.023	19563
902.141	19460
902.26	19411
902.379	19529
902.498	19472
902.617	19365
902.735	19453
902.854	19293
902.973	19384
903.091	19072
903.21	18962
903.328	18973
903.446	18935
903.565	18825
903.683	18825
903.801	18703
903.919	18791
904.038	18684
904.156	18665
904.274	18661
904.392	18681
904.51	18593
904.627	18582
904.745	18661
904.863	18601
904.981	18372
905.098	18270
905.216	18167
905.334	18292
905.451	18182
905.569	18285
905.686	18292
905.803	18292
905.921	18098
906.038	18144
906.155	18079
906.272	17961
906.389	18026
906.506	17912
906.623	17863
906.74	17756
906.857	17695
906.974	17623
907.091	17817
907.208	17942
907.324	17783
907.441	17680
907.557	17497
907.674	17497
907.79	17455
907.907	17398
908.023	17535
908.139	17490
908.256	17490
908.372	17349
908.488	17223
908.604	17261
908.72	17124
908.836	17140
908.952	17128
909.068	17265
909.184	17269
909.3	17185
909.415	17159
909.531	17128
909.647	16889
909.762	16900
909.878	16889
909.993	16908
910.108	16828
910.224	16892
910.339	16927
910.454	16736
910.57	16721
910.685	16535
910.8	16828
910.915	16877
911.03	16713
911.145	16493
911.259	16466
911.374	16500
911.489	16386
911.604	16322
911.718	16185
911.833	16242
911.947	16166
912.062	16044
912.176	16219
912.291	16230
912.405	16143
912.519	16440
912.633	16371
912.748	16310
912.862	16223
912.976	16044
913.09	15934
913.204	15953
913.318	16025
913.431	16105
913.545	16082
913.659	16090
913.772	16017
913.886	15785
914	15743
914.113	15857
914.226	15854
914.34	15835
914.453	15698
914.566	15846
914.68	15660
914.793	15663
914.906	15534
915.019	15462
915.132	15408
915.245	15428
915.358	15378
915.47	15416
915.583	15412
915.696	15466
915.809	15488
915.921	15466
916.034	15275
916.146	15275
916.259	15241
916.371	15393
916.483	15340
916.595	15306
916.708	15313
916.82	15226
916.932	15241
917.044	15157
917.156	15039
917.268	15024
917.38	15028
917.491	15001
917.603	15070
917.715	15058
917.826	15131
917.938	15070
918.049	14937
918.161	14986
918.272	15036
918.384	15157
918.495	14994
918.606	14777
918.717	14701
918.828	14781
918.939	14823
919.05	14762
919.161	14823
919.272	14560
919.383	14640
919.494	14834
919.604	14971
919.715	14834
919.826	14670
919.936	14769
920.047	14815
920.157	14800
920.267	14933
920.378	14727
920.488	14708
920.598	14918
920.708	15055
920.818	14861
920.928	14880
921.038	15112
921.148	14986
921.258	14705
921.368	14674
921.477	14484
921.587	14438
921.697	14374
921.806	14552
921.916	14294
922.025	14084
922.134	14161
922.244	14107
922.353	14096
922.462	13997
922.571	13936
922.68	13746
922.789	13750
922.898	13807
923.007	13715
923.116	13677
923.224	13780
923.333	13727
923.442	13674
923.55	13674
923.659	13616
923.767	13651
923.876	13567
923.984	13578
924.092	13453
924.201	13491
924.309	13476
924.417	13449
924.525	13350
924.633	13403
924.741	14183
924.849	13266
924.956	13255
925.064	13156
925.172	13095
925.279	13110
925.387	13187
925.494	13190
925.602	13289
925.709	13164
925.816	12970
925.924	12985
926.031	13156
926.138	13065
926.245	13152
926.352	12916
926.459	13179
926.566	13168
926.673	13050
926.779	12894
926.886	12798
926.993	12707
927.099	12722
927.206	12642
927.312	12654
927.419	12627
927.525	12703
927.631	12719
927.737	12570
927.843	12616
927.95	12422
928.056	12532
928.162	12490
928.267	12528
928.373	13179
928.479	12665
928.585	12315
928.69	12490
928.796	12536
928.901	12342
929.007	12254
929.112	12365
929.218	12338
929.323	12395
929.428	12232
929.533	12277
929.638	12186
929.743	12224
929.848	12292
929.953	12167
930.058	12098
930.163	11939
930.267	12011
930.372	12072
930.477	11851
930.581	12057
930.685	11988
930.79	11786
930.894	11889
930.998	11767
931.103	11942
931.207	11547
931.311	11497
931.415	11387
931.519	11250
931.623	11143
