Data from test_V78500241_2632.txt Node
Date: Fri Mar 25 16:00:02 CST 2022
User: usil
Spectrometer: V785-0024
Trigger mode: 0
Integration Time (sec): 4.000000E-1
Scans to average: 1
Nonlinearity correction enabled: false
Boxcar width: 0
Storing dark spectrum: false
XAxis mode: Wavelengths
Number of Pixels in Spectrum: 1024
>>>>>Begin Spectral Data<<<<<
801.071	28843
801.214	28805
801.356	28649
801.499	28531
801.641	28344
801.783	28550
801.926	28455
802.068	28386
802.211	28333
802.353	28371
802.496	28272
802.638	28303
802.78	28086
802.923	28070
803.065	27979
803.208	27991
803.35	28154
803.492	28188
803.635	28322
803.777	28242
803.919	28413
804.061	28679
804.204	28516
804.346	28401
804.488	28268
804.63	28474
804.773	28325
804.915	28493
805.057	28375
805.199	28409
805.341	28489
805.483	28599
805.626	28451
805.768	28565
805.91	28577
806.052	28565
806.194	28497
806.336	28740
806.478	28664
806.62	28512
806.762	28713
806.904	28896
807.046	29090
807.188	29048
807.33	29090
807.472	29204
807.614	29075
807.756	29079
807.898	28767
808.04	28980
808.182	28881
808.324	28782
808.465	28938
808.607	29174
808.749	29174
808.891	29341
809.033	29421
809.174	29296
809.316	29364
809.458	29334
809.6	29223
809.741	29410
809.883	29353
810.025	29642
810.166	29627
810.308	29391
810.45	29334
810.591	29448
810.733	29227
810.875	29265
811.016	29318
811.158	29261
811.299	29299
811.441	29459
811.582	29383
811.724	29227
811.865	29288
812.007	29334
812.148	29303
812.29	29277
812.431	29512
812.573	29551
812.714	29733
812.855	29802
812.997	29798
813.138	30057
813.279	29942
813.421	29836
813.562	29748
813.703	29600
813.845	29497
813.986	29151
814.127	28987
814.268	28908
814.41	29044
814.551	28972
814.692	28991
814.833	28850
814.974	29003
815.115	28949
815.256	28869
815.397	28854
815.539	28923
815.68	28721
815.821	28759
815.962	28816
816.103	28797
816.244	28733
816.385	28580
816.526	28462
816.666	28573
816.807	28238
816.948	28257
817.089	28379
817.23	28234
817.371	28261
817.512	28200
817.653	28280
817.793	28234
817.934	28447
818.075	28348
818.216	28253
818.356	28284
818.497	28261
818.638	28131
818.778	28048
818.919	28082
819.06	28116
819.2	28234
819.341	28188
819.481	28272
819.622	28333
819.762	28759
819.903	28660
820.043	28497
820.184	28596
820.324	28421
820.465	28580
820.605	28394
820.746	28481
820.886	28322
821.026	28394
821.167	28478
821.307	28417
821.447	28417
821.588	28287
821.728	28105
821.868	28055
822.008	27960
822.149	27762
822.289	27797
822.429	27652
822.569	27416
822.709	27492
822.849	27431
822.99	27359
823.13	27279
823.27	27329
823.41	27245
823.55	27081
823.69	27184
823.83	27093
823.97	27108
824.11	26944
824.25	27005
824.389	27001
824.529	27039
824.669	26967
824.809	27039
824.949	27127
825.089	27039
825.228	27028
825.368	26834
825.508	26842
825.648	26868
825.787	26769
825.927	26914
826.067	26876
826.206	26773
826.346	26914
826.485	26914
826.625	26861
826.765	26975
826.904	26960
827.044	26689
827.183	26579
827.323	26507
827.462	26659
827.601	26564
827.741	26590
827.88	26499
828.02	26461
828.159	26511
828.298	26602
828.437	26560
828.577	26465
828.716	26541
828.855	26324
828.994	26164
829.134	26309
829.273	26282
829.412	26065
829.551	26119
829.69	26195
829.829	26400
829.968	26248
830.107	26317
830.246	26218
830.385	26180
830.524	26084
830.663	26001
830.802	26005
830.941	25951
831.08	25772
831.219	25906
831.357	25982
831.496	26077
831.635	25928
831.774	25795
831.913	25822
832.051	25601
832.19	25590
832.329	25677
832.467	25438
832.606	25365
832.744	25510
832.883	25476
833.022	25476
833.16	25445
833.299	25601
833.437	25559
833.576	25681
833.714	25464
833.852	25495
833.991	25750
834.129	25833
834.267	25567
834.406	25674
834.544	25544
834.682	25605
834.821	25689
834.959	25830
835.097	25597
835.235	25647
835.373	25666
835.511	25495
835.65	25453
835.788	25369
835.926	25384
836.064	25381
836.202	25301
836.34	25396
836.478	25487
836.615	25381
836.753	25377
836.891	25407
837.029	25289
837.167	25274
837.305	25339
837.443	25255
837.58	25194
837.718	25270
837.856	25282
837.993	25282
838.131	25206
838.269	25171
838.406	25209
838.544	25042
838.681	24939
838.819	24882
838.956	24677
839.094	24673
839.231	24703
839.369	24897
839.506	25057
839.643	24951
839.781	24639
839.918	24601
840.055	24665
840.193	24692
840.33	24639
840.467	24726
840.604	24616
840.742	24837
840.879	24384
841.016	24555
841.153	24448
841.29	24665
841.427	24604
841.564	24608
841.701	24551
841.838	24509
841.975	24505
842.112	24490
842.249	24346
842.385	24376
842.522	24635
842.659	24456
842.796	24281
842.933	24433
843.069	24380
843.206	24300
843.343	24365
843.479	24350
843.616	24395
843.752	24155
843.889	24076
844.025	24209
844.162	24114
844.298	24167
844.435	24136
844.571	24064
844.708	24159
844.844	24296
844.98	24224
845.117	24216
845.253	24079
845.389	24038
845.525	23961
845.661	23946
845.798	23931
845.934	23923
846.07	23954
846.206	23821
846.342	24011
846.478	23897
846.614	23733
846.75	23630
846.886	23585
847.022	23619
847.158	23531
847.294	23566
847.429	23684
847.565	23528
847.701	23866
847.837	23315
847.972	23349
848.108	23364
848.244	23376
848.379	23159
848.515	23162
848.65	23193
848.786	23117
848.921	23193
849.057	23197
849.192	23280
849.328	23250
849.463	23014
849.598	23132
849.734	23071
849.869	23242
850.004	22949
850.14	22831
850.275	22877
850.41	22797
850.545	22896
850.68	22889
850.815	22934
850.95	22938
851.085	23162
851.22	23048
851.355	22965
851.49	22953
851.625	22999
851.76	22854
851.895	22797
852.03	22744
852.165	22892
852.299	22938
852.434	22991
852.569	22968
852.703	22915
852.838	22915
852.973	23006
853.107	22972
853.242	22835
853.376	22877
853.511	22664
853.645	22668
853.78	22892
853.914	22748
854.048	22847
854.183	22805
854.317	22812
854.451	22824
854.585	22725
854.72	22763
854.854	22847
854.988	22744
855.122	22717
855.256	22675
855.39	22717
855.524	22877
855.658	22774
855.792	22767
855.926	22725
856.06	22771
856.194	22816
856.327	22763
856.461	22710
856.595	22664
856.729	22721
856.862	22957
856.996	22797
857.13	22748
857.263	22805
857.397	22919
857.53	22740
857.664	22782
857.797	22782
857.931	22763
858.064	22820
858.197	22847
858.331	22641
858.464	22740
858.597	22698
858.731	22733
858.864	22771
858.997	22626
859.13	22691
859.263	22820
859.396	22847
859.529	22793
859.662	22618
859.795	22801
859.928	22759
860.061	22828
860.194	22991
860.327	22706
860.46	22873
860.592	22892
860.725	22900
860.858	22805
860.99	22877
861.123	22706
861.256	22664
861.388	22774
861.521	23425
861.653	22542
861.786	22557
861.918	22630
862.05	22622
862.183	22687
862.315	22687
862.447	22820
862.58	22645
862.712	22607
862.844	22402
862.976	22588
863.108	22603
863.24	22889
863.372	22394
863.504	22363
863.636	22500
863.768	22363
863.9	22455
864.032	22413
864.164	22455
864.296	22485
864.428	22470
864.559	22527
864.691	22462
864.823	22535
864.954	22375
865.086	22443
865.217	22402
865.349	22272
865.48	22478
865.612	22371
865.743	22409
865.875	22417
866.006	22280
866.137	22322
866.269	22276
866.4	22318
866.531	22299
866.662	22299
866.793	22272
866.924	22390
867.055	22211
867.186	22200
867.317	22158
867.448	22226
867.579	22211
867.71	22139
867.841	22162
867.972	22200
868.103	22200
868.233	22234
868.364	22177
868.495	22295
868.625	22500
868.756	22561
868.886	22440
869.017	22356
869.147	22527
869.278	22679
869.408	22489
869.539	22485
869.669	22580
869.799	22519
869.929	22577
870.06	22615
870.19	22915
870.32	22831
870.45	22755
870.58	22915
870.71	23056
870.84	23010
870.97	23056
871.1	22801
871.23	23147
871.36	23227
871.489	22991
871.619	23060
871.749	22999
871.879	23189
872.008	23242
872.138	23090
872.267	23162
872.397	22976
872.526	22930
872.656	23003
872.785	22900
872.915	23166
873.044	23227
873.173	23018
873.303	23147
873.432	23231
873.561	23200
873.69	23071
873.819	23109
873.948	23147
874.077	23105
874.206	23079
874.335	23181
874.464	23220
874.593	23425
874.722	23292
874.851	23280
874.979	23417
875.108	23360
875.237	23330
875.365	23326
875.494	23235
875.623	23406
875.751	23208
875.88	23345
876.008	23410
876.136	23467
876.265	23665
876.393	23741
876.521	23745
876.65	23672
876.778	23748
876.906	23653
877.034	23535
877.162	23676
877.29	23585
877.418	23783
877.546	23600
877.674	23779
877.802	23604
877.93	23680
878.058	23684
878.185	23570
878.313	23608
878.441	23547
878.568	23520
878.696	23444
878.824	23611
878.951	23832
879.079	23733
879.206	23912
879.333	23885
879.461	23649
879.588	23695
879.715	23714
879.842	23920
879.97	23752
880.097	23619
880.224	23433
880.351	23543
880.478	23562
880.605	23425
880.732	23406
880.859	23653
880.986	23520
881.112	23531
881.239	23284
881.366	23368
881.493	23136
881.619	23086
881.746	23060
881.872	22965
881.999	23022
882.125	22915
882.252	23014
882.378	22850
882.505	23185
882.631	22831
882.757	22664
882.883	22809
883.01	22687
883.136	22694
883.262	22596
883.388	22557
883.514	22679
883.64	22763
883.766	22668
883.892	22508
884.018	22527
884.143	22615
884.269	22615
884.395	22344
884.52	22337
884.646	22421
884.772	22287
884.897	22249
885.023	22390
885.148	22405
885.274	22535
885.399	22451
885.524	22276
885.65	22295
885.775	22360
885.9	22398
886.025	22390
886.15	22489
886.275	22318
886.4	22150
886.525	22337
886.65	22272
886.775	22211
886.9	22417
887.025	22519
887.149	22322
887.274	22101
887.399	22082
887.523	22051
887.648	21899
887.773	21998
887.897	22219
888.021	22188
888.146	22105
888.27	22158
888.395	22010
888.519	22090
888.643	22207
888.767	22154
888.891	22105
889.015	21907
889.139	21949
889.263	21698
889.387	21987
889.511	22040
889.635	21972
889.759	21861
889.883	21869
890.006	21831
890.13	22002
890.254	21800
890.377	21812
890.501	21660
890.624	21644
890.748	21759
890.871	21542
890.995	21351
891.118	21367
891.241	21389
891.364	21481
891.488	21504
891.611	21435
891.734	21447
891.857	21587
891.98	21370
892.103	21386
892.226	21382
892.349	21488
892.471	21188
892.594	21435
892.717	21367
892.839	21321
892.962	21302
893.085	21393
893.207	21336
893.33	21165
893.452	21173
893.575	21336
893.697	21325
893.819	21504
893.941	21511
894.064	21534
894.186	21321
894.308	21294
894.43	21351
894.552	21481
894.674	21378
894.796	21294
894.918	21291
895.04	21268
895.161	21370
895.283	21264
895.405	21252
895.526	21363
895.648	21313
895.769	21306
895.891	21306
896.012	21310
896.134	21313
896.255	21317
896.376	21211
896.498	21332
896.619	21279
896.74	21119
896.861	21321
896.982	21553
897.103	21648
897.224	21549
897.345	21572
897.466	21435
897.587	21408
897.708	21625
897.828	21454
897.949	21397
898.07	21416
898.19	21435
898.311	21526
898.431	21469
898.552	21332
898.672	21454
898.792	21519
898.913	21519
899.033	21344
899.153	21302
899.273	21275
899.393	21233
899.513	21138
899.633	21142
899.753	21222
899.873	21001
899.993	21294
900.113	21165
900.232	21138
900.352	21032
900.472	21009
900.591	21047
900.711	20929
900.83	20830
900.95	21062
901.069	21020
901.189	20918
901.308	20701
901.427	20594
901.546	20625
901.665	20526
901.784	20419
901.904	20385
902.023	20286
902.141	20081
902.26	20081
902.379	20199
902.498	19970
902.617	19955
902.735	19993
902.854	20001
902.973	19970
903.091	19689
903.21	19765
903.328	19616
903.446	19590
903.565	19548
903.683	19563
903.801	19396
903.919	19468
904.038	19350
904.156	19202
904.274	19388
904.392	19137
904.51	19141
904.627	19274
904.745	19171
904.863	19282
904.981	19069
905.098	18989
905.216	19038
905.334	18962
905.451	18954
905.569	18882
905.686	18943
905.803	18867
905.921	18661
906.038	18814
906.155	18646
906.272	18593
906.389	18506
906.506	18544
906.623	18380
906.74	18509
906.857	18273
906.974	18429
907.091	18426
907.208	18513
907.324	18407
907.441	18350
907.557	18136
907.674	18262
907.79	18049
907.907	18201
908.023	18190
908.139	18174
908.256	18110
908.372	17878
908.488	18057
908.604	17935
908.72	17802
908.836	17813
908.952	17851
909.068	17878
909.184	17904
909.3	17908
909.415	17885
909.531	17847
909.647	17699
909.762	17611
909.878	17463
909.993	17535
910.108	17501
910.224	17562
910.339	17482
910.454	17368
910.57	17364
910.685	17208
910.8	17600
910.915	17452
911.03	17387
911.145	17204
911.259	17018
911.374	17162
911.489	17098
911.604	17010
911.718	16858
911.833	16961
911.947	16816
912.062	16725
912.176	16824
912.291	16896
912.405	16801
912.519	17018
912.633	17128
912.748	16946
912.862	16736
912.976	16668
913.09	16615
913.204	16653
913.318	16649
913.431	16771
913.545	16717
913.659	16763
913.772	16565
913.886	16474
914	16371
914.113	16561
914.226	16580
914.34	16436
914.453	16421
914.566	16489
914.68	16413
914.793	16303
914.906	16112
915.019	15987
915.132	16067
915.245	16021
915.358	16006
915.47	16112
915.583	16059
915.696	16112
915.809	16032
915.921	16230
916.034	16002
916.146	15979
916.259	15846
916.371	16032
916.483	15975
916.595	15994
916.708	15827
916.82	15911
916.932	15739
917.044	15797
917.156	15770
917.268	15667
917.38	15705
917.491	15618
917.603	15500
917.715	15781
917.826	15728
917.938	15618
918.049	15496
918.161	15599
918.272	15743
918.384	15682
918.495	15629
918.606	15393
918.717	15374
918.828	15397
918.939	15431
919.05	15351
919.161	15412
919.272	15268
919.383	15256
919.494	15363
919.604	15534
919.715	15370
919.826	15260
919.936	15408
920.047	15340
920.157	15393
920.267	15431
920.378	15340
920.488	15348
920.598	15519
920.708	15641
920.818	15549
920.928	15450
921.038	15667
921.148	15587
921.258	15275
921.368	15268
921.477	15116
921.587	15047
921.697	14925
921.806	14921
921.916	14921
922.025	14815
922.134	14716
922.244	14674
922.353	14796
922.462	14492
922.571	14511
922.68	14370
922.789	14320
922.898	14362
923.007	14328
923.116	14370
923.224	14301
923.333	14301
923.442	14187
923.55	14157
923.659	14153
923.767	14267
923.876	14065
923.984	14176
924.092	14046
924.201	14012
924.309	13978
924.417	14069
924.525	14020
924.633	14012
924.741	14933
924.849	13818
924.956	13822
925.064	13780
925.172	13689
925.279	13738
925.387	13734
925.494	13628
925.602	13868
925.709	13753
925.816	13609
925.924	13651
926.031	13708
926.138	13578
926.245	13685
926.352	13480
926.459	13636
926.566	13620
926.673	13464
926.779	13415
926.886	13453
926.993	13301
927.099	13308
927.206	13236
927.312	13141
927.419	13255
927.525	13259
927.631	13251
927.737	13107
927.843	13114
927.95	12966
928.056	13084
928.162	13145
928.267	13019
928.373	13605
928.479	13050
928.585	12875
928.69	13031
928.796	13008
928.901	12935
929.007	12787
929.112	12817
929.218	12901
929.323	12764
929.428	12787
929.533	12875
929.638	12635
929.743	12696
929.848	12863
929.953	12673
930.058	12612
930.163	12426
930.267	12490
930.372	12578
930.477	12281
930.581	12578
930.685	12513
930.79	12239
930.894	12251
930.998	12235
931.103	12410
931.207	11992
931.311	11984
931.415	11870
931.519	11668
931.623	11699
