Data from test_V78500241_245.txt Node
Date: Fri Mar 25 15:43:29 CST 2022
User: usil
Spectrometer: V785-0024
Trigger mode: 0
Integration Time (sec): 4.000000E-1
Scans to average: 1
Nonlinearity correction enabled: false
Boxcar width: 0
Storing dark spectrum: false
XAxis mode: Wavelengths
Number of Pixels in Spectrum: 1024
>>>>>Begin Spectral Data<<<<<
801.071	29874
801.214	29813
801.356	29615
801.499	29493
801.641	29482
801.783	29429
801.926	29497
802.068	29383
802.211	29258
802.353	29353
802.496	29105
802.638	29052
802.78	29086
802.923	29102
803.065	28927
803.208	29113
803.35	29025
803.492	29334
803.635	29467
803.777	29178
803.919	29220
804.061	29577
804.204	29185
804.346	29098
804.488	29151
804.63	29261
804.773	29128
804.915	29109
805.057	29345
805.199	29178
805.341	29261
805.483	29383
805.626	29349
805.768	29337
805.91	29444
806.052	29516
806.194	29334
806.336	29531
806.478	29452
806.62	29356
806.762	29383
806.904	29630
807.046	29904
807.188	29775
807.33	29760
807.472	29908
807.614	29729
807.756	29699
807.898	29710
808.04	29589
808.182	29604
808.324	29551
808.465	29444
808.607	29661
808.749	29965
808.891	30125
809.033	30083
809.174	30114
809.316	29927
809.458	30011
809.6	30015
809.741	30083
809.883	30186
810.025	30292
810.166	30357
810.308	30357
810.45	30239
810.591	30159
810.733	30095
810.875	30015
811.016	29805
811.158	29950
811.299	30106
811.441	30224
811.582	30251
811.724	30057
811.865	29946
812.007	29904
812.148	30060
812.29	30095
812.431	30011
812.573	30437
812.714	30376
812.855	30517
812.997	30593
813.138	30715
813.279	30566
813.421	30574
813.562	30426
813.703	30281
813.845	30239
813.986	29878
814.127	29836
814.268	29592
814.41	29786
814.551	29452
814.692	29733
814.833	29516
814.974	29554
815.115	29585
815.256	29402
815.397	29531
815.539	29391
815.68	29478
815.821	29284
815.962	29531
816.103	29425
816.244	29288
816.385	29223
816.526	29060
816.666	28866
816.807	28755
816.948	28892
817.089	28881
817.23	28824
817.371	28828
817.512	28892
817.653	28759
817.793	28755
817.934	28908
818.075	28930
818.216	28797
818.356	28611
818.497	28584
818.638	28554
818.778	28538
818.919	28421
819.06	28588
819.2	28603
819.341	28653
819.481	28577
819.622	28911
819.762	29044
819.903	29060
820.043	28953
820.184	28881
820.324	28831
820.465	28938
820.605	28824
820.746	28831
820.886	28793
821.026	28927
821.167	28915
821.307	28854
821.447	28801
821.588	28649
821.728	28489
821.868	28375
822.008	28234
822.149	28101
822.289	28116
822.429	27838
822.569	27816
822.709	27789
822.849	27572
822.99	27755
823.13	27739
823.27	27481
823.41	27424
823.55	27332
823.69	27378
823.83	27538
823.97	27325
824.11	27401
824.25	27260
824.389	27336
824.529	27237
824.669	27435
824.809	27397
824.949	27427
825.089	27348
825.228	27268
825.368	27135
825.508	27203
825.648	27138
825.787	27070
825.927	27077
826.067	27123
826.206	27207
826.346	27291
826.485	27104
826.625	27142
826.765	27066
826.904	27214
827.044	26899
827.183	26880
827.323	26712
827.462	26845
827.601	26910
827.741	26804
827.88	26731
828.02	26765
828.159	26720
828.298	26659
828.437	26861
828.577	26659
828.716	26952
828.855	26655
828.994	26484
829.134	26434
829.273	26408
829.412	26393
829.551	26526
829.69	26457
829.829	26484
829.968	26632
830.107	26469
830.246	26366
830.385	26336
830.524	26343
830.663	26294
830.802	26084
830.941	26122
831.08	25890
831.219	26149
831.357	26035
831.496	26164
831.635	25959
831.774	25947
831.913	25811
832.051	25894
832.19	25742
832.329	25693
832.467	25693
832.606	25628
832.744	25632
832.883	25685
833.022	25635
833.16	25712
833.299	25666
833.437	25674
833.576	25677
833.714	25632
833.852	25677
833.991	25769
834.129	25780
834.267	25704
834.406	25837
834.544	25639
834.682	25723
834.821	25521
834.959	25811
835.097	25449
835.235	25772
835.373	25578
835.511	25666
835.65	25464
835.788	25590
835.926	25343
836.064	25316
836.202	25350
836.34	25411
836.478	25552
836.615	25384
836.753	25609
836.891	25537
837.029	25495
837.167	25422
837.305	25358
837.443	25308
837.58	25285
837.718	25335
837.856	25335
837.993	25362
838.131	25297
838.269	25240
838.406	25152
838.544	25031
838.681	24875
838.819	24935
838.956	24779
839.094	24696
839.231	24749
839.369	24981
839.506	25114
839.643	24947
839.781	24722
839.918	24608
840.055	24635
840.193	24551
840.33	24547
840.467	24738
840.604	24650
840.742	24897
840.879	24441
841.016	24574
841.153	24399
841.29	24570
841.427	24623
841.564	24597
841.701	24661
841.838	24460
841.975	24456
842.112	24540
842.249	24380
842.385	24262
842.522	24559
842.659	24433
842.796	24334
842.933	24144
843.069	24110
843.206	24232
843.343	24254
843.479	24304
843.616	24251
843.752	24095
843.889	24102
844.025	24194
844.162	23965
844.298	24201
844.435	24011
844.571	23999
844.708	24053
844.844	24064
844.98	24079
845.117	24155
845.253	23908
845.389	23977
845.525	23984
845.661	23935
845.798	23767
845.934	23786
846.07	23570
846.206	23790
846.342	23942
846.478	23748
846.614	23490
846.75	23459
846.886	23402
847.022	23516
847.158	23497
847.294	23509
847.429	23368
847.565	23440
847.701	23429
847.837	23124
847.972	23033
848.108	23204
848.244	23147
848.379	23060
848.515	23094
848.65	22934
848.786	23010
848.921	23033
849.057	23140
849.192	22991
849.328	23014
849.463	22915
849.598	22957
849.734	22881
849.869	22786
850.004	22774
850.14	22782
850.275	22953
850.41	22687
850.545	22630
850.68	22668
850.815	22672
850.95	22767
851.085	22862
851.22	22858
851.355	22774
851.49	22611
851.625	22740
851.76	22656
851.895	22664
852.03	22653
852.165	22740
852.299	22752
852.434	22828
852.569	22706
852.703	22759
852.838	22820
852.973	22786
853.107	22725
853.242	22717
853.376	22664
853.511	22344
853.645	22516
853.78	22603
853.914	22565
854.048	22588
854.183	22489
854.317	22424
854.451	22748
854.585	22455
854.72	22500
854.854	22675
854.988	22398
855.122	22466
855.256	22394
855.39	22577
855.524	22599
855.658	22596
855.792	22500
855.926	22668
856.06	22546
856.194	22664
856.327	22424
856.461	22470
856.595	22436
856.729	22466
856.862	22653
856.996	22679
857.13	22538
857.263	22580
857.397	22592
857.53	22432
857.664	22443
857.797	22535
857.931	22656
858.064	22459
858.197	22554
858.331	22466
858.464	22382
858.597	22318
858.731	22268
858.864	22409
858.997	22325
859.13	22584
859.263	22474
859.396	22550
859.529	22386
859.662	22459
859.795	22508
859.928	22443
860.061	22668
860.194	22675
860.327	22451
860.46	22413
860.592	22531
860.725	22561
860.858	22440
860.99	22535
861.123	22367
861.256	22432
861.388	22402
861.521	23044
861.653	22405
861.786	22112
861.918	22360
862.05	22329
862.183	22382
862.315	22432
862.447	22497
862.58	22447
862.712	22086
862.844	22143
862.976	22204
863.108	22158
863.24	22565
863.372	22036
863.504	22093
863.636	22017
863.768	22143
863.9	22128
864.032	21945
864.164	22150
864.296	22150
864.428	22268
864.559	22219
864.691	22135
864.823	22082
864.954	22025
865.086	22135
865.217	22154
865.349	21922
865.48	22036
865.612	22120
865.743	22055
865.875	22109
866.006	22029
866.137	22040
866.269	21998
866.4	22006
866.531	22002
866.662	21975
866.793	21911
866.924	21930
867.055	21930
867.186	21975
867.317	21934
867.448	21755
867.579	21968
867.71	21781
867.841	21812
867.972	21945
868.103	21903
868.233	21956
868.364	21930
868.495	22044
868.625	22120
868.756	22284
868.886	22063
869.017	22158
869.147	22268
869.278	22226
869.408	22230
869.539	22249
869.669	22223
869.799	22306
869.929	22272
870.06	22333
870.19	22478
870.32	22402
870.45	22561
870.58	22607
870.71	22698
870.84	22702
870.97	22451
871.1	22542
871.23	22744
871.36	22767
871.489	22588
871.619	22641
871.749	22721
871.879	22774
872.008	22797
872.138	22797
872.267	22611
872.397	22698
872.526	22516
872.656	22626
872.785	22554
872.915	22812
873.044	22885
873.173	22702
873.303	22843
873.432	22843
873.561	22885
873.69	22915
873.819	22759
873.948	22850
874.077	22755
874.206	22717
874.335	22710
874.464	22968
874.593	23029
874.722	22862
874.851	23025
874.979	23159
875.108	23102
875.237	22957
875.365	22793
875.494	22968
875.623	23083
875.751	22999
875.88	23014
876.008	23098
876.136	23025
876.265	23364
876.393	23516
876.521	23448
876.65	23433
876.778	23421
876.906	23303
877.034	23288
877.162	23296
877.29	23383
877.418	23414
877.546	23421
877.674	23398
877.802	23288
877.93	23356
878.058	23360
878.185	23185
878.313	23303
878.441	23280
878.568	23159
878.696	23288
878.824	23261
878.951	23539
879.079	23531
879.206	23661
879.333	23516
879.461	23467
879.588	23345
879.715	23554
879.842	23630
879.97	23509
880.097	23197
880.224	23014
880.351	23258
880.478	23075
880.605	23037
880.732	23090
880.859	23436
880.986	23174
881.112	23216
881.239	22953
881.366	22854
881.493	22850
881.619	22755
881.746	22736
881.872	22824
881.999	22561
882.125	22729
882.252	22774
882.378	22637
882.505	22805
882.631	22675
882.757	22580
882.883	22531
883.01	22436
883.136	22363
883.262	22344
883.388	22223
883.514	22318
883.64	22337
883.766	22215
883.892	22253
884.018	22215
884.143	22291
884.269	22367
884.395	22082
884.52	22036
884.646	22173
884.772	21983
884.897	21918
885.023	22150
885.148	22192
885.274	22120
885.399	22029
885.524	22048
885.65	22109
885.775	22010
885.9	22013
886.025	22101
886.15	22112
886.275	21930
886.4	21918
886.525	21926
886.65	21968
886.775	21880
886.9	22029
887.025	22177
887.149	21956
887.274	21838
887.399	21899
887.523	21759
887.648	21819
887.773	21762
887.897	21899
888.021	21819
888.146	21717
888.27	21865
888.395	21937
888.519	21781
888.643	21755
888.767	21797
888.891	21610
889.015	21595
889.139	21633
889.263	21641
889.387	21705
889.511	21785
889.635	21549
889.759	21507
889.883	21595
890.006	21542
890.13	21667
890.254	21466
890.377	21458
890.501	21321
890.624	21386
890.748	21321
890.871	21264
890.995	21123
891.118	21032
891.241	21123
891.364	20979
891.488	21180
891.611	21066
891.734	21138
891.857	21188
891.98	21089
892.103	21081
892.226	21154
892.349	21047
892.471	20834
892.594	20982
892.717	21047
892.839	20975
892.962	20914
893.085	21051
893.207	20963
893.33	20899
893.452	20944
893.575	21127
893.697	20979
893.819	21100
893.941	21146
894.064	21154
894.186	20899
894.308	20785
894.43	21058
894.552	21131
894.674	21043
894.796	20918
894.918	20883
895.04	20853
895.161	20979
895.283	20990
895.405	20895
895.526	20956
895.648	21074
895.769	21127
895.891	21135
896.012	21020
896.134	21165
896.255	20975
896.376	20990
896.498	21013
896.619	21017
896.74	21070
896.861	21154
896.982	21431
897.103	21481
897.224	21291
897.345	21310
897.466	21264
897.587	21306
897.708	21203
897.828	21294
897.949	21218
898.07	21058
898.19	21123
898.311	21211
898.431	21161
898.552	21230
898.672	21127
898.792	21138
898.913	21157
899.033	21005
899.153	20891
899.273	20845
899.393	20876
899.513	20937
899.633	20925
899.753	20807
899.873	20731
899.993	20826
900.113	20781
900.232	20765
900.352	20781
900.472	20746
900.591	20602
900.711	20648
900.83	20598
900.95	20724
901.069	20674
901.189	20571
901.308	20294
901.427	20271
901.546	20229
901.665	20278
901.784	20301
901.904	20069
902.023	19890
902.141	19757
902.26	19757
902.379	19776
902.498	19746
902.617	19674
902.735	19685
902.854	19506
902.973	19548
903.091	19430
903.21	19331
903.328	19350
903.446	19213
903.565	19225
903.683	19206
903.801	19008
903.919	19133
904.038	19008
904.156	18966
904.274	18951
904.392	18806
904.51	18966
904.627	18844
904.745	18996
904.863	18951
904.981	18738
905.098	18483
905.216	18563
905.334	18471
905.451	18574
905.569	18525
905.686	18540
905.803	18494
905.921	18304
906.038	18437
906.155	18460
906.272	18239
906.389	18277
906.506	18190
906.623	18163
906.74	18152
906.857	18053
906.974	18011
907.091	18159
907.208	18174
907.324	18045
907.441	17950
907.557	17802
907.674	17779
907.79	17855
907.907	17756
908.023	17832
908.139	17805
908.256	17726
908.372	17585
908.488	17577
908.604	17520
908.72	17406
908.836	17512
908.952	17414
909.068	17516
909.184	17516
909.3	17440
909.415	17558
909.531	17463
909.647	17212
909.762	17147
909.878	17113
909.993	17094
910.108	17204
910.224	17155
910.339	17048
910.454	16965
910.57	16946
910.685	16919
910.8	17140
910.915	17102
911.03	16873
911.145	16763
911.259	16717
911.374	16672
911.489	16512
911.604	16603
911.718	16504
911.833	16459
911.947	16390
912.062	16276
912.176	16622
912.291	16402
912.405	16497
912.519	16649
912.633	16592
912.748	16485
912.862	16440
912.976	16238
913.09	16166
913.204	16200
913.318	16246
913.431	16356
913.545	16261
913.659	16322
913.772	16124
913.886	15994
914	16120
914.113	16109
914.226	16158
914.34	16143
914.453	15983
914.566	16120
914.68	15983
914.793	15800
914.906	15705
915.019	15679
915.132	15576
915.245	15629
915.358	15694
915.47	15667
915.583	15667
915.696	15686
915.809	15816
915.921	15675
916.034	15599
916.146	15580
916.259	15420
916.371	15641
916.483	15523
916.595	15431
916.708	15408
916.82	15405
916.932	15424
917.044	15348
917.156	15329
917.268	15245
917.38	15291
917.491	15252
917.603	15435
917.715	15408
917.826	15302
917.938	15214
918.049	15108
918.161	15161
918.272	15275
918.384	15294
918.495	15188
918.606	15146
918.717	14906
918.828	15032
918.939	15024
919.05	14956
919.161	14963
919.272	14819
919.383	14861
919.494	14963
919.604	15077
919.715	14906
919.826	14876
919.936	14975
920.047	14929
920.157	14929
920.267	15157
920.378	14994
920.488	14941
920.598	15089
920.708	15260
920.818	15047
920.928	15108
921.038	15256
921.148	15074
921.258	14982
921.368	14754
921.477	14796
921.587	14598
921.697	14530
921.806	14769
921.916	14480
922.025	14343
922.134	14256
922.244	14210
922.353	14294
922.462	14164
922.571	14054
922.68	13997
922.789	13860
922.898	14005
923.007	13890
923.116	13970
923.224	13982
923.333	13849
923.442	13799
923.55	13727
923.659	13658
923.767	13807
923.876	13674
923.984	13757
924.092	13578
924.201	13643
924.309	13601
924.417	13647
924.525	13548
924.633	13620
924.741	14271
924.849	13369
924.956	13419
925.064	13426
925.172	13240
925.279	13350
925.387	13297
925.494	13304
925.602	13400
925.709	13415
925.816	13324
925.924	13301
926.031	13320
926.138	13244
926.245	13263
926.352	13126
926.459	13320
926.566	13285
926.673	13171
926.779	13061
926.886	13034
926.993	12897
927.099	12905
927.206	12852
927.312	12806
927.419	12920
927.525	12856
927.631	12894
927.737	12825
927.843	12696
927.95	12563
928.056	12620
928.162	12707
928.267	12738
928.373	13331
928.479	12745
928.585	12574
928.69	12559
928.796	12620
928.901	12585
929.007	12391
929.112	12460
929.218	12448
929.323	12437
929.428	12357
929.533	12528
929.638	12262
929.743	12308
929.848	12445
929.953	12308
930.058	12190
930.163	12026
930.267	12114
930.372	12163
930.477	12022
930.581	12220
930.685	12114
930.79	11897
930.894	11935
930.998	11935
931.103	12049
931.207	11668
931.311	11505
931.415	11448
931.519	11307
931.623	11349
