Data from test_V78500241_1358.txt Node
Date: Fri Mar 25 15:51:12 CST 2022
User: usil
Spectrometer: V785-0024
Trigger mode: 0
Integration Time (sec): 4.000000E-1
Scans to average: 1
Nonlinearity correction enabled: false
Boxcar width: 0
Storing dark spectrum: false
XAxis mode: Wavelengths
Number of Pixels in Spectrum: 1024
>>>>>Begin Spectral Data<<<<<
801.071	28143
801.214	28238
801.356	27934
801.499	28025
801.641	27762
801.783	27846
801.926	27934
802.068	27774
802.211	27603
802.353	27591
802.496	27412
802.638	27507
802.78	27462
802.923	27351
803.065	27291
803.208	27447
803.35	27545
803.492	27599
803.635	27572
803.777	27469
803.919	27606
804.061	27991
804.204	27736
804.346	27553
804.488	27504
804.63	27770
804.773	27538
804.915	27633
805.057	27576
805.199	27591
805.341	27686
805.483	27873
805.626	27838
805.768	27823
805.91	27964
806.052	27793
806.194	27660
806.336	27998
806.478	27850
806.62	27857
806.762	27918
806.904	28036
807.046	28363
807.188	28287
807.33	28253
807.472	28177
807.614	28131
807.756	28318
807.898	28090
808.04	28150
808.182	28109
808.324	28116
808.465	28135
808.607	28363
808.749	28432
808.891	28512
809.033	28607
809.174	28504
809.316	28493
809.458	28443
809.6	28428
809.741	28436
809.883	28645
810.025	28668
810.166	28702
810.308	28733
810.45	28790
810.591	28748
810.733	28554
810.875	28443
811.016	28459
811.158	28470
811.299	28580
811.441	28744
811.582	28668
811.724	28382
811.865	28379
812.007	28432
812.148	28394
812.29	28500
812.431	28508
812.573	28755
812.714	28847
812.855	28888
812.997	29025
813.138	29185
813.279	29212
813.421	28942
813.562	28862
813.703	28843
813.845	28561
813.986	28314
814.127	28363
814.268	28169
814.41	28371
814.551	28173
814.692	28158
814.833	28169
814.974	28055
815.115	28116
815.256	28044
815.397	28181
815.539	28070
815.68	27953
815.821	27941
815.962	28139
816.103	27888
816.244	27854
816.385	27831
816.526	27846
816.666	27572
816.807	27443
816.948	27671
817.089	27530
817.23	27519
817.371	27477
817.512	27469
817.653	27454
817.793	27462
817.934	27542
818.075	27576
818.216	27515
818.356	27374
818.497	27420
818.638	27218
818.778	27230
818.919	27287
819.06	27268
819.2	27496
819.341	27496
819.481	27427
819.622	27637
819.762	27892
819.903	27694
820.043	27652
820.184	27625
820.324	27580
820.465	27587
820.605	27629
820.746	27523
820.886	27462
821.026	27671
821.167	27496
821.307	27610
821.447	27564
821.588	27530
821.728	27351
821.868	27108
822.008	26960
822.149	26975
822.289	26971
822.429	26590
822.569	26609
822.709	26640
822.849	26480
822.99	26609
823.13	26381
823.27	26465
823.41	26248
823.55	26210
823.69	26385
823.83	26290
823.97	26244
824.11	26065
824.25	26164
824.389	26005
824.529	26145
824.669	26054
824.809	26122
824.949	26317
825.089	26145
825.228	26122
825.368	25993
825.508	26103
825.648	26020
825.787	26073
825.927	26050
826.067	26020
826.206	26005
826.346	26092
826.485	26058
826.625	25966
826.765	26111
826.904	26115
827.044	25852
827.183	25780
827.323	25753
827.462	25750
827.601	25830
827.741	25635
827.88	25757
828.02	25548
828.159	25616
828.298	25666
828.437	25746
828.577	25639
828.716	25826
828.855	25639
828.994	25293
829.134	25392
829.273	25518
829.412	25426
829.551	25362
829.69	25377
829.829	25487
829.968	25521
830.107	25502
830.246	25506
830.385	25430
830.524	25270
830.663	25187
830.802	25042
830.941	25019
831.08	25042
831.219	25137
831.357	25080
831.496	25107
831.635	25069
831.774	24837
831.913	24760
832.051	24852
832.19	24692
832.329	24798
832.467	24707
832.606	24627
832.744	24574
832.883	24677
833.022	24760
833.16	24665
833.299	24665
833.437	24646
833.576	24741
833.714	24730
833.852	24745
833.991	24757
834.129	24802
834.267	24768
834.406	24620
834.544	24707
834.682	24734
834.821	24768
834.959	24928
835.097	24642
835.235	24776
835.373	24730
835.511	24817
835.65	24559
835.788	24528
835.926	24467
836.064	24330
836.202	24391
836.34	24570
836.478	24677
836.615	24414
836.753	24532
836.891	24536
837.029	24505
837.167	24502
837.305	24308
837.443	24429
837.58	24285
837.718	24388
837.856	24216
837.993	24277
838.131	24292
838.269	24262
838.406	24270
838.544	24220
838.681	24133
838.819	23893
838.956	23821
839.094	23843
839.231	23893
839.369	24053
839.506	24273
839.643	24095
839.781	23996
839.918	23779
840.055	23771
840.193	23817
840.33	23653
840.467	23828
840.604	23908
840.742	24114
840.879	23703
841.016	23775
841.153	23707
841.29	23729
841.427	23840
841.564	23855
841.701	23775
841.838	23649
841.975	23790
842.112	23687
842.249	23520
842.385	23516
842.522	23828
842.659	23592
842.796	23570
842.933	23589
843.069	23402
843.206	23433
843.343	23699
843.479	23471
843.616	23615
843.752	23200
843.889	23376
844.025	23486
844.162	23265
844.298	23436
844.435	23360
844.571	23239
844.708	23296
844.844	23566
844.98	23429
845.117	23398
845.253	23204
845.389	23022
845.525	23223
845.661	23159
845.798	22904
845.934	23121
846.07	22934
846.206	23075
846.342	23083
846.478	23006
846.614	22736
846.75	22717
846.886	22771
847.022	22854
847.158	22835
847.294	22778
847.429	22850
847.565	22771
847.701	22953
847.837	22466
847.972	22413
848.108	22573
848.244	22497
848.379	22489
848.515	22310
848.65	22409
848.786	22402
848.921	22280
849.057	22508
849.192	22367
849.328	22367
849.463	22382
849.598	22246
849.734	22261
849.869	22158
850.004	22185
850.14	22124
850.275	22143
850.41	21945
850.545	22048
850.68	22048
850.815	22101
850.95	22147
851.085	22280
851.22	22181
851.355	22112
851.49	22078
851.625	22158
851.76	22070
851.895	22105
852.03	21998
852.165	22139
852.299	22032
852.434	22158
852.569	22299
852.703	22067
852.838	22120
852.973	22135
853.107	22211
853.242	22097
853.376	22021
853.511	21888
853.645	21823
853.78	22044
853.914	21937
854.048	21937
854.183	21899
854.317	21945
854.451	22211
854.585	21793
854.72	21953
854.854	21960
854.988	21842
855.122	21888
855.256	21743
855.39	21922
855.524	21975
855.658	22013
855.792	21918
855.926	21907
856.06	21903
856.194	22097
856.327	21880
856.461	21899
856.595	21880
856.729	22006
856.862	22040
856.996	21991
857.13	21979
857.263	22006
857.397	21941
857.53	22025
857.664	21994
857.797	21903
857.931	22051
858.064	22055
858.197	22029
858.331	22013
858.464	21804
858.597	21835
858.731	21899
858.864	21945
858.997	21861
859.13	21907
859.263	21880
859.396	21979
859.529	21842
859.662	22040
859.795	21838
859.928	21922
860.061	22048
860.194	22139
860.327	21953
860.46	21876
860.592	22074
860.725	22120
860.858	22048
860.99	21941
861.123	21884
861.256	21895
861.388	21842
861.521	22630
861.653	21778
861.786	21823
861.918	21793
862.05	21831
862.183	21880
862.315	21892
862.447	21922
862.58	21926
862.712	21644
862.844	21447
862.976	21755
863.108	21679
863.24	22169
863.372	21564
863.504	21660
863.636	21686
863.768	21709
863.9	21671
864.032	21485
864.164	21568
864.296	21633
864.428	21720
864.559	21698
864.691	21739
864.823	21698
864.954	21610
865.086	21534
865.217	21443
865.349	21500
865.48	21603
865.612	21583
865.743	21679
865.875	21591
866.006	21557
866.137	21500
866.269	21641
866.4	21458
866.531	21523
866.662	21397
866.793	21504
866.924	21397
867.055	21473
867.186	21523
867.317	21519
867.448	21359
867.579	21348
867.71	21412
867.841	21336
867.972	21515
868.103	21450
868.233	21534
868.364	21469
868.495	21496
868.625	21622
868.756	21835
868.886	21751
869.017	21637
869.147	21816
869.278	21835
869.408	21743
869.539	21648
869.669	21846
869.799	21686
869.929	21819
870.06	21778
870.19	21892
870.32	21926
870.45	22101
870.58	22124
870.71	22196
870.84	22238
870.97	22010
871.1	21953
871.23	22390
871.36	22318
871.489	22226
871.619	22200
871.749	22276
871.879	22268
872.008	22402
872.138	22322
872.267	22295
872.397	22097
872.526	22082
872.656	22223
872.785	22093
872.915	22322
873.044	22432
873.173	22295
873.303	22363
873.432	22261
873.561	22466
873.69	22341
873.819	22314
873.948	22367
874.077	22325
874.206	22166
874.335	22166
874.464	22329
874.593	22557
874.722	22451
874.851	22527
874.979	22538
875.108	22569
875.237	22466
875.365	22459
875.494	22409
875.623	22675
875.751	22405
875.88	22611
876.008	22565
876.136	22660
876.265	22942
876.393	22972
876.521	23010
876.65	23094
876.778	22946
876.906	22763
877.034	22820
877.162	22778
877.29	22862
877.418	22835
877.546	22892
877.674	22847
877.802	22873
877.93	22934
878.058	22881
878.185	22717
878.313	22877
878.441	22748
878.568	22569
878.696	22862
878.824	22889
878.951	22965
879.079	23003
879.206	23094
879.333	22934
879.461	22923
879.588	22908
879.715	22919
879.842	23048
879.97	22869
880.097	22683
880.224	22599
880.351	22698
880.478	22694
880.605	22740
880.732	22668
880.859	22984
880.986	22683
881.112	22733
881.239	22432
881.366	22447
881.493	22402
881.619	22158
881.746	22306
881.872	22257
881.999	22230
882.125	22128
882.252	22299
882.378	22265
882.505	22173
882.631	22116
882.757	21987
882.883	22135
883.01	22006
883.136	21903
883.262	21778
883.388	21793
883.514	21854
883.64	21922
883.766	21918
883.892	21705
884.018	21762
884.143	21907
884.269	21983
884.395	21610
884.52	21534
884.646	21523
884.772	21477
884.897	21458
885.023	21568
885.148	21583
885.274	21736
885.399	21633
885.524	21564
885.65	21580
885.775	21587
885.9	21488
886.025	21557
886.15	21625
886.275	21561
886.4	21393
886.525	21500
886.65	21534
886.775	21488
886.9	21755
887.025	21770
887.149	21519
887.274	21340
887.399	21355
887.523	21329
887.648	21424
887.773	21184
887.897	21507
888.021	21424
888.146	21279
888.27	21428
888.395	21428
888.519	21329
888.643	21397
888.767	21310
888.891	21169
889.015	21055
889.139	21161
889.263	20967
889.387	21096
889.511	21317
889.635	21287
889.759	21062
889.883	21096
890.006	21127
890.13	21207
890.254	21119
890.377	21024
890.501	20830
890.624	20914
890.748	20902
890.871	20807
890.995	20800
891.118	20670
891.241	20701
891.364	20739
891.488	20830
891.611	20625
891.734	20754
891.857	20648
891.98	20727
892.103	20743
892.226	20663
892.349	20716
892.471	20541
892.594	20613
892.717	20598
892.839	20503
892.962	20613
893.085	20541
893.207	20488
893.33	20454
893.452	20465
893.575	20659
893.697	20530
893.819	20716
893.941	20705
894.064	20819
894.186	20450
894.308	20564
894.43	20781
894.552	20750
894.674	20727
894.796	20465
894.918	20511
895.04	20655
895.161	20777
895.283	20609
895.405	20465
895.526	20564
895.648	20594
895.769	20636
895.891	20663
896.012	20625
896.134	20682
896.255	20659
896.376	20476
896.498	20526
896.619	20606
896.74	20575
896.861	20712
896.982	20921
897.103	21093
897.224	20857
897.345	20838
897.466	20727
897.587	20727
897.708	20861
897.828	20823
897.949	20705
898.07	20617
898.19	20811
898.311	20838
898.431	20750
898.552	20842
898.672	20876
898.792	20918
898.913	20735
899.033	20632
899.153	20609
899.273	20438
899.393	20590
899.513	20621
899.633	20564
899.753	20533
899.873	20476
899.993	20556
900.113	20537
900.232	20503
900.352	20404
900.472	20396
900.591	20362
900.711	20393
900.83	20244
900.95	20389
901.069	20355
901.189	20164
901.308	20077
901.427	19944
901.546	19898
901.665	19982
901.784	19814
901.904	19761
902.023	19723
902.141	19384
902.26	19422
902.379	19582
902.498	19460
902.617	19350
902.735	19377
902.854	19335
902.973	19297
903.091	19061
903.21	19133
903.328	19080
903.446	18886
903.565	18973
903.683	18791
903.801	18840
903.919	18859
904.038	18795
904.156	18612
904.274	18741
904.392	18597
904.51	18498
904.627	18585
904.745	18570
904.863	18642
904.981	18384
905.098	18353
905.216	18410
905.334	18273
905.451	18304
905.569	18281
905.686	18254
905.803	18224
905.921	18087
906.038	18205
906.155	18087
906.272	17954
906.389	18003
906.506	17916
906.623	17805
906.74	17855
906.857	17687
906.974	17733
907.091	17786
907.208	17874
907.324	17779
907.441	17745
907.557	17535
907.674	17455
907.79	17493
907.907	17497
908.023	17577
908.139	17619
908.256	17570
908.372	17341
908.488	17455
908.604	17231
908.72	17277
908.836	17334
908.952	17292
909.068	17288
909.184	17360
909.3	17189
909.415	17254
909.531	17208
909.647	17090
909.762	16957
909.878	16961
909.993	16915
910.108	16968
910.224	16991
910.339	16904
910.454	16752
910.57	16786
910.685	16679
910.8	16930
910.915	16889
911.03	16790
911.145	16622
911.259	16512
911.374	16577
911.489	16481
911.604	16375
911.718	16314
911.833	16268
911.947	16230
912.062	16131
912.176	16291
912.291	16318
912.405	16352
912.519	16386
912.633	16451
912.748	16360
912.862	16154
912.976	16105
913.09	15930
913.204	16082
913.318	16124
913.431	16128
913.545	16158
913.659	16143
913.772	16006
913.886	15941
914	15778
914.113	15991
914.226	16017
914.34	16105
914.453	15686
914.566	15888
914.68	15861
914.793	15747
914.906	15469
915.019	15485
915.132	15428
915.245	15447
915.358	15504
915.47	15443
915.583	15428
915.696	15447
915.809	15580
915.921	15591
916.034	15416
916.146	15435
916.259	15386
916.371	15386
916.483	15454
916.595	15310
916.708	15348
916.82	15332
916.932	15272
917.044	15264
917.156	15214
917.268	15123
917.38	15157
917.491	15074
917.603	15100
917.715	15203
917.826	15283
917.938	15138
918.049	14914
918.161	14998
918.272	15203
918.384	15237
918.495	15009
918.606	14819
918.717	14834
918.828	14868
918.939	14963
919.05	14701
919.161	14834
919.272	14632
919.383	14823
919.494	14891
919.604	15154
919.715	14929
919.826	14682
919.936	14876
920.047	14921
920.157	14845
920.267	15039
920.378	14838
920.488	14743
920.598	14971
920.708	15165
920.818	14948
920.928	14933
921.038	15192
921.148	14979
921.258	14769
921.368	14583
921.477	14575
921.587	14545
921.697	14438
921.806	14454
921.916	14366
922.025	14358
922.134	14138
922.244	14164
922.353	14206
922.462	14031
922.571	14065
922.68	13799
922.789	13822
922.898	13803
923.007	13715
923.116	13849
923.224	13856
923.333	13738
923.442	13677
923.55	13605
923.659	13746
923.767	13719
923.876	13655
923.984	13685
924.092	13514
924.201	13636
924.309	13639
924.417	13578
924.525	13502
924.633	13552
924.741	14533
924.849	13324
924.956	13487
925.064	13301
925.172	13194
925.279	13228
925.387	13304
925.494	13255
925.602	13346
925.709	13244
925.816	13095
925.924	13232
926.031	13259
926.138	13118
926.245	13232
926.352	13133
926.459	13236
926.566	13335
926.673	13145
926.779	12989
926.886	12981
926.993	12825
927.099	12764
927.206	12745
927.312	12711
927.419	12802
927.525	12844
927.631	12753
927.737	12627
927.843	12620
927.95	12475
928.056	12604
928.162	12662
928.267	12604
928.373	13293
928.479	12631
928.585	12551
928.69	12513
928.796	12593
928.901	12414
929.007	12346
929.112	12536
929.218	12403
929.323	12384
929.428	12346
929.533	12509
929.638	12289
929.743	12429
929.848	12311
929.953	12262
930.058	12159
930.163	11954
930.267	12026
930.372	12102
930.477	12022
930.581	12155
930.685	12136
930.79	11935
930.894	11927
930.998	11935
931.103	11996
931.207	11623
931.311	11581
931.415	11459
931.519	11288
931.623	11307
