Data from test_V78500241_2028.txt Node
Date: Fri Mar 25 15:55:51 CST 2022
User: usil
Spectrometer: V785-0024
Trigger mode: 0
Integration Time (sec): 4.000000E-1
Scans to average: 1
Nonlinearity correction enabled: false
Boxcar width: 0
Storing dark spectrum: false
XAxis mode: Wavelengths
Number of Pixels in Spectrum: 1024
>>>>>Begin Spectral Data<<<<<
801.071	28744
801.214	28873
801.356	28577
801.499	28645
801.641	28493
801.783	28375
801.926	28497
802.068	28519
802.211	28360
802.353	28325
802.496	28242
802.638	28131
802.78	28131
802.923	28109
803.065	28063
803.208	28055
803.35	28223
803.492	28181
803.635	28375
803.777	28253
803.919	28223
804.061	28645
804.204	28497
804.346	28363
804.488	28242
804.63	28322
804.773	28306
804.915	28565
805.057	28474
805.199	28371
805.341	28455
805.483	28592
805.626	28398
805.768	28382
805.91	28455
806.052	28546
806.194	28436
806.336	28752
806.478	28577
806.62	28550
806.762	28721
806.904	28869
807.046	29014
807.188	28873
807.33	28927
807.472	29010
807.614	28995
807.756	29037
807.898	28938
808.04	28862
808.182	28778
808.324	28854
808.465	28908
808.607	29037
808.749	29094
808.891	29337
809.033	29429
809.174	29296
809.316	29261
809.458	29296
809.6	29162
809.741	29421
809.883	29455
810.025	29474
810.166	29501
810.308	29577
810.45	29391
810.591	29417
810.733	29296
810.875	29200
811.016	29079
811.158	29090
811.299	29292
811.441	29448
811.582	29493
811.724	29132
811.865	29235
812.007	29341
812.148	29242
812.29	29189
812.431	29501
812.573	29638
812.714	29691
812.855	29874
812.997	29767
813.138	29809
813.279	29984
813.421	29726
813.562	29813
813.703	29551
813.845	29455
813.986	29353
814.127	29052
814.268	29109
814.41	28934
814.551	28949
814.692	29102
814.833	28816
814.974	28949
815.115	28984
815.256	28873
815.397	28828
815.539	28835
815.68	28854
815.821	28683
815.962	28793
816.103	28828
816.244	28626
816.385	28645
816.526	28733
816.666	28375
816.807	28219
816.948	28474
817.089	28519
817.23	28306
817.371	28344
817.512	28401
817.653	28371
817.793	28238
817.934	28135
818.075	28234
818.216	28291
818.356	28192
818.497	28261
818.638	28040
818.778	28219
818.919	27949
819.06	28116
819.2	28139
819.341	28303
819.481	28459
819.622	28413
819.762	28554
819.903	28523
820.043	28432
820.184	28527
820.324	28436
820.465	28561
820.605	28390
820.746	28371
820.886	28143
821.026	28424
821.167	28325
821.307	28493
821.447	28341
821.588	28246
821.728	27949
821.868	27998
822.008	27827
822.149	27808
822.289	27789
822.429	27553
822.569	27370
822.709	27367
822.849	27218
822.99	27294
823.13	27150
823.27	27138
823.41	27077
823.55	27127
823.69	27119
823.83	27161
823.97	26967
824.11	26921
824.25	26815
824.389	26876
824.529	27112
824.669	27024
824.809	27116
824.949	26944
825.089	26918
825.228	27112
825.368	26906
825.508	26765
825.648	26918
825.787	26792
825.927	26727
826.067	26758
826.206	26697
826.346	26830
826.485	26823
826.625	26754
826.765	27032
826.904	26777
827.044	26689
827.183	26621
827.323	26427
827.462	26560
827.601	26617
827.741	26526
827.88	26533
828.02	26408
828.159	26507
828.298	26518
828.437	26556
828.577	26450
828.716	26735
828.855	26362
828.994	26305
829.134	26328
829.273	26122
829.412	26202
829.551	26161
829.69	26202
829.829	26267
829.968	26161
830.107	26176
830.246	26263
830.385	26145
830.524	26142
830.663	26046
830.802	25864
830.941	25780
831.08	25780
831.219	25986
831.357	25978
831.496	26065
831.635	25898
831.774	25700
831.913	25772
832.051	25647
832.19	25639
832.329	25677
832.467	25445
832.606	25441
832.744	25384
832.883	25529
833.022	25419
833.16	25529
833.299	25616
833.437	25594
833.576	25635
833.714	25586
833.852	25635
833.991	25502
834.129	25693
834.267	25578
834.406	25434
834.544	25647
834.682	25601
834.821	25533
834.959	25742
835.097	25476
835.235	25544
835.373	25647
835.511	25635
835.65	25464
835.788	25392
835.926	25388
836.064	25217
836.202	25190
836.34	25270
836.478	25510
836.615	25419
836.753	25327
836.891	25495
837.029	25449
837.167	25365
837.305	25285
837.443	25206
837.58	25198
837.718	25122
837.856	25362
837.993	25084
838.131	25187
838.269	25118
838.406	25137
838.544	25046
838.681	25008
838.819	24825
838.956	24650
839.094	24631
839.231	24703
839.369	24875
839.506	25228
839.643	24939
839.781	24631
839.918	24684
840.055	24665
840.193	24665
840.33	24582
840.467	24787
840.604	24635
840.742	24833
840.879	24456
841.016	24536
841.153	24448
841.29	24661
841.427	24585
841.564	24661
841.701	24604
841.838	24612
841.975	24532
842.112	24563
842.249	24384
842.385	24311
842.522	24544
842.659	24414
842.796	24372
842.933	24365
843.069	24106
843.206	24353
843.343	24289
843.479	24407
843.616	24281
843.752	24182
843.889	24129
844.025	24273
844.162	24011
844.298	24186
844.435	24038
844.571	24076
844.708	24117
844.844	24148
844.98	24186
845.117	24205
845.253	24026
845.389	23958
845.525	24091
845.661	23977
845.798	23912
845.934	23809
846.07	23817
846.206	23802
846.342	23904
846.478	23695
846.614	23604
846.75	23463
846.886	23535
847.022	23646
847.158	23611
847.294	23554
847.429	23676
847.565	23680
847.701	23779
847.837	23242
847.972	23223
848.108	23410
848.244	23395
848.379	23212
848.515	23193
848.65	23018
848.786	23231
848.921	23018
849.057	23208
849.192	23345
849.328	23113
849.463	23155
849.598	23029
849.734	22976
849.869	22961
850.004	23052
850.14	22885
850.275	22915
850.41	22885
850.545	22908
850.68	22854
850.815	22869
850.95	22866
851.085	23143
851.22	23052
851.355	22915
851.49	22908
851.625	22934
851.76	22892
851.895	22843
852.03	22763
852.165	22869
852.299	22927
852.434	22896
852.569	22805
852.703	22831
852.838	22980
852.973	23071
853.107	22976
853.242	22866
853.376	22691
853.511	22596
853.645	22634
853.78	22904
853.914	22736
854.048	22752
854.183	22721
854.317	22835
854.451	22987
854.585	22778
854.72	22694
854.854	22748
854.988	22622
855.122	22717
855.256	22740
855.39	22702
855.524	22702
855.658	22839
855.792	22702
855.926	22717
856.06	22752
856.194	22653
856.327	22702
856.461	22782
856.595	22596
856.729	22630
856.862	22835
856.996	22748
857.13	22733
857.263	22896
857.397	22835
857.53	22805
857.664	22717
857.797	22675
857.931	22774
858.064	22733
858.197	22744
858.331	22630
858.464	22641
858.597	22683
858.731	22611
858.864	22634
858.997	22691
859.13	22752
859.263	22786
859.396	22812
859.529	22675
859.662	22675
859.795	22561
859.928	22850
860.061	22942
860.194	22984
860.327	22786
860.46	22812
860.592	22911
860.725	22889
860.858	22831
860.99	22653
861.123	22653
861.256	22683
861.388	22664
861.521	23490
861.653	22599
861.786	22489
861.918	22516
862.05	22596
862.183	22618
862.315	22687
862.447	22767
862.58	22675
862.712	22428
862.844	22352
862.976	22565
863.108	22554
863.24	22908
863.372	22478
863.504	22379
863.636	22447
863.768	22470
863.9	22481
864.032	22333
864.164	22394
864.296	22356
864.428	22504
864.559	22451
864.691	22436
864.823	22413
864.954	22390
865.086	22299
865.217	22363
865.349	22150
865.48	22341
865.612	22337
865.743	22424
865.875	22215
866.006	22356
866.137	22318
866.269	22360
866.4	22249
866.531	22188
866.662	22158
866.793	22188
866.924	22169
867.055	22166
867.186	22333
867.317	22246
867.448	22211
867.579	22276
867.71	22112
867.841	22154
867.972	22261
868.103	22112
868.233	22192
868.364	22238
868.495	22360
868.625	22428
868.756	22596
868.886	22295
869.017	22390
869.147	22485
869.278	22519
869.408	22462
869.539	22318
869.669	22561
869.799	22531
869.929	22569
870.06	22542
870.19	22927
870.32	22733
870.45	22752
870.58	22877
870.71	22934
870.84	23022
870.97	22858
871.1	22847
871.23	22919
871.36	23189
871.489	22911
871.619	22927
871.749	22987
871.879	23109
872.008	23185
872.138	23178
872.267	23048
872.397	22816
872.526	22889
872.656	22930
872.785	22976
872.915	23147
873.044	23071
873.173	23102
873.303	23086
873.432	23060
873.561	23132
873.69	23121
873.819	23079
873.948	23094
874.077	23022
874.206	22961
874.335	23083
874.464	23159
874.593	23345
874.722	23242
874.851	23250
874.979	23303
875.108	23250
875.237	23162
875.365	23288
875.494	23246
875.623	23322
875.751	23178
875.88	23387
876.008	23444
876.136	23353
876.265	23566
876.393	23771
876.521	23794
876.65	23935
876.778	23646
876.906	23748
877.034	23467
877.162	23623
877.29	23478
877.418	23566
877.546	23748
877.674	23733
877.802	23653
877.93	23589
878.058	23433
878.185	23566
878.313	23585
878.441	23543
878.568	23383
878.696	23509
878.824	23627
878.951	23699
879.079	23764
879.206	23935
879.333	23729
879.461	23524
879.588	23748
879.715	23703
879.842	23840
879.97	23657
880.097	23433
880.224	23516
880.351	23524
880.478	23520
880.605	23360
880.732	23425
880.859	23661
880.986	23410
881.112	23452
881.239	23391
881.366	23083
881.493	23014
881.619	22980
881.746	23003
881.872	23003
881.999	22965
882.125	22850
882.252	22987
882.378	22972
882.505	23071
882.631	22820
882.757	22694
882.883	22744
883.01	22664
883.136	22615
883.262	22580
883.388	22538
883.514	22645
883.64	22748
883.766	22637
883.892	22303
884.018	22512
884.143	22573
884.269	22740
884.395	22257
884.52	22371
884.646	22329
884.772	22341
884.897	22204
885.023	22272
885.148	22398
885.274	22417
885.399	22527
885.524	22424
885.65	22295
885.775	22386
885.9	22242
886.025	22504
886.15	22348
886.275	22382
886.4	22112
886.525	22329
886.65	22230
886.775	22253
886.9	22314
887.025	22440
887.149	22284
887.274	21994
887.399	22002
887.523	21991
887.648	21991
887.773	22010
887.897	22173
888.021	22002
888.146	22010
888.27	22162
888.395	22207
888.519	22025
888.643	22097
888.767	22021
888.891	22059
889.015	21835
889.139	21911
889.263	21869
889.387	21975
889.511	22101
889.635	21937
889.759	21838
889.883	21781
890.006	21690
890.13	21953
890.254	21709
890.377	21819
890.501	21690
890.624	21424
890.748	21572
890.871	21477
890.995	21481
891.118	21233
891.241	21405
891.364	21355
891.488	21576
891.611	21431
891.734	21405
891.857	21473
891.98	21332
892.103	21431
892.226	21336
892.349	21302
892.471	21211
892.594	21211
892.717	21325
892.839	21268
892.962	21325
893.085	21226
893.207	21123
893.33	21176
893.452	21173
893.575	21275
893.697	21325
893.819	21416
893.941	21420
894.064	21370
894.186	21214
894.308	21256
894.43	21279
894.552	21454
894.674	21252
894.796	21195
894.918	21226
895.04	21203
895.161	21237
895.283	21256
895.405	21108
895.526	21294
895.648	21272
895.769	21268
895.891	21291
896.012	21321
896.134	21211
896.255	21176
896.376	21272
896.498	21165
896.619	21203
896.74	21264
896.861	21340
896.982	21481
897.103	21747
897.224	21557
897.345	21488
897.466	21389
897.587	21420
897.708	21614
897.828	21443
897.949	21424
898.07	21291
898.19	21256
898.311	21481
898.431	21329
898.552	21439
898.672	21504
898.792	21488
898.913	21568
899.033	21405
899.153	21077
899.273	21131
899.393	21119
899.513	21249
899.633	21127
899.753	21207
899.873	21085
899.993	21188
900.113	21085
900.232	21135
900.352	21173
900.472	20960
900.591	20921
900.711	21055
900.83	21039
900.95	21036
901.069	20998
901.189	20758
901.308	20648
901.427	20663
901.546	20431
901.665	20495
901.784	20419
901.904	20370
902.023	20267
902.141	20012
902.26	20035
902.379	20119
902.498	20027
902.617	19833
902.735	20008
902.854	19959
902.973	19921
903.091	19803
903.21	19723
903.328	19632
903.446	19624
903.565	19373
903.683	19468
903.801	19392
903.919	19369
904.038	19400
904.156	19194
904.274	19190
904.392	19190
904.51	19240
904.627	19141
904.745	19171
904.863	19327
904.981	18985
905.098	18882
905.216	18848
905.334	18837
905.451	18897
905.569	18757
905.686	18939
905.803	18825
905.921	18620
906.038	18684
906.155	18715
906.272	18566
906.389	18536
906.506	18353
906.623	18422
906.74	18422
906.857	18327
906.974	18266
907.091	18429
907.208	18559
907.324	18369
907.441	18365
907.557	18125
907.674	18095
907.79	17965
907.907	18106
908.023	18148
908.139	18057
908.256	18091
908.372	17973
908.488	18053
908.604	17870
908.72	17737
908.836	17870
908.952	17779
909.068	17767
909.184	17923
909.3	17821
909.415	17843
909.531	17748
909.647	17573
909.762	17497
909.878	17570
909.993	17543
910.108	17596
910.224	17315
910.339	17490
910.454	17372
910.57	17311
910.685	17223
910.8	17577
910.915	17429
911.03	17235
911.145	17041
911.259	17181
911.374	17220
911.489	17014
911.604	17041
911.718	16862
911.833	16934
911.947	16835
912.062	16710
912.176	16873
912.291	16824
912.405	16801
912.519	17029
912.633	17041
912.748	16900
912.862	16778
912.976	16607
913.09	16531
913.204	16462
913.318	16592
913.431	16706
913.545	16561
913.659	16584
913.772	16558
913.886	16459
914	16356
914.113	16493
914.226	16660
914.34	16538
914.453	16322
914.566	16466
914.68	16314
914.793	16276
914.906	15979
915.019	16002
915.132	15926
915.245	16025
915.358	16059
915.47	15972
915.583	15968
915.696	15968
915.809	16025
915.921	16150
916.034	16029
916.146	15884
916.259	15869
916.371	16010
916.483	16044
916.595	15816
916.708	15934
916.82	15759
916.932	15778
917.044	15838
917.156	15656
917.268	15701
917.38	15671
917.491	15667
917.603	15698
917.715	15751
917.826	15739
917.938	15523
918.049	15515
918.161	15584
918.272	15648
918.384	15736
918.495	15610
918.606	15386
918.717	15412
918.828	15447
918.939	15420
919.05	15226
919.161	15428
919.272	15047
919.383	15317
919.494	15389
919.604	15610
919.715	15329
919.826	15264
919.936	15348
920.047	15378
920.157	15283
920.267	15595
920.378	15485
920.488	15348
920.598	15637
920.708	15652
920.818	15439
920.928	15370
921.038	15633
921.148	15523
921.258	15329
921.368	15233
921.477	14986
921.587	15017
921.697	14990
921.806	15104
921.916	14891
922.025	14731
922.134	14693
922.244	14678
922.353	14670
922.462	14610
922.571	14446
922.68	14355
922.789	14301
922.898	14400
923.007	14313
923.116	14320
923.224	14290
923.333	14381
923.442	14126
923.55	14221
923.659	14145
923.767	14218
923.876	14092
923.984	14142
924.092	14035
924.201	14107
924.309	14005
924.417	14115
924.525	14035
924.633	13917
924.741	14758
924.849	13818
924.956	13909
925.064	13727
925.172	13639
925.279	13632
925.387	13761
925.494	13674
925.602	13723
925.709	13761
925.816	13658
925.924	13677
926.031	13731
926.138	13571
926.245	13655
926.352	13487
926.459	13693
926.566	13715
926.673	13514
926.779	13430
926.886	13358
926.993	13381
927.099	13293
927.206	13274
927.312	13171
927.419	13335
927.525	13293
927.631	13232
927.737	13103
927.843	13122
927.95	12928
928.056	13038
928.162	13046
928.267	13118
928.373	13700
928.479	13206
928.585	12886
928.69	12970
928.796	13038
928.901	12837
929.007	12764
929.112	12886
929.218	12840
929.323	12913
929.428	12779
929.533	12837
929.638	12753
929.743	12684
929.848	12696
929.953	12745
930.058	12578
930.163	12490
930.267	12528
930.372	12536
930.477	12388
930.581	12589
930.685	12410
930.79	12262
930.894	12365
930.998	12292
931.103	12414
931.207	12053
931.311	11980
931.415	11908
931.519	11600
931.623	11680
