Data from test_V78500241_176.txt Node
Date: Fri Mar 25 15:43:01 CST 2022
User: usil
Spectrometer: V785-0024
Trigger mode: 0
Integration Time (sec): 4.000000E-1
Scans to average: 1
Nonlinearity correction enabled: false
Boxcar width: 0
Storing dark spectrum: false
XAxis mode: Wavelengths
Number of Pixels in Spectrum: 1024
>>>>>Begin Spectral Data<<<<<
801.071	29022
801.214	28904
801.356	28755
801.499	28645
801.641	28653
801.783	28447
801.926	28550
802.068	28607
802.211	28462
802.353	28401
802.496	28093
802.638	28223
802.78	28090
802.923	28055
803.065	28143
803.208	28143
803.35	28101
803.492	28276
803.635	28398
803.777	28219
803.919	28318
804.061	28596
804.204	28299
804.346	28067
804.488	27998
804.63	28154
804.773	28169
804.915	28185
805.057	28204
805.199	28200
805.341	28306
805.483	28314
805.626	28371
805.768	28272
805.91	28246
806.052	28253
806.194	28188
806.336	28424
806.478	28306
806.62	28436
806.762	28356
806.904	28649
807.046	28725
807.188	28569
807.33	28679
807.472	28774
807.614	28535
807.756	28546
807.898	28611
808.04	28481
808.182	28459
808.324	28580
808.465	28512
808.607	28637
808.749	28809
808.891	28968
809.033	29048
809.174	28942
809.316	28866
809.458	28927
809.6	28828
809.741	28942
809.883	28980
810.025	28930
810.166	29121
810.308	29128
810.45	29014
810.591	28987
810.733	28923
810.875	28820
811.016	28607
811.158	28854
811.299	29014
811.441	28991
811.582	28923
811.724	28858
811.865	28850
812.007	28774
812.148	28847
812.29	28900
812.431	28976
812.573	29079
812.714	29113
812.855	29311
812.997	29345
813.138	29486
813.279	29345
813.421	29280
813.562	29254
813.703	29079
813.845	28968
813.986	28630
814.127	28538
814.268	28440
814.41	28455
814.551	28428
814.692	28516
814.833	28268
814.974	28207
815.115	28295
815.256	28299
815.397	28158
815.539	28348
815.68	28185
815.821	28063
815.962	27987
816.103	28029
816.244	27930
816.385	27930
816.526	27800
816.666	27732
816.807	27515
816.948	27580
817.089	27629
817.23	27564
817.371	27519
817.512	27614
817.653	27386
817.793	27466
817.934	27679
818.075	27572
818.216	27534
818.356	27576
818.497	27355
818.638	27161
818.778	27157
818.919	27203
819.06	27226
819.2	27355
819.341	27412
819.481	27359
819.622	27564
819.762	27816
819.903	27686
820.043	27488
820.184	27595
820.324	27553
820.465	27591
820.605	27355
820.746	27583
820.886	27370
821.026	27492
821.167	27473
821.307	27504
821.447	27469
821.588	27195
821.728	27150
821.868	27100
822.008	26811
822.149	26975
822.289	26830
822.429	26655
822.569	26495
822.709	26507
822.849	26343
822.99	26431
823.13	26423
823.27	26271
823.41	26153
823.55	26039
823.69	26024
823.83	26252
823.97	26191
824.11	25947
824.25	25814
824.389	25963
824.529	26122
824.669	25959
824.809	25928
824.949	26012
825.089	25955
825.228	25917
825.368	25807
825.508	25674
825.648	25693
825.787	25856
825.927	25681
826.067	25552
826.206	25757
826.346	25871
826.485	25845
826.625	25704
826.765	25841
826.904	25750
827.044	25510
827.183	25540
827.323	25312
827.462	25567
827.601	25293
827.741	25426
827.88	25434
828.02	25240
828.159	25495
828.298	25308
828.437	25426
828.577	25278
828.716	25460
828.855	25324
828.994	24958
829.134	24977
829.273	25053
829.412	25107
829.551	25019
829.69	25050
829.829	24962
829.968	25148
830.107	25110
830.246	25076
830.385	24913
830.524	24901
830.663	24829
830.802	24730
830.941	24642
831.08	24460
831.219	24669
831.357	24608
831.496	24810
831.635	24627
831.774	24513
831.913	24525
832.051	24418
832.19	24323
832.329	24391
832.467	24395
832.606	24247
832.744	24273
832.883	24159
833.022	24155
833.16	24273
833.299	24247
833.437	24262
833.576	24190
833.714	24273
833.852	24361
833.991	24388
834.129	24365
834.267	24330
834.406	24148
834.544	24376
834.682	24338
834.821	24121
834.959	24369
835.097	24174
835.235	24300
835.373	24258
835.511	24167
835.65	24057
835.788	23942
835.926	23988
836.064	23813
836.202	23965
836.34	24068
836.478	24114
836.615	23901
836.753	24159
836.891	24114
837.029	24026
837.167	24087
837.305	23946
837.443	23863
837.58	23840
837.718	24003
837.856	23912
837.993	23786
838.131	23927
838.269	23821
838.406	23748
838.544	23680
838.681	23459
838.819	23387
838.956	23273
839.094	23368
839.231	23433
839.369	23531
839.506	23665
839.643	23501
839.781	23208
839.918	23185
840.055	23280
840.193	23315
840.33	23185
840.467	23197
840.604	23372
840.742	23368
840.879	23083
841.016	23067
841.153	23060
841.29	23258
841.427	22999
841.564	23246
841.701	23170
841.838	23033
841.975	23064
842.112	23079
842.249	23113
842.385	22919
842.522	23246
842.659	22972
842.796	22824
842.933	22984
843.069	22755
843.206	22828
843.343	22873
843.479	22930
843.616	22854
843.752	22660
843.889	22588
844.025	22729
844.162	22557
844.298	22755
844.435	22615
844.571	22634
844.708	22634
844.844	22740
844.98	22801
845.117	22782
845.253	22542
845.389	22538
845.525	22474
845.661	22504
845.798	22402
845.934	22455
846.07	22325
846.206	22470
846.342	22493
846.478	22196
846.614	22188
846.75	22067
846.886	22025
847.022	22154
847.158	22044
847.294	21960
847.429	22082
847.565	21998
847.701	22204
847.837	21831
847.972	21812
848.108	21774
848.244	21968
848.379	21656
848.515	21504
848.65	21663
848.786	21561
848.921	21580
849.057	21667
849.192	21732
849.328	21709
849.463	21504
849.598	21564
849.734	21538
849.869	21542
850.004	21367
850.14	21443
850.275	21393
850.41	21230
850.545	21332
850.68	21435
850.815	21370
850.95	21294
851.085	21488
851.22	21511
851.355	21386
851.49	21298
851.625	21256
851.76	21302
851.895	21306
852.03	21283
852.165	21340
852.299	21279
852.434	21351
852.569	21363
852.703	21336
852.838	21435
852.973	21431
853.107	21306
853.242	21203
853.376	21131
853.511	21112
853.645	21176
853.78	21329
853.914	21184
854.048	21135
854.183	21051
854.317	21055
854.451	21268
854.585	21131
854.72	21123
854.854	21184
854.988	21085
855.122	21127
855.256	21036
855.39	21135
855.524	21237
855.658	21123
855.792	21161
855.926	21085
856.06	21203
856.194	21291
856.327	21131
856.461	21074
856.595	21173
856.729	21089
856.862	21291
856.996	21104
857.13	21188
857.263	21256
857.397	21116
857.53	21108
857.664	21241
857.797	21173
857.931	21313
858.064	21211
858.197	21214
858.331	21108
858.464	21077
858.597	20921
858.731	20998
858.864	21024
858.997	21077
859.13	21017
859.263	21085
859.396	21150
859.529	21009
859.662	21051
859.795	21043
859.928	21135
860.061	21275
860.194	21184
860.327	21047
860.46	21077
860.592	21112
860.725	21180
860.858	21108
860.99	21089
861.123	20914
861.256	20963
861.388	21062
861.521	21835
861.653	20948
861.786	20868
861.918	20952
862.05	21055
862.183	21043
862.315	21119
862.447	21150
862.58	21104
862.712	20918
862.844	20724
862.976	20887
863.108	20880
863.24	21077
863.372	20686
863.504	20724
863.636	20861
863.768	20777
863.9	20712
864.032	20667
864.164	20682
864.296	20686
864.428	20857
864.559	20887
864.691	20838
864.823	20773
864.954	20731
865.086	20781
865.217	20670
865.349	20716
865.48	20621
865.612	20571
865.743	20872
865.875	20640
866.006	20678
866.137	20750
866.269	20670
866.4	20644
866.531	20659
866.662	20473
866.793	20518
866.924	20560
867.055	20617
867.186	20678
867.317	20454
867.448	20537
867.579	20594
867.71	20602
867.841	20457
867.972	20625
868.103	20571
868.233	20575
868.364	20480
868.495	20632
868.625	20716
868.756	20834
868.886	20750
869.017	20804
869.147	20944
869.278	20960
869.408	20765
869.539	20868
869.669	20853
869.799	20845
869.929	20952
870.06	21024
870.19	21188
870.32	21058
870.45	21146
870.58	21112
870.71	21165
870.84	21408
870.97	21275
871.1	21321
871.23	21363
871.36	21428
871.489	21291
871.619	21405
871.749	21378
871.879	21439
872.008	21416
872.138	21359
872.267	21348
872.397	21226
872.526	21348
872.656	21180
872.785	21283
872.915	21291
873.044	21485
873.173	21542
873.303	21439
873.432	21450
873.561	21462
873.69	21511
873.819	21397
873.948	21580
874.077	21534
874.206	21287
874.335	21473
874.464	21496
874.593	21614
874.722	21625
874.851	21553
874.979	21816
875.108	21644
875.237	21694
875.365	21629
875.494	21717
875.623	21759
875.751	21561
875.88	21557
876.008	21899
876.136	21838
876.265	22002
876.393	22090
876.521	22055
876.65	22196
876.778	22109
876.906	22006
877.034	22017
877.162	21979
877.29	21918
877.418	22116
877.546	22162
877.674	21903
877.802	22086
877.93	21991
878.058	21926
878.185	21949
878.313	22120
878.441	22013
878.568	21899
878.696	21979
878.824	22109
878.951	22188
879.079	22169
879.206	22226
879.333	22158
879.461	21884
879.588	22143
879.715	22131
879.842	22268
879.97	22116
880.097	21918
880.224	21865
880.351	21838
880.478	21842
880.605	21880
880.732	21842
880.859	22017
880.986	21861
881.112	21857
881.239	21625
881.366	21698
881.493	21435
881.619	21412
881.746	21549
881.872	21325
881.999	21336
882.125	21283
882.252	21481
882.378	21359
882.505	21576
882.631	21367
882.757	21192
882.883	21230
883.01	21176
883.136	21032
883.262	20963
883.388	21051
883.514	21256
883.64	21230
883.766	21062
883.892	20960
884.018	21039
884.143	21169
884.269	21188
884.395	20834
884.52	20701
884.646	20785
884.772	20724
884.897	20750
885.023	20826
885.148	20895
885.274	20880
885.399	20796
885.524	20811
885.65	20762
885.775	20845
885.9	20678
886.025	20849
886.15	20910
886.275	20682
886.4	20568
886.525	20701
886.65	20727
886.775	20781
886.9	20914
887.025	20830
887.149	20754
887.274	20670
887.399	20461
887.523	20708
887.648	20374
887.773	20484
887.897	20545
888.021	20549
888.146	20332
888.27	20598
888.395	20678
888.519	20530
888.643	20503
888.767	20514
888.891	20507
889.015	20347
889.139	20385
889.263	20282
889.387	20457
889.511	20431
889.635	20412
889.759	20339
889.883	20229
890.006	20343
890.13	20294
890.254	20256
890.377	20317
890.501	20020
890.624	19951
890.748	20225
890.871	20115
890.995	19879
891.118	19784
891.241	19932
891.364	19852
891.488	19944
891.611	19849
891.734	19894
891.857	19921
891.98	19944
892.103	19887
892.226	19917
892.349	19902
892.471	19613
892.594	19803
892.717	19814
892.839	19742
892.962	19753
893.085	19841
893.207	19814
893.33	19674
893.452	19685
893.575	19803
893.697	19750
893.819	19864
893.941	19974
894.064	19940
894.186	19833
894.308	19696
894.43	19791
894.552	20027
894.674	19974
894.796	19761
894.918	19837
895.04	19780
895.161	19883
895.283	19879
895.405	19742
895.526	19856
895.648	19890
895.769	19868
895.891	19841
896.012	19887
896.134	19921
896.255	19788
896.376	19902
896.498	19776
896.619	19875
896.74	19887
896.861	19982
896.982	20168
897.103	20275
897.224	20149
897.345	20050
897.466	20001
897.587	20005
897.708	20176
897.828	20119
897.949	20043
898.07	19921
898.19	19875
898.311	20172
898.431	19890
898.552	19894
898.672	20122
898.792	20100
898.913	20088
899.033	19814
899.153	19715
899.273	19658
899.393	19727
899.513	19753
899.633	19784
899.753	19738
899.873	19590
899.993	19727
900.113	19658
900.232	19689
900.352	19628
900.472	19544
900.591	19464
900.711	19590
900.83	19552
900.95	19624
901.069	19681
901.189	19422
901.308	19107
901.427	19137
901.546	19065
901.665	19206
901.784	19061
901.904	19053
902.023	18859
902.141	18711
902.26	18696
902.379	18749
902.498	18635
902.617	18650
902.735	18639
902.854	18570
902.973	18620
903.091	18247
903.21	18277
903.328	18178
903.446	18102
903.565	18110
903.683	18129
903.801	18030
903.919	17984
904.038	18095
904.156	17859
904.274	17897
904.392	17832
904.51	17798
904.627	17756
904.745	17882
904.863	17863
904.981	17703
905.098	17512
905.216	17623
905.334	17539
905.451	17532
905.569	17501
905.686	17516
905.803	17486
905.921	17410
906.038	17406
906.155	17349
906.272	17235
906.389	17136
906.506	17124
906.623	16896
906.74	17029
906.857	16896
906.974	16908
907.091	17132
907.208	17193
907.324	17113
907.441	16923
907.557	16790
907.674	16778
907.79	16725
907.907	16736
908.023	16675
908.139	16771
908.256	16660
908.372	16607
908.488	16615
908.604	16512
908.72	16417
908.836	16440
908.952	16398
909.068	16497
909.184	16394
909.3	16382
909.415	16352
909.531	16344
909.647	16177
909.762	16143
909.878	16143
909.993	16295
910.108	16082
910.224	16093
910.339	16112
910.454	15926
910.57	15930
910.685	15888
910.8	16078
910.915	16059
911.03	15873
911.145	15728
911.259	15739
911.374	15641
911.489	15751
911.604	15572
911.718	15549
911.833	15397
911.947	15382
912.062	15351
912.176	15424
912.291	15523
912.405	15466
912.519	15690
912.633	15538
912.748	15401
912.862	15355
912.976	15450
913.09	15173
913.204	15313
913.318	15351
913.431	15382
913.545	15344
913.659	15359
913.772	15097
913.886	15135
914	15104
914.113	15146
914.226	15081
914.34	15081
914.453	14899
914.566	15119
914.68	14963
914.793	14918
914.906	14712
915.019	14724
915.132	14667
915.245	14765
915.358	14754
915.47	14750
915.583	14785
915.696	14617
915.809	14800
915.921	14777
916.034	14644
916.146	14598
916.259	14617
916.371	14533
916.483	14659
916.595	14556
916.708	14488
916.82	14522
916.932	14511
917.044	14495
917.156	14454
917.268	14320
917.38	14385
917.491	14358
917.603	14362
917.715	14457
917.826	14526
917.938	14317
918.049	14126
918.161	14385
918.272	14415
918.384	14275
918.495	14347
918.606	14088
918.717	14031
918.828	14126
918.939	14107
919.05	13932
919.161	14027
919.272	13898
919.383	13936
919.494	14142
919.604	14278
919.715	14046
919.826	14050
919.936	14069
920.047	14107
920.157	14046
920.267	14214
920.378	14103
920.488	13974
920.598	14187
920.708	14385
920.818	14161
920.928	14248
921.038	14351
921.148	14328
921.258	14031
921.368	13925
921.477	13811
921.587	13731
921.697	13647
921.806	13788
921.916	13674
922.025	13457
922.134	13400
922.244	13415
922.353	13514
922.462	13293
922.571	13285
922.68	13175
922.789	13114
922.898	13156
923.007	13008
923.116	13160
923.224	13031
923.333	12943
923.442	12909
923.55	12871
923.659	12920
923.767	12977
923.876	12894
923.984	12920
924.092	12757
924.201	12894
924.309	12810
924.417	12764
924.525	12768
924.633	12844
924.741	13540
924.849	12517
924.956	12757
925.064	12555
925.172	12483
925.279	12498
925.387	12582
925.494	12498
925.602	12635
925.709	12677
925.816	12448
925.924	12502
926.031	12570
926.138	12433
926.245	12513
926.352	12399
926.459	12441
926.566	12578
926.673	12327
926.779	12254
926.886	12228
926.993	12114
927.099	12083
927.206	12087
927.312	11996
927.419	12076
927.525	12049
927.631	12045
927.737	11969
927.843	11984
927.95	11878
928.056	11889
928.162	11950
928.267	11980
928.373	12612
928.479	11961
928.585	11741
928.69	11855
928.796	11920
928.901	11786
929.007	11627
929.112	11760
929.218	11771
929.323	11722
929.428	11691
929.533	11722
929.638	11547
929.743	11547
929.848	11699
929.953	11577
930.058	11562
930.163	11360
930.267	11356
930.372	11478
930.477	11261
930.581	11512
930.685	11376
930.79	11269
930.894	11231
930.998	11201
931.103	11296
931.207	11003
931.311	10854
931.415	10782
931.519	10580
931.623	10573
