Data from test_V78500241_3356.txt Node
Date: Fri Mar 25 16:05:02 CST 2022
User: usil
Spectrometer: V785-0024
Trigger mode: 0
Integration Time (sec): 4.000000E-1
Scans to average: 1
Nonlinearity correction enabled: false
Boxcar width: 0
Storing dark spectrum: false
XAxis mode: Wavelengths
Number of Pixels in Spectrum: 1024
>>>>>Begin Spectral Data<<<<<
801.071	29056
801.214	29048
801.356	28847
801.499	28816
801.641	28622
801.783	28516
801.926	28748
802.068	28630
802.211	28592
802.353	28497
802.496	28413
802.638	28432
802.78	28363
802.923	28207
803.065	28166
803.208	28287
803.35	28253
803.492	28485
803.635	28527
803.777	28459
803.919	28664
804.061	28831
804.204	28675
804.346	28607
804.488	28542
804.63	28653
804.773	28470
804.915	28713
805.057	28683
805.199	28607
805.341	28653
805.483	28752
805.626	28778
805.768	28599
805.91	28786
806.052	28805
806.194	28596
806.336	28930
806.478	28828
806.62	28774
806.762	29044
806.904	29102
807.046	29277
807.188	29239
807.33	29189
807.472	29280
807.614	29223
807.756	29220
807.898	28930
808.04	29109
808.182	28995
808.324	29155
808.465	29064
808.607	29322
808.749	29535
808.891	29562
809.033	29646
809.174	29516
809.316	29455
809.458	29493
809.6	29512
809.741	29737
809.883	29691
810.025	29775
810.166	29805
810.308	29790
810.45	29714
810.591	29661
810.733	29452
810.875	29455
811.016	29573
811.158	29406
811.299	29551
811.441	29630
811.582	29672
811.724	29436
811.865	29516
812.007	29497
812.148	29493
812.29	29611
812.431	29718
812.573	29836
812.714	29912
812.855	30049
812.997	30129
813.138	30266
813.279	30106
813.421	30076
813.562	29961
813.703	29862
813.845	29748
813.986	29482
814.127	29353
814.268	29136
814.41	29258
814.551	29113
814.692	29280
814.833	29162
814.974	29181
815.115	29185
815.256	29083
815.397	29174
815.539	29105
815.68	28968
815.821	29006
815.962	29022
816.103	29079
816.244	28892
816.385	28816
816.526	28850
816.666	28679
816.807	28557
816.948	28550
817.089	28649
817.23	28649
817.371	28497
817.512	28542
817.653	28436
817.793	28531
817.934	28371
818.075	28554
818.216	28615
818.356	28538
818.497	28462
818.638	28440
818.778	28306
818.919	28314
819.06	28382
819.2	28546
819.341	28588
819.481	28584
819.622	28546
819.762	28892
819.903	28809
820.043	28828
820.184	28748
820.324	28698
820.465	28839
820.605	28725
820.746	28710
820.886	28504
821.026	28630
821.167	28683
821.307	28653
821.447	28538
821.588	28607
821.728	28523
821.868	28348
822.008	28150
822.149	28090
822.289	28025
822.429	27850
822.569	27656
822.709	27743
822.849	27679
822.99	27405
823.13	27553
823.27	27614
823.41	27439
823.55	27294
823.69	27435
823.83	27393
823.97	27275
824.11	27363
824.25	27161
824.389	27173
824.529	27344
824.669	27268
824.809	27340
824.949	27233
825.089	27370
825.228	27306
825.368	27230
825.508	27211
825.648	27104
825.787	27222
825.927	27199
826.067	26982
826.206	27062
826.346	27169
826.485	27157
826.625	27207
826.765	27207
826.904	27146
827.044	26864
827.183	26849
827.323	26811
827.462	26849
827.601	26883
827.741	26880
827.88	26834
828.02	26830
828.159	26762
828.298	26724
828.437	26876
828.577	26659
828.716	26956
828.855	26765
828.994	26530
829.134	26583
829.273	26571
829.412	26575
829.551	26434
829.69	26606
829.829	26495
829.968	26564
830.107	26518
830.246	26488
830.385	26465
830.524	26473
830.663	26275
830.802	26351
830.941	26206
831.08	26225
831.219	26256
831.357	26275
831.496	26362
831.635	26168
831.774	26046
831.913	26043
832.051	25909
832.19	25852
832.329	25970
832.467	25769
832.606	25788
832.744	25731
832.883	25894
833.022	25727
833.16	25826
833.299	25784
833.437	25902
833.576	25925
833.714	25750
833.852	25928
833.991	25814
834.129	25841
834.267	25803
834.406	25959
834.544	25868
834.682	25818
834.821	25845
834.959	26005
835.097	25734
835.235	25955
835.373	25913
835.511	25788
835.65	25791
835.788	25738
835.926	25468
836.064	25487
836.202	25632
836.34	25799
836.478	25814
836.615	25742
836.753	25685
836.891	25677
837.029	25624
837.167	25708
837.305	25544
837.443	25613
837.58	25613
837.718	25453
837.856	25605
837.993	25369
838.131	25514
838.269	25430
838.406	25426
838.544	25350
838.681	25175
838.819	25168
838.956	25069
839.094	24928
839.231	25057
839.369	25194
839.506	25373
839.643	25266
839.781	25008
839.918	24989
840.055	24833
840.193	24802
840.33	24814
840.467	24848
840.604	24943
840.742	25023
840.879	24856
841.016	24844
841.153	24814
841.29	24882
841.427	24875
841.564	24795
841.701	24882
841.838	24848
841.975	24878
842.112	24852
842.249	24616
842.385	24635
842.522	24932
842.659	24707
842.796	24509
842.933	24623
843.069	24502
843.206	24502
843.343	24639
843.479	24601
843.616	24604
843.752	24285
843.889	24441
844.025	24494
844.162	24395
844.298	24490
844.435	24494
844.571	24315
844.708	24441
844.844	24547
844.98	24646
845.117	24601
845.253	24342
845.389	24266
845.525	24372
845.661	24350
845.798	24125
845.934	24220
846.07	24190
846.206	24133
846.342	24327
846.478	24057
846.614	24152
846.75	23901
846.886	23889
847.022	23733
847.158	23874
847.294	23920
847.429	23980
847.565	23832
847.701	24045
847.837	23699
847.972	23459
848.108	23687
848.244	23604
848.379	23478
848.515	23444
848.65	23497
848.786	23490
848.921	23520
849.057	23535
849.192	23547
849.328	23558
849.463	23379
849.598	23356
849.734	23322
849.869	23197
850.004	23185
850.14	23216
850.275	23181
850.41	23151
850.545	23189
850.68	23212
850.815	23086
850.95	23326
851.085	23459
851.22	23296
851.355	23307
851.49	23307
851.625	23216
851.76	23231
851.895	23109
852.03	23178
852.165	23193
852.299	23128
852.434	23166
852.569	23170
852.703	23216
852.838	23261
852.973	23322
853.107	23353
853.242	23143
853.376	23041
853.511	22965
853.645	23033
853.78	23056
853.914	23067
854.048	22987
854.183	22968
854.317	23113
854.451	23258
854.585	23064
854.72	23105
854.854	23044
854.988	22984
855.122	23067
855.256	22854
855.39	22923
855.524	23048
855.658	23159
855.792	22984
855.926	22946
856.06	23033
856.194	22980
856.327	22961
856.461	22896
856.595	23018
856.729	23022
856.862	23075
856.996	22991
857.13	23064
857.263	23242
857.397	23109
857.53	22915
857.664	23006
857.797	22976
857.931	23094
858.064	22934
858.197	23181
858.331	22896
858.464	22915
858.597	23014
858.731	22927
858.864	22877
858.997	22953
859.13	22991
859.263	23075
859.396	23022
859.529	22946
859.662	23029
859.795	22942
859.928	23060
860.061	23117
860.194	23292
860.327	22991
860.46	22972
860.592	23178
860.725	23273
860.858	23208
860.99	23029
861.123	22881
861.256	23029
861.388	23018
861.521	23630
861.653	22946
861.786	22854
861.918	22881
862.05	22987
862.183	23003
862.315	22911
862.447	23033
862.58	22919
862.712	22691
862.844	22706
862.976	22847
863.108	22816
863.24	23280
863.372	22618
863.504	22820
863.636	22607
863.768	22820
863.9	22744
864.032	22573
864.164	22561
864.296	22706
864.428	22812
864.559	22889
864.691	22828
864.823	22622
864.954	22660
865.086	22679
865.217	22622
865.349	22424
865.48	22557
865.612	22508
865.743	22698
865.875	22497
866.006	22478
866.137	22538
866.269	22649
866.4	22561
866.531	22535
866.662	22474
866.793	22493
866.924	22459
867.055	22557
867.186	22508
867.317	22470
867.448	22497
867.579	22569
867.71	22367
867.841	22390
867.972	22542
868.103	22455
868.233	22371
868.364	22588
868.495	22622
868.625	22816
868.756	22828
868.886	22649
869.017	22763
869.147	22850
869.278	22972
869.408	22725
869.539	22702
869.669	22752
869.799	22752
869.929	22847
870.06	22885
870.19	23044
870.32	23033
870.45	23124
870.58	23128
870.71	23185
870.84	23353
870.97	23204
871.1	23307
871.23	23326
871.36	23410
871.489	23258
871.619	23284
871.749	23383
871.879	23353
872.008	23493
872.138	23391
872.267	23299
872.397	23216
872.526	23258
872.656	23147
872.785	23269
872.915	23322
873.044	23482
873.173	23326
873.303	23497
873.432	23421
873.561	23505
873.69	23353
873.819	23311
873.948	23486
874.077	23463
874.206	23273
874.335	23433
874.464	23417
874.593	23661
874.722	23501
874.851	23596
874.979	23699
875.108	23604
875.237	23634
875.365	23547
875.494	23535
875.623	23566
875.751	23497
875.88	23516
876.008	23657
876.136	23813
876.265	23973
876.393	24155
876.521	23965
876.65	24064
876.778	24022
876.906	23969
877.034	23901
877.162	23977
877.29	23889
877.418	23882
877.546	23863
877.674	23973
877.802	23828
877.93	23992
878.058	23863
878.185	23809
878.313	23904
878.441	23977
878.568	23695
878.696	23775
878.824	24003
878.951	24064
879.079	24209
879.206	24163
879.333	24018
879.461	24018
879.588	24038
879.715	24144
879.842	24095
879.97	23840
880.097	23809
880.224	23672
880.351	23824
880.478	23748
880.605	23718
880.732	23695
880.859	23912
880.986	23859
881.112	23756
881.239	23760
881.366	23486
881.493	23288
881.619	23246
881.746	23425
881.872	23280
881.999	23322
882.125	23231
882.252	23376
882.378	23231
882.505	23387
882.631	23086
882.757	22984
882.883	23086
883.01	23037
883.136	22847
883.262	22869
883.388	22816
883.514	22946
883.64	22984
883.766	22847
883.892	22748
884.018	22797
884.143	22968
884.269	23041
884.395	22550
884.52	22599
884.646	22615
884.772	22615
884.897	22451
885.023	22683
885.148	22615
885.274	22637
885.399	22702
885.524	22546
885.65	22637
885.775	22550
885.9	22592
886.025	22687
886.15	22675
886.275	22538
886.4	22504
886.525	22611
886.65	22451
886.775	22523
886.9	22752
887.025	22889
887.149	22649
887.274	22276
887.399	22223
887.523	22394
887.648	22268
887.773	22322
887.897	22352
888.021	22413
888.146	22219
888.27	22470
888.395	22455
888.519	22310
888.643	22344
888.767	22421
888.891	22337
889.015	22200
889.139	22048
889.263	22131
889.387	22295
889.511	22196
889.635	22166
889.759	22158
889.883	22154
890.006	22162
890.13	22276
890.254	22101
890.377	22044
890.501	21956
890.624	21751
890.748	21922
890.871	21903
890.995	21583
891.118	21667
891.241	21656
891.364	21671
891.488	21823
891.611	21663
891.734	21663
891.857	21690
891.98	21641
892.103	21743
892.226	21557
892.349	21599
892.471	21374
892.594	21549
892.717	21534
892.839	21534
892.962	21580
893.085	21709
893.207	21606
893.33	21477
893.452	21583
893.575	21648
893.697	21564
893.819	21679
893.941	21694
894.064	21583
894.186	21389
894.308	21477
894.43	21625
894.552	21660
894.674	21591
894.796	21481
894.918	21538
895.04	21450
895.161	21610
895.283	21641
895.405	21435
895.526	21564
895.648	21401
895.769	21492
895.891	21443
896.012	21660
896.134	21595
896.255	21523
896.376	21500
896.498	21595
896.619	21500
896.74	21488
896.861	21549
896.982	21774
897.103	21960
897.224	21732
897.345	21698
897.466	21629
897.587	21724
897.708	21751
897.828	21724
897.949	21705
898.07	21450
898.19	21728
898.311	21701
898.431	21511
898.552	21759
898.672	21785
898.792	21778
898.913	21698
899.033	21488
899.153	21405
899.273	21351
899.393	21439
899.513	21564
899.633	21481
899.753	21351
899.873	21462
899.993	21469
900.113	21374
900.232	21401
900.352	21367
900.472	21218
900.591	21066
900.711	21249
900.83	21176
900.95	21287
901.069	21096
901.189	21135
901.308	20796
901.427	20807
901.546	20674
901.665	20815
901.784	20754
901.904	20549
902.023	20461
902.141	20290
902.26	20305
902.379	20347
902.498	20259
902.617	20142
902.735	20214
902.854	20142
902.973	20153
903.091	19902
903.21	19959
903.328	19951
903.446	19750
903.565	19677
903.683	19677
903.801	19578
903.919	19685
904.038	19658
904.156	19548
904.274	19464
904.392	19422
904.51	19422
904.627	19499
904.745	19628
904.863	19502
904.981	19308
905.098	19198
905.216	19099
905.334	19187
905.451	19057
905.569	19061
905.686	19160
905.803	19152
905.921	18916
906.038	18962
906.155	19038
906.272	18833
906.389	18882
906.506	18764
906.623	18631
906.74	18707
906.857	18502
906.974	18464
907.091	18563
907.208	18749
907.324	18684
907.441	18517
907.557	18357
907.674	18281
907.79	18243
907.907	18232
908.023	18429
908.139	18464
908.256	18232
908.372	18273
908.488	18395
908.604	18114
908.72	18041
908.836	18064
908.952	18022
909.068	18125
909.184	18197
909.3	17988
909.415	18072
909.531	18060
909.647	17783
909.762	17813
909.878	17695
909.993	17794
910.108	17703
910.224	17649
910.339	17748
910.454	17714
910.57	17547
910.685	17505
910.8	17771
910.915	17718
911.03	17524
911.145	17322
911.259	17303
911.374	17318
911.489	17337
911.604	17200
911.718	17010
911.833	17166
911.947	16904
912.062	16862
912.176	17045
912.291	17003
912.405	17128
912.519	17315
912.633	17227
912.748	17086
912.862	17083
912.976	16927
913.09	16744
913.204	16771
913.318	16869
913.431	17041
913.545	16953
913.659	16946
913.772	16824
913.886	16660
914	16645
914.113	16615
914.226	16637
914.34	16668
914.453	16481
914.566	16637
914.68	16535
914.793	16569
914.906	16261
915.019	16188
915.132	16162
915.245	16162
915.358	16306
915.47	16124
915.583	16166
915.696	16223
915.809	16291
915.921	16276
916.034	16234
916.146	16124
916.259	16112
916.371	16173
916.483	16131
916.595	16048
916.708	16006
916.82	15960
916.932	16017
917.044	15915
917.156	15869
917.268	15873
917.38	15808
917.491	15781
917.603	15812
917.715	15838
917.826	16002
917.938	15732
918.049	15625
918.161	15812
918.272	15869
918.384	15850
918.495	15770
918.606	15614
918.717	15599
918.828	15599
918.939	15576
919.05	15477
919.161	15580
919.272	15378
919.383	15428
919.494	15614
919.604	15698
919.715	15530
919.826	15397
919.936	15557
920.047	15568
920.157	15530
920.267	15663
920.378	15564
920.488	15386
920.598	15660
920.708	15637
920.818	15629
920.928	15652
921.038	15785
921.148	15724
921.258	15443
921.368	15386
921.477	15161
921.587	15275
921.697	15070
921.806	15256
921.916	15074
922.025	14899
922.134	14891
922.244	14788
922.353	14796
922.462	14800
922.571	14674
922.68	14446
922.789	14476
922.898	14564
923.007	14423
923.116	14389
923.224	14636
923.333	14492
923.442	14263
923.55	14355
923.659	14339
923.767	14389
923.876	14229
923.984	14233
924.092	14286
924.201	14275
924.309	14187
924.417	14229
924.525	14142
924.633	14164
924.741	15047
924.849	13868
924.956	14035
925.064	13898
925.172	13841
925.279	13803
925.387	13898
925.494	13845
925.602	14035
925.709	13826
925.816	13776
925.924	13719
926.031	13879
926.138	13738
926.245	13852
926.352	13689
926.459	13776
926.566	13826
926.673	13719
926.779	13582
926.886	13518
926.993	13430
927.099	13381
927.206	13247
927.312	13308
927.419	13362
927.525	13365
927.631	13407
927.737	13278
927.843	13198
927.95	13187
928.056	13259
928.162	13213
928.267	13202
928.373	13696
928.479	13228
928.585	12989
928.69	13133
928.796	13183
928.901	13008
929.007	12863
929.112	13061
929.218	12901
929.323	12817
929.428	12871
929.533	13034
929.638	12814
929.743	12768
929.848	12882
929.953	12791
930.058	12795
930.163	12536
930.267	12563
930.372	12722
930.477	12566
930.581	12783
930.685	12525
930.79	12460
930.894	12441
930.998	12369
931.103	12460
931.207	12110
931.311	11992
931.415	12038
931.519	11840
931.623	11756
