Data from test_V78500241_3455.txt Node
Date: Fri Mar 25 16:05:44 CST 2022
User: usil
Spectrometer: V785-0024
Trigger mode: 0
Integration Time (sec): 4.000000E-1
Scans to average: 1
Nonlinearity correction enabled: false
Boxcar width: 0
Storing dark spectrum: false
XAxis mode: Wavelengths
Number of Pixels in Spectrum: 1024
>>>>>Begin Spectral Data<<<<<
801.071	28934
801.214	28915
801.356	28531
801.499	28691
801.641	28516
801.783	28405
801.926	28542
802.068	28588
802.211	28398
802.353	28363
802.496	28139
802.638	28090
802.78	28135
802.923	28090
803.065	27930
803.208	28040
803.35	28124
803.492	28314
803.635	28401
803.777	28246
803.919	28424
804.061	28630
804.204	28542
804.346	28318
804.488	28352
804.63	28386
804.773	28436
804.915	28489
805.057	28577
805.199	28363
805.341	28550
805.483	28645
805.626	28588
805.768	28580
805.91	28717
806.052	28717
806.194	28466
806.336	28828
806.478	28592
806.62	28706
806.762	28816
806.904	28968
807.046	29094
807.188	28972
807.33	29083
807.472	29166
807.614	29018
807.756	29060
807.898	28866
808.04	28725
808.182	28828
808.324	28881
808.465	28900
808.607	29155
808.749	29239
808.891	29334
809.033	29528
809.174	29322
809.316	29311
809.458	29383
809.6	29322
809.741	29349
809.883	29440
810.025	29596
810.166	29493
810.308	29490
810.45	29444
810.591	29292
810.733	29326
810.875	29216
811.016	29239
811.158	29265
811.299	29414
811.441	29547
811.582	29471
811.724	29258
811.865	29292
812.007	29239
812.148	29261
812.29	29322
812.431	29429
812.573	29649
812.714	29745
812.855	29771
812.997	29851
813.138	30030
813.279	29942
813.421	29874
813.562	29748
813.703	29619
813.845	29642
813.986	29299
814.127	29079
814.268	28858
814.41	29113
814.551	28915
814.692	29048
814.833	28961
814.974	28927
815.115	29086
815.256	28900
815.397	28938
815.539	28949
815.68	28904
815.821	28881
815.962	28713
816.103	28942
816.244	28759
816.385	28516
816.526	28641
816.666	28497
816.807	28424
816.948	28462
817.089	28363
817.23	28299
817.371	28238
817.512	28409
817.653	28314
817.793	28287
817.934	28390
818.075	28314
818.216	28265
818.356	28287
818.497	28280
818.638	28074
818.778	28143
818.919	28116
819.06	28249
819.2	28200
819.341	28257
819.481	28440
819.622	28485
819.762	28592
819.903	28550
820.043	28489
820.184	28474
820.324	28474
820.465	28459
820.605	28512
820.746	28527
820.886	28398
821.026	28386
821.167	28333
821.307	28451
821.447	28390
821.588	28169
821.728	28120
821.868	27949
822.008	27934
822.149	27854
822.289	27854
822.429	27587
822.569	27477
822.709	27595
822.849	27370
822.99	27420
823.13	27374
823.27	27291
823.41	27131
823.55	26975
823.69	27119
823.83	27066
823.97	26994
824.11	26861
824.25	26982
824.389	27116
824.529	26982
824.669	27070
824.809	27154
824.949	27074
825.089	27051
825.228	27104
825.368	26914
825.508	26830
825.648	26838
825.787	26868
825.927	27055
826.067	26872
826.206	26880
826.346	26937
826.485	26986
826.625	26925
826.765	27108
826.904	26868
827.044	26602
827.183	26587
827.323	26617
827.462	26689
827.601	26484
827.741	26575
827.88	26765
828.02	26537
828.159	26469
828.298	26537
828.437	26587
828.577	26579
828.716	26746
828.855	26541
828.994	26195
829.134	26206
829.273	26351
829.412	26176
829.551	26294
829.69	26347
829.829	26278
829.968	26328
830.107	26309
830.246	26138
830.385	26142
830.524	26214
830.663	26145
830.802	26084
830.941	25890
831.08	25803
831.219	26058
831.357	25982
831.496	26077
831.635	25909
831.774	25791
831.913	25761
832.051	25628
832.19	25586
832.329	25700
832.467	25613
832.606	25533
832.744	25594
832.883	25586
833.022	25552
833.16	25597
833.299	25544
833.437	25559
833.576	25635
833.714	25708
833.852	25674
833.991	25582
834.129	25670
834.267	25681
834.406	25483
834.544	25559
834.682	25506
834.821	25624
834.959	25753
835.097	25510
835.235	25693
835.373	25556
835.511	25567
835.65	25495
835.788	25472
835.926	25304
836.064	25320
836.202	25278
836.34	25335
836.478	25521
836.615	25415
836.753	25487
836.891	25457
837.029	25487
837.167	25388
837.305	25491
837.443	25255
837.58	25369
837.718	25419
837.856	25202
837.993	25240
838.131	25324
838.269	25110
838.406	25190
838.544	25015
838.681	24905
838.819	24814
838.956	24749
839.094	24726
839.231	24776
839.369	24768
839.506	25080
839.643	25000
839.781	24749
839.918	24772
840.055	24684
840.193	24677
840.33	24646
840.467	24532
840.604	24642
840.742	24932
840.879	24426
841.016	24616
841.153	24570
841.29	24696
841.427	24578
841.564	24642
841.701	24665
841.838	24726
841.975	24505
842.112	24566
842.249	24407
842.385	24384
842.522	24623
842.659	24528
842.796	24490
842.933	24304
843.069	24407
843.206	24414
843.343	24505
843.479	24563
843.616	24528
843.752	24060
843.889	24235
844.025	24296
844.162	24152
844.298	24224
844.435	24030
844.571	24045
844.708	24224
844.844	24334
844.98	24361
845.117	24342
845.253	24026
845.389	24072
845.525	24053
845.661	24106
845.798	23882
845.934	24026
846.07	23893
846.206	23882
846.342	23996
846.478	23817
846.614	23733
846.75	23543
846.886	23482
847.022	23528
847.158	23684
847.294	23619
847.429	23687
847.565	23577
847.701	23866
847.837	23471
847.972	23421
848.108	23524
848.244	23387
848.379	23200
848.515	23315
848.65	23258
848.786	23269
848.921	23356
849.057	23269
849.192	23200
849.328	23296
849.463	23254
849.598	23143
849.734	23197
849.869	23102
850.004	22946
850.14	23033
850.275	22938
850.41	22812
850.545	22984
850.68	23060
850.815	23003
850.95	22953
851.085	23136
851.22	23124
851.355	22923
851.49	23006
851.625	22961
851.76	22805
851.895	22900
852.03	22930
852.165	22934
852.299	22968
852.434	23067
852.569	22976
852.703	22984
852.838	23143
852.973	22999
853.107	23079
853.242	22896
853.376	22774
853.511	22615
853.645	22748
853.78	22976
853.914	22816
854.048	22786
854.183	22683
854.317	22767
854.451	23098
854.585	22873
854.72	22755
854.854	22904
854.988	22862
855.122	22812
855.256	22710
855.39	22721
855.524	22877
855.658	22782
855.792	22793
855.926	22892
856.06	22763
856.194	22820
856.327	22748
856.461	22702
856.595	22656
856.729	22771
856.862	22877
856.996	22812
857.13	22774
857.263	22850
857.397	22828
857.53	22771
857.664	22645
857.797	22854
857.931	22934
858.064	22713
858.197	22858
858.331	22771
858.464	22725
858.597	22824
858.731	22782
858.864	22839
858.997	22812
859.13	22778
859.263	22858
859.396	22900
859.529	22881
859.662	22706
859.795	22668
859.928	22797
860.061	22991
860.194	23003
860.327	22786
860.46	22843
860.592	22991
860.725	23090
860.858	22923
860.99	22866
861.123	22717
861.256	22759
861.388	22847
861.521	23417
861.653	22630
861.786	22538
861.918	22573
862.05	22675
862.183	22577
862.315	22679
862.447	22812
862.58	22717
862.712	22580
862.844	22516
862.976	22672
863.108	22588
863.24	22850
863.372	22375
863.504	22641
863.636	22478
863.768	22462
863.9	22550
864.032	22424
864.164	22455
864.296	22531
864.428	22550
864.559	22455
864.691	22607
864.823	22584
864.954	22485
865.086	22443
865.217	22398
865.349	22348
865.48	22455
865.612	22348
865.743	22519
865.875	22348
866.006	22371
866.137	22348
866.269	22299
866.4	22291
866.531	22360
866.662	22249
866.793	22226
866.924	22284
867.055	22314
867.186	22295
867.317	22249
867.448	22268
867.579	22272
867.71	22257
867.841	22139
867.972	22360
868.103	22211
868.233	22272
868.364	22367
868.495	22489
868.625	22493
868.756	22668
868.886	22360
869.017	22630
869.147	22603
869.278	22725
869.408	22569
869.539	22519
869.669	22675
869.799	22546
869.929	22664
870.06	22752
870.19	22847
870.32	22831
870.45	23056
870.58	22949
870.71	23117
870.84	23025
870.97	22987
871.1	22873
871.23	23178
871.36	23155
871.489	23025
871.619	23006
871.749	23155
871.879	23242
872.008	23265
872.138	23250
872.267	23174
872.397	23151
872.526	23041
872.656	22927
872.785	22923
872.915	23022
873.044	23185
873.173	23208
873.303	23094
873.432	23296
873.561	23383
873.69	23181
873.819	23189
873.948	23220
874.077	23181
874.206	23037
874.335	23117
874.464	23288
874.593	23417
874.722	23376
874.851	23383
874.979	23368
875.108	23429
875.237	23379
875.365	23193
875.494	23376
875.623	23520
875.751	23360
875.88	23341
876.008	23478
876.136	23516
876.265	23870
876.393	23786
876.521	23813
876.65	23760
876.778	23874
876.906	23615
877.034	23589
877.162	23878
877.29	23570
877.418	23790
877.546	23722
877.674	23657
877.802	23737
877.93	23581
878.058	23608
878.185	23695
878.313	23642
878.441	23581
878.568	23562
878.696	23619
878.824	23695
878.951	23840
879.079	23897
879.206	23969
879.333	23878
879.461	23722
879.588	23771
879.715	23912
879.842	23901
879.97	23737
880.097	23661
880.224	23551
880.351	23608
880.478	23630
880.605	23501
880.732	23512
880.859	23764
880.986	23589
881.112	23562
881.239	23463
881.366	23303
881.493	23090
881.619	23022
881.746	23239
881.872	23143
881.999	22961
882.125	23029
882.252	23151
882.378	23044
882.505	23185
882.631	22835
882.757	22835
882.883	22771
883.01	22675
883.136	22725
883.262	22679
883.388	22523
883.514	22736
883.64	22736
883.766	22759
883.892	22550
884.018	22493
884.143	22702
884.269	22805
884.395	22500
884.52	22363
884.646	22379
884.772	22272
884.897	22303
885.023	22546
885.148	22493
885.274	22527
885.399	22428
885.524	22413
885.65	22409
885.775	22424
885.9	22386
886.025	22485
886.15	22462
886.275	22386
886.4	22280
886.525	22424
886.65	22325
886.775	22284
886.9	22535
887.025	22736
887.149	22280
887.274	22185
887.399	22128
887.523	22173
887.648	22063
887.773	22044
887.897	22265
888.021	22276
888.146	22086
888.27	22284
888.395	22261
888.519	22032
888.643	22344
888.767	22147
888.891	21930
889.015	22025
889.139	22097
889.263	21876
889.387	21979
889.511	22135
889.635	22105
889.759	21926
889.883	21812
890.006	21835
890.13	22105
890.254	21884
890.377	21816
890.501	21576
890.624	21572
890.748	21728
890.871	21591
890.995	21428
891.118	21507
891.241	21492
891.364	21545
891.488	21603
891.611	21458
891.734	21507
891.857	21458
891.98	21416
892.103	21606
892.226	21416
892.349	21443
892.471	21233
892.594	21397
892.717	21397
892.839	21310
892.962	21340
893.085	21435
893.207	21336
893.33	21283
893.452	21317
893.575	21306
893.697	21378
893.819	21572
893.941	21481
894.064	21507
894.186	21279
894.308	21264
894.43	21473
894.552	21603
894.674	21374
894.796	21268
894.918	21264
895.04	21298
895.161	21431
895.283	21340
895.405	21252
895.526	21340
895.648	21359
895.769	21454
895.891	21332
896.012	21344
896.134	21393
896.255	21382
896.376	21325
896.498	21340
896.619	21332
896.74	21237
896.861	21389
896.982	21701
897.103	21660
897.224	21443
897.345	21553
897.466	21401
897.587	21466
897.708	21694
897.828	21625
897.949	21431
898.07	21431
898.19	21469
898.311	21603
898.431	21408
898.552	21439
898.672	21568
898.792	21728
898.913	21504
899.033	21515
899.153	21408
899.273	21184
899.393	21245
899.513	21256
899.633	21287
899.753	21256
899.873	21192
899.993	21195
900.113	21203
900.232	21188
900.352	21241
900.472	21036
900.591	20899
900.711	20975
900.83	21036
900.95	21062
901.069	21096
901.189	20746
901.308	20667
901.427	20617
901.546	20549
901.665	20552
901.784	20697
901.904	20415
902.023	20412
902.141	20172
902.26	20012
902.379	20103
902.498	19890
902.617	20027
902.735	20301
902.854	20103
902.973	20054
903.091	19761
903.21	19738
903.328	19712
903.446	19670
903.565	19559
903.683	19548
903.801	19320
903.919	19518
904.038	19548
904.156	19259
904.274	19373
904.392	19190
904.51	19232
904.627	19282
904.745	19324
904.863	19282
904.981	19015
905.098	19027
905.216	18935
905.334	18989
905.451	19050
905.569	18890
905.686	18928
905.803	18882
905.921	18745
906.038	18924
906.155	18642
906.272	18631
906.389	18639
906.506	18536
906.623	18441
906.74	18486
906.857	18407
906.974	18426
907.091	18506
907.208	18593
907.324	18513
907.441	18456
907.557	18197
907.674	18174
907.79	18003
907.907	18194
908.023	18117
908.139	18243
908.256	18038
908.372	18041
908.488	18136
908.604	17923
908.72	17863
908.836	17927
908.952	17821
909.068	17935
909.184	18026
909.3	17870
909.415	17935
909.531	17878
909.647	17566
909.762	17554
909.878	17657
909.993	17608
910.108	17554
910.224	17455
910.339	17524
910.454	17452
910.57	17395
910.685	17273
910.8	17596
910.915	17505
911.03	17429
911.145	17189
911.259	17239
911.374	17239
911.489	17151
911.604	17075
911.718	16915
911.833	16949
911.947	16820
912.062	16687
912.176	16930
912.291	16927
912.405	16934
912.519	17102
912.633	17060
912.748	16965
912.862	16881
912.976	16713
913.09	16592
913.204	16672
913.318	16755
913.431	16812
913.545	16797
913.659	16858
913.772	16653
913.886	16512
914	16508
914.113	16489
914.226	16611
914.34	16531
914.453	16356
914.566	16512
914.68	16371
914.793	16341
914.906	16207
915.019	16074
915.132	15964
915.245	16051
915.358	16071
915.47	16162
915.583	16105
915.696	16051
915.809	16249
915.921	16074
916.034	15968
916.146	15941
916.259	15903
916.371	16021
916.483	15915
916.595	15964
916.708	15880
916.82	15869
916.932	15800
917.044	15892
917.156	15865
917.268	15728
917.38	15762
917.491	15606
917.603	15686
917.715	15789
917.826	15762
917.938	15622
918.049	15481
918.161	15656
918.272	15728
918.384	15629
918.495	15504
918.606	15424
918.717	15469
918.828	15435
918.939	15447
919.05	15428
919.161	15473
919.272	15161
919.383	15264
919.494	15393
919.604	15564
919.715	15473
919.826	15351
919.936	15298
920.047	15405
920.157	15428
920.267	15500
920.378	15469
920.488	15268
920.598	15534
920.708	15679
920.818	15424
920.928	15549
921.038	15663
921.148	15584
921.258	15294
921.368	15199
921.477	15047
921.587	15055
921.697	15039
921.806	15024
921.916	14933
922.025	14758
922.134	14648
922.244	14632
922.353	14682
922.462	14651
922.571	14514
922.68	14454
922.789	14317
922.898	14415
923.007	14377
923.116	14347
923.224	14404
923.333	14278
923.442	14157
923.55	14149
923.659	14252
923.767	14210
923.876	14176
923.984	14107
924.092	14035
924.201	14183
924.309	14065
924.417	14050
924.525	14008
924.633	14035
924.741	14906
924.849	13753
924.956	13955
925.064	13780
925.172	13814
925.279	13742
925.387	13731
925.494	13738
925.602	13723
925.709	13700
925.816	13666
925.924	13666
926.031	13769
926.138	13658
926.245	13753
926.352	13502
926.459	13685
926.566	13753
926.673	13582
926.779	13525
926.886	13445
926.993	13312
927.099	13304
927.206	13175
927.312	13259
927.419	13301
927.525	13240
927.631	13270
927.737	13107
927.843	13103
927.95	12905
928.056	13072
928.162	13061
928.267	13088
928.373	13704
928.479	13084
928.585	12905
928.69	12996
928.796	13004
928.901	12890
929.007	12776
929.112	12935
929.218	12810
929.323	12817
929.428	12768
929.533	12897
929.638	12627
929.743	12730
929.848	12696
929.953	12722
930.058	12555
930.163	12475
930.267	12475
930.372	12684
930.477	12456
930.581	12646
930.685	12517
930.79	12342
930.894	12296
930.998	12300
931.103	12399
931.207	12091
931.311	11980
931.415	11855
931.519	11699
931.623	11646
