Data from test_V78500241_1117.txt Node
Date: Fri Mar 25 15:49:32 CST 2022
User: usil
Spectrometer: V785-0024
Trigger mode: 0
Integration Time (sec): 4.000000E-1
Scans to average: 1
Nonlinearity correction enabled: false
Boxcar width: 0
Storing dark spectrum: false
XAxis mode: Wavelengths
Number of Pixels in Spectrum: 1024
>>>>>Begin Spectral Data<<<<<
801.071	28265
801.214	28284
801.356	28204
801.499	28078
801.641	27914
801.783	27941
801.926	28059
802.068	28002
802.211	27964
802.353	27903
802.496	27728
802.638	27610
802.78	27698
802.923	27652
803.065	27637
803.208	27561
803.35	27644
803.492	27774
803.635	27793
803.777	27720
803.919	27949
804.061	28238
804.204	27907
804.346	27667
804.488	27838
804.63	27819
804.773	27823
804.915	27869
805.057	27903
805.199	27895
805.341	28120
805.483	28147
805.626	28002
805.768	27998
805.91	27983
806.052	28032
806.194	27907
806.336	28265
806.478	27994
806.62	28112
806.762	28143
806.904	28249
807.046	28641
807.188	28561
807.33	28546
807.472	28462
807.614	28386
807.756	28459
807.898	28398
808.04	28291
808.182	28363
808.324	28318
808.465	28352
808.607	28493
808.749	28702
808.891	28790
809.033	28900
809.174	28622
809.316	28755
809.458	28858
809.6	28694
809.741	28850
809.883	28877
810.025	29151
810.166	28942
810.308	29140
810.45	29003
810.591	28744
810.733	28664
810.875	28672
811.016	28554
811.158	28592
811.299	28774
811.441	28896
811.582	29018
811.724	28691
811.865	28748
812.007	28698
812.148	28763
812.29	28637
812.431	28824
812.573	29006
812.714	29151
812.855	29254
812.997	29284
813.138	29528
813.279	29379
813.421	29330
813.562	29151
813.703	28946
813.845	28961
813.986	28683
814.127	28470
814.268	28398
814.41	28504
814.551	28447
814.692	28588
814.833	28611
814.974	28421
815.115	28542
815.256	28348
815.397	28337
815.539	28500
815.68	28166
815.821	28158
815.962	28093
816.103	28234
816.244	28105
816.385	28025
816.526	27998
816.666	27865
816.807	27854
816.948	27736
817.089	27774
817.23	27583
817.371	27812
817.512	27690
817.653	27827
817.793	27595
817.934	27819
818.075	27819
818.216	27743
818.356	27835
818.497	27496
818.638	27519
818.778	27686
818.919	27496
819.06	27583
819.2	27690
819.341	27793
819.481	27926
819.622	27876
819.762	28200
819.903	28074
820.043	27941
820.184	28010
820.324	27960
820.465	27956
820.605	27895
820.746	27755
820.886	27720
821.026	27956
821.167	27812
821.307	27960
821.447	27774
821.588	27705
821.728	27568
821.868	27313
822.008	27161
822.149	27275
822.289	27291
822.429	27116
822.569	26921
822.709	26891
822.849	26735
822.99	26823
823.13	26678
823.27	26712
823.41	26495
823.55	26431
823.69	26583
823.83	26575
823.97	26549
824.11	26393
824.25	26290
824.389	26385
824.529	26473
824.669	26366
824.809	26507
824.949	26476
825.089	26511
825.228	26343
825.368	26358
825.508	26317
825.648	26336
825.787	26256
825.927	26286
826.067	26377
826.206	26240
826.346	26275
826.485	26320
826.625	26328
826.765	26404
826.904	26324
827.044	26020
827.183	26062
827.323	25936
827.462	25978
827.601	26187
827.741	25974
827.88	25963
828.02	25772
828.159	25963
828.298	25928
828.437	26187
828.577	26039
828.716	26096
828.855	25993
828.994	25769
829.134	25868
829.273	25860
829.412	25780
829.551	25518
829.69	25830
829.829	25746
829.968	25753
830.107	25693
830.246	25670
830.385	25681
830.524	25571
830.663	25506
830.802	25479
830.941	25369
831.08	25381
831.219	25449
831.357	25369
831.496	25502
831.635	25441
831.774	25255
831.913	25110
832.051	25122
832.19	25053
832.329	25187
832.467	25065
832.606	24863
832.744	24943
832.883	25080
833.022	24894
833.16	24970
833.299	25000
833.437	25099
833.576	25004
833.714	25008
833.852	25008
833.991	25012
834.129	25156
834.267	25015
834.406	25023
834.544	25031
834.682	24951
834.821	25038
834.959	25076
835.097	25012
835.235	25126
835.373	24996
835.511	24970
835.65	24867
835.788	24928
835.926	24821
836.064	24783
836.202	24749
836.34	24844
836.478	24966
836.615	24852
836.753	24840
836.891	24924
837.029	24852
837.167	24878
837.305	24821
837.443	24791
837.58	24711
837.718	24833
837.856	24646
837.993	24810
838.131	24734
838.269	24635
838.406	24620
838.544	24452
838.681	24338
838.819	24186
838.956	24186
839.094	24110
839.231	24281
839.369	24254
839.506	24407
839.643	24365
839.781	24194
839.918	24064
840.055	24247
840.193	24102
840.33	24190
840.467	24030
840.604	24114
840.742	24311
840.879	23950
841.016	24087
841.153	23920
841.29	24114
841.427	24079
841.564	24095
841.701	24015
841.838	24041
841.975	23950
842.112	23939
842.249	23786
842.385	23855
842.522	24079
842.659	23904
842.796	23764
842.933	23817
843.069	23767
843.206	23726
843.343	23954
843.479	23726
843.616	23855
843.752	23638
843.889	23653
844.025	23745
844.162	23570
844.298	23710
844.435	23627
844.571	23501
844.708	23672
844.844	23786
844.98	23859
845.117	23737
845.253	23592
845.389	23455
845.525	23436
845.661	23471
845.798	23334
845.934	23383
846.07	23280
846.206	23345
846.342	23474
846.478	23288
846.614	23277
846.75	23071
846.886	23064
847.022	23090
847.158	23022
847.294	22953
847.429	23018
847.565	23064
847.701	23250
847.837	22869
847.972	22672
848.108	22934
848.244	22831
848.379	22618
848.515	22535
848.65	22645
848.786	22736
848.921	22649
849.057	22858
849.192	22603
849.328	22706
849.463	22637
849.598	22615
849.734	22565
849.869	22481
850.004	22428
850.14	22462
850.275	22417
850.41	22303
850.545	22367
850.68	22337
850.815	22424
850.95	22314
851.085	22474
851.22	22474
851.355	22504
851.49	22504
851.625	22291
851.76	22402
851.895	22211
852.03	22341
852.165	22413
852.299	22436
852.434	22436
852.569	22443
852.703	22428
852.838	22478
852.973	22470
853.107	22588
853.242	22287
853.376	22246
853.511	22090
853.645	22265
853.78	22363
853.914	22188
854.048	22143
854.183	22207
854.317	22287
854.451	22459
854.585	22124
854.72	22177
854.854	22356
854.988	22166
855.122	22268
855.256	22105
855.39	22112
855.524	22382
855.658	22173
855.792	22257
855.926	22109
856.06	22253
856.194	22291
856.327	22105
856.461	22131
856.595	22109
856.729	22257
856.862	22249
856.996	22363
857.13	22242
857.263	22265
857.397	22314
857.53	22382
857.664	22246
857.797	22268
857.931	22268
858.064	22204
858.197	22337
858.331	22249
858.464	22188
858.597	22105
858.731	22287
858.864	22109
858.997	22143
859.13	22200
859.263	22158
859.396	22272
859.529	22223
859.662	22204
859.795	22006
859.928	22215
860.061	22322
860.194	22542
860.327	22322
860.46	22265
860.592	22306
860.725	22367
860.858	22443
860.99	22280
861.123	22090
861.256	22211
861.388	22268
861.521	22976
861.653	22105
861.786	22021
861.918	21960
862.05	22044
862.183	22067
862.315	22105
862.447	22268
862.58	22139
862.712	21892
862.844	21812
862.976	21968
863.108	22013
863.24	22440
863.372	21880
863.504	21869
863.636	21888
863.768	21903
863.9	21956
864.032	21816
864.164	21842
864.296	21918
864.428	22029
864.559	22013
864.691	21915
864.823	21892
864.954	21945
865.086	21892
865.217	21876
865.349	21789
865.48	21884
865.612	21812
865.743	21907
865.875	21800
866.006	21812
866.137	21903
866.269	21831
866.4	21770
866.531	21622
866.662	21667
866.793	21751
866.924	21709
867.055	21770
867.186	21713
867.317	21797
867.448	21644
867.579	21701
867.71	21690
867.841	21724
867.972	21747
868.103	21671
868.233	21778
868.364	21781
868.495	21747
868.625	21918
868.756	22177
868.886	21869
869.017	21964
869.147	22074
869.278	22124
869.408	22006
869.539	21945
869.669	22090
869.799	22051
869.929	22166
870.06	22135
870.19	22219
870.32	22261
870.45	22306
870.58	22413
870.71	22443
870.84	22344
870.97	22306
871.1	22421
871.23	22569
871.36	22538
871.489	22413
871.619	22596
871.749	22504
871.879	22565
872.008	22649
872.138	22630
872.267	22641
872.397	22436
872.526	22398
872.656	22341
872.785	22402
872.915	22508
873.044	22637
873.173	22634
873.303	22592
873.432	22538
873.561	22672
873.69	22672
873.819	22557
873.948	22649
874.077	22554
874.206	22516
874.335	22584
874.464	22710
874.593	22835
874.722	22717
874.851	22820
874.979	22824
875.108	22957
875.237	22702
875.365	22687
875.494	22683
875.623	22801
875.751	22835
875.88	22900
876.008	22946
876.136	22938
876.265	23098
876.393	23395
876.521	23326
876.65	23208
876.778	23079
876.906	23098
877.034	23121
877.162	23025
877.29	23094
877.418	23155
877.546	23143
877.674	22995
877.802	23166
877.93	23083
878.058	23105
878.185	23014
878.313	23128
878.441	23105
878.568	22896
878.696	22995
878.824	23200
878.951	23090
879.079	23185
879.206	23353
879.333	23250
879.461	23155
879.588	23246
879.715	23364
879.842	23364
879.97	23273
880.097	22934
880.224	22938
880.351	23014
880.478	23155
880.605	22961
880.732	22961
880.859	23193
880.986	22976
881.112	22942
881.239	22839
881.366	22649
881.493	22645
881.619	22611
881.746	22485
881.872	22557
881.999	22527
882.125	22386
882.252	22561
882.378	22531
882.505	22584
882.631	22478
882.757	22185
882.883	22158
883.01	22188
883.136	22120
883.262	22067
883.388	21998
883.514	22246
883.64	22333
883.766	22223
883.892	21960
884.018	22021
884.143	22078
884.269	22211
884.395	21846
884.52	21751
884.646	21774
884.772	21823
884.897	21629
885.023	21835
885.148	21888
885.274	21915
885.399	21937
885.524	21876
885.65	21895
885.775	21793
885.9	21781
886.025	21949
886.15	21732
886.275	21743
886.4	21743
886.525	21793
886.65	21739
886.775	21591
886.9	21953
887.025	22013
887.149	21785
887.274	21656
887.399	21542
887.523	21618
887.648	21549
887.773	21561
887.897	21648
888.021	21644
888.146	21492
888.27	21694
888.395	21720
888.519	21549
888.643	21637
888.767	21641
888.891	21405
889.015	21329
889.139	21557
889.263	21294
889.387	21481
889.511	21538
889.635	21519
889.759	21294
889.883	21321
890.006	21382
890.13	21473
890.254	21367
890.377	21367
890.501	21154
890.624	21112
890.748	21237
890.871	20994
890.995	21047
891.118	20891
891.241	20937
891.364	21055
891.488	20986
891.611	20910
891.734	20891
891.857	20960
891.98	20925
892.103	20979
892.226	20944
892.349	20933
892.471	20773
892.594	20925
892.717	20914
892.839	20845
892.962	20891
893.085	20842
893.207	20853
893.33	20746
893.452	20724
893.575	20743
893.697	20693
893.819	20956
893.941	21039
894.064	20986
894.186	20712
894.308	20708
894.43	20944
894.552	21119
894.674	20864
894.796	20743
894.918	20765
895.04	20773
895.161	20864
895.283	20758
895.405	20785
895.526	20743
895.648	20842
895.769	20815
895.891	20891
896.012	20921
896.134	20777
896.255	20697
896.376	20746
896.498	20872
896.619	20906
896.74	20735
896.861	20861
896.982	21081
897.103	21302
897.224	21024
897.345	20960
897.466	21020
897.587	21055
897.708	21081
897.828	21100
897.949	21127
898.07	20826
898.19	20986
898.311	21123
898.431	20899
898.552	21085
898.672	21108
898.792	21062
898.913	21058
899.033	20895
899.153	20819
899.273	20659
899.393	20762
899.513	20842
899.633	20796
899.753	20819
899.873	20621
899.993	20804
900.113	20655
900.232	20705
900.352	20609
900.472	20629
900.591	20457
900.711	20461
900.83	20480
900.95	20583
901.069	20678
901.189	20370
901.308	20145
901.427	20122
901.546	20237
901.665	20107
901.784	20050
901.904	19970
902.023	19902
902.141	19647
902.26	19658
902.379	19655
902.498	19700
902.617	19624
902.735	19605
902.854	19464
902.973	19552
903.091	19217
903.21	19206
903.328	19270
903.446	19118
903.565	19034
903.683	19057
903.801	19069
903.919	19027
904.038	18894
904.156	18875
904.274	18958
904.392	18852
904.51	18825
904.627	18779
904.745	18886
904.863	18863
904.981	18585
905.098	18460
905.216	18525
905.334	18525
905.451	18490
905.569	18437
905.686	18513
905.803	18483
905.921	18251
906.038	18342
906.155	18315
906.272	18155
906.389	18197
906.506	17904
906.623	18038
906.74	18015
906.857	17859
906.974	17889
907.091	18140
907.208	18186
907.324	18030
907.441	17935
907.557	17756
907.674	17764
907.79	17756
907.907	17638
908.023	17623
908.139	17752
908.256	17661
908.372	17577
908.488	17611
908.604	17486
908.72	17497
908.836	17425
908.952	17391
909.068	17337
909.184	17543
909.3	17448
909.415	17395
909.531	17318
909.647	17181
909.762	17185
909.878	17071
909.993	17174
910.108	17143
910.224	17113
910.339	17208
910.454	16946
910.57	16919
910.685	16869
910.8	17147
910.915	17033
911.03	16934
911.145	16820
911.259	16797
911.374	16672
911.489	16660
911.604	16687
911.718	16409
911.833	16542
911.947	16561
912.062	16356
912.176	16485
912.291	16440
912.405	16573
912.519	16660
912.633	16603
912.748	16390
912.862	16459
912.976	16257
913.09	16276
913.204	16344
913.318	16257
913.431	16333
913.545	16272
913.659	16367
913.772	16200
913.886	16097
914	15998
914.113	16143
914.226	16074
914.34	16173
914.453	15994
914.566	16040
914.68	15892
914.793	16006
914.906	15755
915.019	15679
915.132	15633
915.245	15648
915.358	15641
915.47	15656
915.583	15606
915.696	15713
915.809	15709
915.921	15709
916.034	15530
916.146	15587
916.259	15587
916.371	15595
916.483	15606
916.595	15481
916.708	15454
916.82	15504
916.932	15481
917.044	15435
917.156	15526
917.268	15325
917.38	15370
917.491	15279
917.603	15275
917.715	15359
917.826	15344
917.938	15199
918.049	15100
918.161	15218
918.272	15450
918.384	15321
918.495	15131
918.606	15070
918.717	14929
918.828	15100
918.939	15089
919.05	15020
919.161	14952
919.272	14895
919.383	14880
919.494	15055
919.604	15222
919.715	15055
919.826	14941
919.936	15039
920.047	15043
920.157	15020
920.267	15207
920.378	15047
920.488	14986
920.598	15142
920.708	15241
920.818	15081
920.928	15085
921.038	15298
921.148	15256
921.258	14929
921.368	14891
921.477	14674
921.587	14610
921.697	14549
921.806	14708
921.916	14511
922.025	14404
922.134	14408
922.244	14313
922.353	14355
922.462	14259
922.571	14210
922.68	14008
922.789	13951
922.898	14016
923.007	13989
923.116	13944
923.224	14020
923.333	13928
923.442	13814
923.55	13765
923.659	13811
923.767	13909
923.876	13738
923.984	13700
924.092	13738
924.201	13826
924.309	13769
924.417	13750
924.525	13685
924.633	13636
924.741	14404
924.849	13327
924.956	13597
925.064	13407
925.172	13362
925.279	13403
925.387	13476
925.494	13422
925.602	13559
925.709	13464
925.816	13263
925.924	13365
926.031	13411
926.138	13335
926.245	13324
926.352	13251
926.459	13308
926.566	13369
926.673	13209
926.779	13198
926.886	13038
926.993	13080
927.099	12951
927.206	12875
927.312	12821
927.419	13000
927.525	12928
927.631	12985
927.737	12810
927.843	12787
927.95	12669
928.056	12726
928.162	12783
928.267	12833
928.373	13293
928.479	12833
928.585	12578
928.69	12684
928.796	12715
928.901	12578
929.007	12426
929.112	12623
929.218	12494
929.323	12494
929.428	12502
929.533	12601
929.638	12475
929.743	12521
929.848	12460
929.953	12479
930.058	12308
930.163	12155
930.267	12155
930.372	12296
930.477	12136
930.581	12334
930.685	12243
930.79	11969
930.894	12019
930.998	12030
931.103	12079
931.207	11767
931.311	11672
931.415	11611
931.519	11356
931.623	11364
