Data from test_V78500241_911.txt Node
Date: Fri Mar 25 15:48:06 CST 2022
User: usil
Spectrometer: V785-0024
Trigger mode: 0
Integration Time (sec): 4.000000E-1
Scans to average: 1
Nonlinearity correction enabled: false
Boxcar width: 0
Storing dark spectrum: false
XAxis mode: Wavelengths
Number of Pixels in Spectrum: 1024
>>>>>Begin Spectral Data<<<<<
801.071	28230
801.214	28139
801.356	27994
801.499	27857
801.641	27838
801.783	27755
801.926	27823
802.068	27797
802.211	27755
802.353	27564
802.496	27583
802.638	27488
802.78	27553
802.923	27378
803.065	27408
803.208	27359
803.35	27466
803.492	27618
803.635	27557
803.777	27614
803.919	27583
804.061	28074
804.204	27800
804.346	27667
804.488	27519
804.63	27572
804.773	27557
804.915	27641
805.057	27804
805.199	27526
805.341	27857
805.483	27713
805.626	27789
805.768	27644
805.91	27724
806.052	27804
806.194	27622
806.336	27998
806.478	27861
806.62	27705
806.762	28006
806.904	28070
807.046	28238
807.188	28333
807.33	28234
807.472	28401
807.614	28166
807.756	28314
807.898	28215
808.04	28116
808.182	28082
808.324	28139
808.465	28188
808.607	28432
808.749	28455
808.891	28451
809.033	28645
809.174	28546
809.316	28474
809.458	28398
809.6	28443
809.741	28603
809.883	28713
810.025	28744
810.166	28816
810.308	28824
810.45	28816
810.591	28721
810.733	28493
810.875	28500
811.016	28375
811.158	28386
811.299	28607
811.441	28672
811.582	28653
811.724	28489
811.865	28459
812.007	28417
812.148	28508
812.29	28634
812.431	28634
812.573	28881
812.714	28968
812.855	29022
812.997	29048
813.138	29303
813.279	29212
813.421	29003
813.562	28938
813.703	28778
813.845	28565
813.986	28459
814.127	28306
814.268	28257
814.41	28242
814.551	28147
814.692	28242
814.833	28116
814.974	28143
815.115	28299
815.256	28070
815.397	28211
815.539	27994
815.68	28010
815.821	27911
815.962	28021
816.103	28013
816.244	27937
816.385	27789
816.526	27827
816.666	27652
816.807	27504
816.948	27660
817.089	27682
817.23	27374
817.371	27576
817.512	27618
817.653	27572
817.793	27313
817.934	27523
818.075	27542
818.216	27538
818.356	27568
818.497	27408
818.638	27142
818.778	27340
818.919	27348
819.06	27211
819.2	27553
819.341	27542
819.481	27530
819.622	27625
819.762	27941
819.903	27606
820.043	27724
820.184	27599
820.324	27576
820.465	27728
820.605	27614
820.746	27561
820.886	27492
821.026	27625
821.167	27557
821.307	27736
821.447	27614
821.588	27492
821.728	27279
821.868	27085
822.008	27116
822.149	26990
822.289	26952
822.429	26640
822.569	26655
822.709	26720
822.849	26541
822.99	26625
823.13	26541
823.27	26473
823.41	26294
823.55	26294
823.69	26278
823.83	26499
823.97	26294
824.11	26240
824.25	26161
824.389	26202
824.529	26229
824.669	26161
824.809	26473
824.949	26214
825.089	26237
825.228	26195
825.368	25993
825.508	26043
825.648	25887
825.787	26180
825.927	26138
826.067	26020
826.206	26142
826.346	26084
826.485	26039
826.625	26046
826.765	26157
826.904	26039
827.044	25738
827.183	25776
827.323	25719
827.462	25856
827.601	25917
827.741	25818
827.88	25883
828.02	25655
828.159	25906
828.298	25795
828.437	25849
828.577	25658
828.716	25887
828.855	25628
828.994	25346
829.134	25419
829.273	25491
829.412	25457
829.551	25320
829.69	25415
829.829	25510
829.968	25537
830.107	25605
830.246	25506
830.385	25483
830.524	25419
830.663	25324
830.802	25129
830.941	25023
831.08	24947
831.219	25145
831.357	25145
831.496	25274
831.635	25027
831.774	24939
831.913	24905
832.051	24867
832.19	24867
832.329	24875
832.467	24817
832.606	24707
832.744	24669
832.883	24745
833.022	24631
833.16	24802
833.299	24837
833.437	24700
833.576	24703
833.714	24783
833.852	25012
833.991	24760
834.129	24817
834.267	24954
834.406	24798
834.544	24890
834.682	24772
834.821	24863
834.959	24954
835.097	24639
835.235	24810
835.373	24673
835.511	24646
835.65	24661
835.788	24684
835.926	24407
836.064	24483
836.202	24414
836.34	24646
836.478	24700
836.615	24654
836.753	24589
836.891	24760
837.029	24525
837.167	24418
837.305	24532
837.443	24559
837.58	24475
837.718	24570
837.856	24403
837.993	24346
838.131	24448
838.269	24342
838.406	24407
838.544	24209
838.681	24171
838.819	24114
838.956	23882
839.094	23996
839.231	23912
839.369	24072
839.506	24365
839.643	24155
839.781	23942
839.918	23767
840.055	23965
840.193	23775
840.33	23893
840.467	23897
840.604	23901
840.742	24224
840.879	23851
841.016	23703
841.153	23691
841.29	23859
841.427	23878
841.564	23783
841.701	23767
841.838	23775
841.975	23718
842.112	23813
842.249	23608
842.385	23608
842.522	23836
842.659	23646
842.796	23634
842.933	23490
843.069	23520
843.206	23467
843.343	23676
843.479	23524
843.616	23630
843.752	23288
843.889	23395
844.025	23433
844.162	23353
844.298	23608
844.435	23383
844.571	23254
844.708	23402
844.844	23486
844.98	23482
845.117	23402
845.253	23265
845.389	23250
845.525	23303
845.661	23105
845.798	23056
845.934	23140
846.07	23010
846.206	23204
846.342	23121
846.478	23056
846.614	22965
846.75	22816
846.886	22774
847.022	22862
847.158	22873
847.294	22885
847.429	22744
847.565	22721
847.701	23105
847.837	22527
847.972	22542
848.108	22550
848.244	22634
848.379	22535
848.515	22508
848.65	22432
848.786	22234
848.921	22428
849.057	22493
849.192	22535
849.328	22554
849.463	22531
849.598	22352
849.734	22329
849.869	22242
850.004	22002
850.14	22181
850.275	22143
850.41	22082
850.545	22120
850.68	22082
850.815	22215
850.95	22124
851.085	22337
851.22	22230
851.355	22257
851.49	22131
851.625	22150
851.76	22112
851.895	22090
852.03	22055
852.165	22219
852.299	22219
852.434	22207
852.569	22230
852.703	22192
852.838	22238
852.973	22318
853.107	22204
853.242	22192
853.376	22006
853.511	21926
853.645	21979
853.78	22002
853.914	21983
854.048	22070
854.183	21975
854.317	21945
854.451	22192
854.585	21922
854.72	21926
854.854	21968
854.988	21743
855.122	21960
855.256	21808
855.39	21953
855.524	22082
855.658	21945
855.792	21918
855.926	21926
856.06	22059
856.194	22036
856.327	21960
856.461	22010
856.595	21907
856.729	21960
856.862	22097
856.996	22010
857.13	22078
857.263	22147
857.397	22017
857.53	21876
857.664	22025
857.797	22109
857.931	22128
858.064	22067
858.197	22135
858.331	21975
858.464	21941
858.597	21808
858.731	21861
858.864	21884
858.997	22029
859.13	22051
859.263	21968
859.396	21979
859.529	22010
859.662	21945
859.795	21937
859.928	22013
860.061	22082
860.194	22207
860.327	22082
860.46	21998
860.592	22067
860.725	22188
860.858	22116
860.99	22040
861.123	21991
861.256	21972
861.388	21964
861.521	22698
861.653	21895
861.786	21770
861.918	21808
862.05	21918
862.183	21922
862.315	21854
862.447	21964
862.58	21819
862.712	21587
862.844	21564
862.976	21751
863.108	21652
863.24	22082
863.372	21755
863.504	21808
863.636	21648
863.768	21633
863.9	21705
864.032	21629
864.164	21591
864.296	21713
864.428	21797
864.559	21770
864.691	21701
864.823	21762
864.954	21720
865.086	21622
865.217	21515
865.349	21454
865.48	21538
865.612	21682
865.743	21751
865.875	21686
866.006	21526
866.137	21481
866.269	21603
866.4	21595
866.531	21496
866.662	21507
866.793	21477
866.924	21523
867.055	21568
867.186	21496
867.317	21401
867.448	21466
867.579	21599
867.71	21405
867.841	21412
867.972	21625
868.103	21458
868.233	21435
868.364	21454
868.495	21610
868.625	21762
868.756	21861
868.886	21667
869.017	21660
869.147	21804
869.278	21770
869.408	21964
869.539	21709
869.669	21835
869.799	21797
869.929	21774
870.06	21880
870.19	22093
870.32	21968
870.45	22112
870.58	22196
870.71	22249
870.84	22253
870.97	22082
871.1	22226
871.23	22272
871.36	22318
871.489	22291
871.619	22344
871.749	22371
871.879	22371
872.008	22421
872.138	22287
872.267	22272
872.397	22295
872.526	22173
872.656	22230
872.785	22124
872.915	22352
873.044	22443
873.173	22394
873.303	22363
873.432	22455
873.561	22474
873.69	22413
873.819	22268
873.948	22459
874.077	22485
874.206	22268
874.335	22325
874.464	22390
874.593	22565
874.722	22641
874.851	22554
874.979	22649
875.108	22561
875.237	22459
875.365	22428
875.494	22512
875.623	22645
875.751	22630
875.88	22637
876.008	22691
876.136	22637
876.265	22965
876.393	23033
876.521	23037
876.65	23003
876.778	22957
876.906	22889
877.034	22824
877.162	22927
877.29	22816
877.418	22949
877.546	22949
877.674	22866
877.802	22892
877.93	22809
878.058	22820
878.185	22733
878.313	22900
878.441	22809
878.568	22801
878.696	22820
878.824	22927
878.951	23064
879.079	23060
879.206	23181
879.333	23006
879.461	22919
879.588	22968
879.715	23086
879.842	23239
879.97	22934
880.097	22793
880.224	22759
880.351	22694
880.478	22687
880.605	22691
880.732	22725
880.859	23041
880.986	22748
881.112	22645
881.239	22630
881.366	22409
881.493	22360
881.619	22386
881.746	22329
881.872	22284
881.999	22207
882.125	22135
882.252	22303
882.378	22318
882.505	22360
882.631	22154
882.757	22021
882.883	22010
883.01	22025
883.136	21876
883.262	21846
883.388	21739
883.514	22051
883.64	21968
883.766	21907
883.892	21835
884.018	21816
884.143	21964
884.269	21979
884.395	21675
884.52	21538
884.646	21572
884.772	21591
884.897	21340
885.023	21720
885.148	21762
885.274	21785
885.399	21759
885.524	21622
885.65	21743
885.775	21629
885.9	21583
886.025	21804
886.15	21679
886.275	21587
886.4	21564
886.525	21660
886.65	21530
886.775	21519
886.9	21739
887.025	21884
887.149	21622
887.274	21408
887.399	21408
887.523	21443
887.648	21420
887.773	21214
887.897	21515
888.021	21386
888.146	21336
888.27	21507
888.395	21370
888.519	21523
888.643	21473
888.767	21424
888.891	21264
889.015	21184
889.139	21100
889.263	21264
889.387	21283
889.511	21268
889.635	21287
889.759	21093
889.883	21138
890.006	21211
890.13	21199
890.254	21116
890.377	21085
890.501	20902
890.624	20910
890.748	20933
890.871	20883
890.995	20796
891.118	20735
891.241	20788
891.364	20777
891.488	20826
891.611	20724
891.734	20716
891.857	20811
891.98	20682
892.103	20739
892.226	20689
892.349	20640
892.471	20579
892.594	20697
892.717	20663
892.839	20644
892.962	20743
893.085	20708
893.207	20583
893.33	20678
893.452	20678
893.575	20765
893.697	20488
893.819	20731
893.941	20902
894.064	20788
894.186	20682
894.308	20537
894.43	20758
894.552	20830
894.674	20518
894.796	20568
894.918	20602
895.04	20644
895.161	20682
895.283	20686
895.405	20651
895.526	20678
895.648	20606
895.769	20579
895.891	20651
896.012	20853
896.134	20720
896.255	20636
896.376	20514
896.498	20648
896.619	20712
896.74	20575
896.861	20598
896.982	20979
897.103	21024
897.224	20925
897.345	20853
897.466	20758
897.587	20838
897.708	20906
897.828	20880
897.949	20838
898.07	20659
898.19	20739
898.311	20849
898.431	20830
898.552	20861
898.672	20929
898.792	20937
898.913	20701
899.033	20655
899.153	20541
899.273	20606
899.393	20609
899.513	20632
899.633	20571
899.753	20655
899.873	20530
899.993	20533
900.113	20499
900.232	20594
900.352	20499
900.472	20446
900.591	20286
900.711	20328
900.83	20252
900.95	20400
901.069	20351
901.189	20256
901.308	19959
901.427	19856
901.546	19978
901.665	20043
901.784	19959
901.904	19803
902.023	19685
902.141	19518
902.26	19491
902.379	19578
902.498	19343
902.617	19354
902.735	19422
902.854	19487
902.973	19407
903.091	19175
903.21	19114
903.328	18954
903.446	18905
903.565	18947
903.683	18935
903.801	18852
903.919	18848
904.038	18795
904.156	18681
904.274	18787
904.392	18593
904.51	18654
904.627	18620
904.745	18707
904.863	18639
904.981	18460
905.098	18422
905.216	18228
905.334	18403
905.451	18319
905.569	18330
905.686	18330
905.803	18315
905.921	18026
906.038	18178
906.155	18106
906.272	18098
906.389	18106
906.506	17946
906.623	17870
906.74	17836
906.857	17714
906.974	17779
907.091	17897
907.208	17999
907.324	17927
907.441	17680
907.557	17604
907.674	17532
907.79	17539
907.907	17512
908.023	17592
908.139	17505
908.256	17581
908.372	17463
908.488	17516
908.604	17311
908.72	17185
908.836	17315
908.952	17250
909.068	17315
909.184	17436
909.3	17292
909.415	17307
909.531	17296
909.647	16976
909.762	16961
909.878	16972
909.993	16942
910.108	16873
910.224	16934
910.339	16984
910.454	16805
910.57	16847
910.685	16580
910.8	16930
910.915	16862
911.03	16839
911.145	16698
911.259	16573
911.374	16611
911.489	16516
911.604	16375
911.718	16226
911.833	16432
911.947	16219
912.062	16169
912.176	16306
912.291	16318
912.405	16352
912.519	16481
912.633	16580
912.748	16325
912.862	16268
912.976	16044
913.09	16116
913.204	16040
913.318	16116
913.431	16181
913.545	16226
913.659	16135
913.772	16013
913.886	15922
914	16029
914.113	16021
914.226	16002
914.34	15975
914.453	15865
914.566	15869
914.68	15759
914.793	15759
914.906	15587
915.019	15462
915.132	15458
915.245	15507
915.358	15454
915.47	15519
915.583	15439
915.696	15591
915.809	15633
915.921	15564
916.034	15431
916.146	15382
916.259	15382
916.371	15466
916.483	15488
916.595	15325
916.708	15389
916.82	15351
916.932	15302
917.044	15329
917.156	15291
917.268	15184
917.38	15138
917.491	15146
917.603	15249
917.715	15233
917.826	15279
917.938	15051
918.049	14952
918.161	15173
918.272	15184
918.384	15211
918.495	15062
918.606	14960
918.717	14887
918.828	15020
918.939	14982
919.05	14872
919.161	14853
919.272	14819
919.383	14720
919.494	14971
919.604	15058
919.715	14887
919.826	14845
919.936	14804
920.047	14986
920.157	14864
920.267	15081
920.378	14861
920.488	14880
920.598	15028
920.708	15131
920.818	15135
920.928	14910
921.038	15131
921.148	15081
921.258	14769
921.368	14758
921.477	14678
921.587	14697
921.697	14552
921.806	14640
921.916	14427
922.025	14298
922.134	14210
922.244	14100
922.353	14298
922.462	14084
922.571	14035
922.68	13898
922.789	13807
922.898	13864
923.007	13818
923.116	13913
923.224	13803
923.333	13887
923.442	13753
923.55	13674
923.659	13753
923.767	13753
923.876	13658
923.984	13651
924.092	13590
924.201	13639
924.309	13582
924.417	13620
924.525	13529
924.633	13540
924.741	14404
924.849	13354
924.956	13445
925.064	13365
925.172	13362
925.279	13266
925.387	13354
925.494	13293
925.602	13339
925.709	13285
925.816	13164
925.924	13221
926.031	13266
926.138	13118
926.245	13202
926.352	13107
926.459	13247
926.566	13244
926.673	13145
926.779	13057
926.886	12878
926.993	12852
927.099	12878
927.206	12791
927.312	12825
927.419	12882
927.525	12760
927.631	12833
927.737	12642
927.843	12646
927.95	12544
928.056	12642
928.162	12677
928.267	12658
928.373	13274
928.479	12696
928.585	12460
928.69	12623
928.796	12639
928.901	12418
929.007	12399
929.112	12464
929.218	12403
929.323	12399
929.428	12357
929.533	12502
929.638	12262
929.743	12209
929.848	12372
929.953	12251
930.058	12144
930.163	11927
930.267	12079
930.372	12140
930.477	12038
930.581	12159
930.685	12098
930.79	11878
930.894	11965
930.998	11863
931.103	12022
931.207	11722
931.311	11573
931.415	11493
931.519	11345
931.623	11204
