Data from test_V78500241_3548.txt Node
Date: Fri Mar 25 16:06:22 CST 2022
User: usil
Spectrometer: V785-0024
Trigger mode: 0
Integration Time (sec): 4.000000E-1
Scans to average: 1
Nonlinearity correction enabled: false
Boxcar width: 0
Storing dark spectrum: false
XAxis mode: Wavelengths
Number of Pixels in Spectrum: 1024
>>>>>Begin Spectral Data<<<<<
801.071	28927
801.214	28824
801.356	28748
801.499	28694
801.641	28470
801.783	28569
801.926	28637
802.068	28542
802.211	28375
802.353	28401
802.496	28268
802.638	28196
802.78	28196
802.923	28177
803.065	28211
803.208	28177
803.35	28417
803.492	28276
803.635	28569
803.777	28200
803.919	28447
804.061	28824
804.204	28527
804.346	28432
804.488	28310
804.63	28394
804.773	28310
804.915	28550
805.057	28432
805.199	28489
805.341	28546
805.483	28421
805.626	28466
805.768	28668
805.91	28607
806.052	28721
806.194	28546
806.336	28877
806.478	28626
806.62	28554
806.762	28774
806.904	28774
807.046	29204
807.188	29079
807.33	29151
807.472	29197
807.614	28965
807.756	29010
807.898	28873
808.04	28934
808.182	28812
808.324	29010
808.465	28900
808.607	29261
808.749	29299
808.891	29402
809.033	29524
809.174	29356
809.316	29322
809.458	29326
809.6	29379
809.741	29444
809.883	29490
810.025	29600
810.166	29722
810.308	29554
810.45	29516
810.591	29490
810.733	29448
810.875	29410
811.016	29471
811.158	29345
811.299	29372
811.441	29539
811.582	29482
811.724	29337
811.865	29299
812.007	29467
812.148	29436
812.29	29444
812.431	29497
812.573	29619
812.714	29790
812.855	29969
812.997	29897
813.138	30079
813.279	30041
813.421	29764
813.562	29794
813.703	29786
813.845	29619
813.986	29242
814.127	29231
814.268	29189
814.41	29193
814.551	29010
814.692	29166
814.833	29113
814.974	29048
815.115	29143
815.256	28949
815.397	28915
815.539	28946
815.68	28881
815.821	28809
815.962	29064
816.103	28923
816.244	28740
816.385	28736
816.526	28717
816.666	28253
816.807	28375
816.948	28409
817.089	28596
817.23	28348
817.371	28318
817.512	28401
817.653	28470
817.793	28382
817.934	28257
818.075	28371
818.216	28371
818.356	28325
818.497	28314
818.638	28249
818.778	28162
818.919	28196
819.06	28265
819.2	28344
819.341	28432
819.481	28287
819.622	28550
819.762	28782
819.903	28736
820.043	28607
820.184	28436
820.324	28538
820.465	28535
820.605	28569
820.746	28516
820.886	28394
821.026	28531
821.167	28584
821.307	28577
821.447	28516
821.588	28379
821.728	28268
821.868	28017
822.008	27854
822.149	27949
822.289	27953
822.429	27660
822.569	27564
822.709	27481
822.849	27443
822.99	27325
823.13	27393
823.27	27226
823.41	27367
823.55	27173
823.69	27180
823.83	27256
823.97	27176
824.11	27123
824.25	27146
824.389	27112
824.529	27116
824.669	27081
824.809	26963
824.949	27123
825.089	27104
825.228	27237
825.368	26960
825.508	26792
825.648	26975
825.787	26857
825.927	26895
826.067	27028
826.206	26914
826.346	27009
826.485	27089
826.625	26967
826.765	27024
826.904	26994
827.044	26693
827.183	26705
827.323	26537
827.462	26754
827.601	26773
827.741	26686
827.88	26693
828.02	26606
828.159	26686
828.298	26876
828.437	26625
828.577	26663
828.716	26705
828.855	26636
828.994	26336
829.134	26446
829.273	26457
829.412	26259
829.551	26366
829.69	26396
829.829	26328
829.968	26488
830.107	26457
830.246	26408
830.385	26256
830.524	26267
830.663	26256
830.802	26081
830.941	26065
831.08	25947
831.219	26008
831.357	26119
831.496	26145
831.635	25947
831.774	25803
831.913	25795
832.051	25719
832.19	25784
832.329	25769
832.467	25662
832.606	25533
832.744	25548
832.883	25544
833.022	25571
833.16	25613
833.299	25704
833.437	25704
833.576	25624
833.714	25780
833.852	25727
833.991	25753
834.129	25780
834.267	25788
834.406	25639
834.544	25674
834.682	25635
834.821	25605
834.959	25940
835.097	25632
835.235	25635
835.373	25700
835.511	25693
835.65	25594
835.788	25620
835.926	25495
836.064	25339
836.202	25350
836.34	25601
836.478	25624
836.615	25571
836.753	25472
836.891	25651
837.029	25518
837.167	25529
837.305	25419
837.443	25388
837.58	25369
837.718	25331
837.856	25449
837.993	25232
838.131	25350
838.269	25225
838.406	25202
838.544	25175
838.681	25042
838.819	25046
838.956	24844
839.094	24863
839.231	24814
839.369	24958
839.506	25202
839.643	25110
839.781	24913
839.918	24700
840.055	24897
840.193	24741
840.33	24631
840.467	24566
840.604	24890
840.742	25027
840.879	24673
841.016	24566
841.153	24620
841.29	24696
841.427	24760
841.564	24669
841.701	24696
841.838	24623
841.975	24509
842.112	24566
842.249	24460
842.385	24437
842.522	24612
842.659	24604
842.796	24521
842.933	24532
843.069	24456
843.206	24369
843.343	24494
843.479	24498
843.616	24448
843.752	24338
843.889	24388
844.025	24304
844.162	24319
844.298	24365
844.435	24197
844.571	24167
844.708	24395
844.844	24254
844.98	24353
845.117	24369
845.253	24285
845.389	24182
845.525	24098
845.661	23954
845.798	23996
845.934	24038
846.07	24053
846.206	24011
846.342	24034
846.478	24030
846.614	23699
846.75	23657
846.886	23733
847.022	23821
847.158	23752
847.294	23676
847.429	23722
847.565	23707
847.701	24030
847.837	23395
847.972	23395
848.108	23463
848.244	23482
848.379	23436
848.515	23277
848.65	23204
848.786	23303
848.921	23258
849.057	23250
849.192	23360
849.328	23402
849.463	23174
849.598	23204
849.734	23227
849.869	23223
850.004	23159
850.14	23147
850.275	22999
850.41	22942
850.545	22938
850.68	22911
850.815	22972
850.95	22984
851.085	23246
851.22	23140
851.355	23109
851.49	23105
851.625	22968
851.76	23037
851.895	23022
852.03	22915
852.165	23056
852.299	23064
852.434	23109
852.569	23083
852.703	23041
852.838	22972
852.973	23185
853.107	23071
853.242	23033
853.376	22900
853.511	22774
853.645	22866
853.78	23086
853.914	22980
854.048	22771
854.183	22797
854.317	22850
854.451	23060
854.585	22991
854.72	22896
854.854	22938
854.988	22824
855.122	22824
855.256	22778
855.39	22835
855.524	23037
855.658	22965
855.792	22812
855.926	22889
856.06	22847
856.194	22835
856.327	22854
856.461	22713
856.595	22904
856.729	22812
856.862	22934
856.996	22927
857.13	22816
857.263	23022
857.397	22942
857.53	22812
857.664	22873
857.797	22774
857.931	22858
858.064	22896
858.197	22904
858.331	22797
858.464	22820
858.597	22767
858.731	22862
858.864	22885
858.997	22824
859.13	22904
859.263	22858
859.396	22889
859.529	22694
859.662	22828
859.795	22831
859.928	22828
860.061	22984
860.194	22980
860.327	22816
860.46	22831
860.592	22995
860.725	22995
860.858	23033
860.99	22862
861.123	22869
861.256	22729
861.388	22831
861.521	23684
861.653	22649
861.786	22557
861.918	22588
862.05	22778
862.183	22710
862.315	22831
862.447	22862
862.58	22713
862.712	22611
862.844	22687
862.976	22634
863.108	22736
863.24	23025
863.372	22550
863.504	22531
863.636	22470
863.768	22634
863.9	22607
864.032	22618
864.164	22493
864.296	22519
864.428	22637
864.559	22592
864.691	22759
864.823	22573
864.954	22481
865.086	22440
865.217	22493
865.349	22337
865.48	22500
865.612	22436
865.743	22516
865.875	22542
866.006	22363
866.137	22413
866.269	22497
866.4	22466
866.531	22356
866.662	22257
866.793	22341
866.924	22436
867.055	22356
867.186	22371
867.317	22443
867.448	22261
867.579	22390
867.71	22253
867.841	22215
867.972	22371
868.103	22249
868.233	22417
868.364	22265
868.495	22447
868.625	22516
868.756	22649
868.886	22557
869.017	22577
869.147	22618
869.278	22759
869.408	22588
869.539	22615
869.669	22664
869.799	22535
869.929	22736
870.06	22755
870.19	22930
870.32	22774
870.45	22915
870.58	23117
870.71	23143
870.84	23124
870.97	22953
871.1	23136
871.23	23231
871.36	23208
871.489	22984
871.619	23265
871.749	23258
871.879	23421
872.008	23212
872.138	23155
872.267	23299
872.397	23162
872.526	22866
872.656	23052
872.785	23037
872.915	23128
873.044	23299
873.173	23204
873.303	23235
873.432	23155
873.561	23330
873.69	23197
873.819	23178
873.948	23284
874.077	23162
874.206	23048
874.335	23231
874.464	23322
874.593	23372
874.722	23429
874.851	23452
874.979	23478
875.108	23463
875.237	23444
875.365	23254
875.494	23448
875.623	23482
875.751	23383
875.88	23402
876.008	23589
876.136	23528
876.265	23840
876.393	23980
876.521	23961
876.65	23893
876.778	23832
876.906	23771
877.034	23775
877.162	23840
877.29	23783
877.418	23783
877.546	23638
877.674	23691
877.802	23733
877.93	23695
878.058	23608
878.185	23551
878.313	23783
878.441	23737
878.568	23562
878.696	23764
878.824	23733
878.951	23794
879.079	23984
879.206	24068
879.333	23920
879.461	23813
879.588	23874
879.715	23893
879.842	24064
879.97	23927
880.097	23615
880.224	23619
880.351	23592
880.478	23551
880.605	23585
880.732	23551
880.859	23790
880.986	23642
881.112	23524
881.239	23398
881.366	23326
881.493	23162
881.619	23064
881.746	23128
881.872	23132
881.999	23025
882.125	23113
882.252	23227
882.378	23121
882.505	23200
882.631	22995
882.757	22885
882.883	22873
883.01	22930
883.136	22850
883.262	22679
883.388	22649
883.514	22793
883.64	22790
883.766	22862
883.892	22557
884.018	22588
884.143	22611
884.269	22938
884.395	22470
884.52	22428
884.646	22478
884.772	22379
884.897	22341
885.023	22538
885.148	22584
885.274	22580
885.399	22500
885.524	22428
885.65	22375
885.775	22489
885.9	22443
886.025	22569
886.15	22542
886.275	22379
886.4	22390
886.525	22375
886.65	22310
886.775	22344
886.9	22516
887.025	22740
887.149	22455
887.274	22246
887.399	22238
887.523	22192
887.648	22200
887.773	22105
887.897	22325
888.021	22291
888.146	22150
888.27	22257
888.395	22329
888.519	22280
888.643	22128
888.767	22093
888.891	22112
889.015	21983
889.139	21991
889.263	21903
889.387	22116
889.511	22120
889.635	22017
889.759	21972
889.883	22002
890.006	21968
890.13	22059
890.254	21880
890.377	21930
890.501	21804
890.624	21652
890.748	21667
890.871	21629
890.995	21568
891.118	21625
891.241	21462
891.364	21583
891.488	21595
891.611	21610
891.734	21641
891.857	21583
891.98	21515
892.103	21587
892.226	21515
892.349	21580
892.471	21291
892.594	21424
892.717	21511
892.839	21401
892.962	21386
893.085	21553
893.207	21454
893.33	21336
893.452	21306
893.575	21458
893.697	21397
893.819	21622
893.941	21618
894.064	21530
894.186	21428
894.308	21412
894.43	21587
894.552	21545
894.674	21587
894.796	21310
894.918	21325
895.04	21462
895.161	21473
895.283	21363
895.405	21306
895.526	21355
895.648	21477
895.769	21382
895.891	21477
896.012	21462
896.134	21481
896.255	21344
896.376	21268
896.498	21344
896.619	21382
896.74	21389
896.861	21393
896.982	21595
897.103	21800
897.224	21572
897.345	21515
897.466	21466
897.587	21610
897.708	21625
897.828	21652
897.949	21412
898.07	21473
898.19	21496
898.311	21561
898.431	21488
898.552	21633
898.672	21667
898.792	21633
898.913	21656
899.033	21515
899.153	21431
899.273	21241
899.393	21294
899.513	21321
899.633	21310
899.753	21291
899.873	21332
899.993	21233
900.113	21245
900.232	21306
900.352	21116
900.472	21036
900.591	21043
900.711	21211
900.83	21112
900.95	21104
901.069	21176
901.189	21066
901.308	20754
901.427	20670
901.546	20564
901.665	20587
901.784	20609
901.904	20507
902.023	20427
902.141	20267
902.26	20206
902.379	20343
902.498	20275
902.617	20065
902.735	20180
902.854	20199
902.973	19963
903.091	19883
903.21	19830
903.328	19757
903.446	19662
903.565	19643
903.683	19563
903.801	19483
903.919	19487
904.038	19514
904.156	19544
904.274	19392
904.392	19255
904.51	19304
904.627	19400
904.745	19400
904.863	19346
904.981	19137
905.098	19061
905.216	18977
905.334	18951
905.451	19034
905.569	18981
905.686	19091
905.803	18951
905.921	18760
906.038	18951
906.155	18817
906.272	18798
906.389	18741
906.506	18566
906.623	18506
906.74	18582
906.857	18452
906.974	18429
907.091	18627
907.208	18582
907.324	18627
907.441	18391
907.557	18167
907.674	18155
907.79	18209
907.907	18270
908.023	18407
908.139	18266
908.256	18038
908.372	18159
908.488	18152
908.604	18030
908.72	17931
908.836	17942
908.952	17863
909.068	17916
909.184	18034
909.3	17984
909.415	17969
909.531	17904
909.647	17638
909.762	17623
909.878	17657
909.993	17615
910.108	17585
910.224	17528
910.339	17558
910.454	17558
910.57	17440
910.685	17349
910.8	17695
910.915	17558
911.03	17311
911.145	17208
911.259	17326
911.374	17239
911.489	17208
911.604	17132
911.718	16892
911.833	16972
911.947	16938
912.062	16866
912.176	16999
912.291	17109
912.405	16946
912.519	17162
912.633	17143
912.748	16968
912.862	16885
912.976	16763
913.09	16634
913.204	16771
913.318	16717
913.431	16858
913.545	16805
913.659	16725
913.772	16634
913.886	16596
914	16558
914.113	16687
914.226	16683
914.34	16588
914.453	16512
914.566	16561
914.68	16462
914.793	16375
914.906	16257
915.019	16112
915.132	16029
915.245	16082
915.358	16166
915.47	16055
915.583	16181
915.696	16059
915.809	16120
915.921	16291
916.034	16162
916.146	16006
916.259	15987
916.371	16078
916.483	16097
916.595	15918
916.708	15911
916.82	16010
916.932	15960
917.044	15888
917.156	15812
917.268	15778
917.38	15736
917.491	15709
917.603	15747
917.715	15816
917.826	15778
917.938	15720
918.049	15599
918.161	15587
918.272	15762
918.384	15739
918.495	15572
918.606	15397
918.717	15435
918.828	15511
918.939	15458
919.05	15367
919.161	15485
919.272	15252
919.383	15340
919.494	15443
919.604	15614
919.715	15329
919.826	15443
919.936	15450
920.047	15344
920.157	15496
920.267	15545
920.378	15477
920.488	15336
920.598	15603
920.708	15667
920.818	15424
920.928	15557
921.038	15800
921.148	15622
921.258	15386
921.368	15203
921.477	15165
921.587	15013
921.697	14956
921.806	15233
921.916	14960
922.025	14796
922.134	14853
922.244	14663
922.353	14758
922.462	14667
922.571	14590
922.68	14457
922.789	14396
922.898	14423
923.007	14408
923.116	14480
923.224	14320
923.333	14347
923.442	14282
923.55	14199
923.659	14145
923.767	14320
923.876	14115
923.984	14339
924.092	14096
924.201	14100
924.309	14107
924.417	14290
924.525	14031
924.633	13947
924.741	14979
924.849	13803
924.956	14005
925.064	13822
925.172	13734
925.279	13784
925.387	13799
925.494	13837
925.602	13799
925.709	13814
925.816	13575
925.924	13681
926.031	13734
926.138	13746
926.245	13769
926.352	13483
926.459	13784
926.566	13715
926.673	13715
926.779	13529
926.886	13434
926.993	13438
927.099	13266
927.206	13168
927.312	13339
927.419	13308
927.525	13392
927.631	13327
927.737	13164
927.843	13126
927.95	13118
928.056	13129
928.162	13137
928.267	13133
928.373	13753
928.479	13152
928.585	12897
928.69	13088
928.796	13053
928.901	12943
929.007	12859
929.112	13027
929.218	12932
929.323	12837
929.428	12863
929.533	12920
929.638	12726
929.743	12650
929.848	12882
929.953	12745
930.058	12684
930.163	12479
930.267	12483
930.372	12585
930.477	12395
930.581	12665
930.685	12525
930.79	12384
930.894	12361
930.998	12308
931.103	12486
931.207	12182
931.311	12030
931.415	11935
931.519	11722
931.623	11714
