Data from test_V78500241_442.txt Node
Date: Fri Mar 25 15:44:51 CST 2022
User: usil
Spectrometer: V785-0024
Trigger mode: 0
Integration Time (sec): 4.000000E-1
Scans to average: 1
Nonlinearity correction enabled: false
Boxcar width: 0
Storing dark spectrum: false
XAxis mode: Wavelengths
Number of Pixels in Spectrum: 1024
>>>>>Begin Spectral Data<<<<<
801.071	28930
801.214	28831
801.356	28645
801.499	28592
801.641	28550
801.783	28557
801.926	28470
802.068	28592
802.211	28382
802.353	28287
802.496	28284
802.638	28055
802.78	28131
802.923	28173
803.065	27956
803.208	27979
803.35	28120
803.492	28310
803.635	28367
803.777	28246
803.919	28173
804.061	28588
804.204	28337
804.346	28265
804.488	28177
804.63	28306
804.773	28120
804.915	28291
805.057	28512
805.199	28257
805.341	28428
805.483	28557
805.626	28386
805.768	28287
805.91	28455
806.052	28451
806.194	28432
806.336	28630
806.478	28386
806.62	28390
806.762	28577
806.904	28717
807.046	28881
807.188	28888
807.33	28873
807.472	28862
807.614	28748
807.756	28831
807.898	28675
808.04	28687
808.182	28691
808.324	28649
808.465	28767
808.607	28911
808.749	29075
808.891	29033
809.033	29372
809.174	29216
809.316	29166
809.458	29204
809.6	29086
809.741	29136
809.883	29166
810.025	29467
810.166	29208
810.308	29246
810.45	29345
810.591	29379
810.733	29159
810.875	28896
811.016	29071
811.158	28999
811.299	29292
811.441	29288
811.582	29303
811.724	29151
811.865	29094
812.007	28927
812.148	29067
812.29	29113
812.431	29064
812.573	29436
812.714	29463
812.855	29535
812.997	29672
813.138	29927
813.279	29798
813.421	29699
813.562	29505
813.703	29406
813.845	29254
813.986	28999
814.127	28900
814.268	28687
814.41	28759
814.551	28824
814.692	28816
814.833	28706
814.974	28721
815.115	28729
815.256	28675
815.397	28622
815.539	28546
815.68	28698
815.821	28481
815.962	28451
816.103	28588
816.244	28382
816.385	28333
816.526	28268
816.666	28135
816.807	27987
816.948	28017
817.089	28215
817.23	28162
817.371	28044
817.512	28120
817.653	27983
817.793	27846
817.934	27968
818.075	27922
818.216	28017
818.356	27880
818.497	28013
818.638	27793
818.778	27724
818.919	27736
819.06	27781
819.2	27816
819.341	27892
819.481	27934
819.622	28086
819.762	28276
819.903	28223
820.043	28162
820.184	28093
820.324	28154
820.465	28139
820.605	28059
820.746	27987
820.886	28036
821.026	28040
821.167	27998
821.307	28097
821.447	27972
821.588	27907
821.728	27679
821.868	27583
822.008	27435
822.149	27397
822.289	27306
822.429	27237
822.569	27123
822.709	27089
822.849	26899
822.99	26895
823.13	26857
823.27	26842
823.41	26788
823.55	26644
823.69	26701
823.83	26640
823.97	26670
824.11	26377
824.25	26701
824.389	26663
824.529	26594
824.669	26533
824.809	26701
824.949	26750
825.089	26678
825.228	26602
825.368	26278
825.508	26442
825.648	26442
825.787	26415
825.927	26431
826.067	26457
826.206	26317
826.346	26434
826.485	26434
826.625	26313
826.765	26492
826.904	26457
827.044	26119
827.183	26187
827.323	26092
827.462	26142
827.601	26088
827.741	26039
827.88	26149
828.02	25959
828.159	26062
828.298	26031
828.437	26161
828.577	26024
828.716	26202
828.855	25906
828.994	25822
829.134	25898
829.273	25791
829.412	25731
829.551	25628
829.69	25772
829.829	25742
829.968	25765
830.107	25841
830.246	25852
830.385	25765
830.524	25795
830.663	25533
830.802	25620
830.941	25335
831.08	25377
831.219	25362
831.357	25575
831.496	25639
831.635	25285
831.774	25251
831.913	25187
832.051	25122
832.19	25061
832.329	25084
832.467	25061
832.606	25034
832.744	24958
832.883	24951
833.022	24935
833.16	25042
833.299	24932
833.437	25031
833.576	25194
833.714	24977
833.852	25008
833.991	25091
834.129	25236
834.267	25080
834.406	25114
834.544	25114
834.682	24973
834.821	25008
834.959	25282
835.097	24817
835.235	25080
835.373	25019
835.511	24935
835.65	24806
835.788	24875
835.926	24848
836.064	24760
836.202	24677
836.34	24817
836.478	24928
836.615	24738
836.753	24871
836.891	24867
837.029	24882
837.167	24726
837.305	24844
837.443	24673
837.58	24650
837.718	24901
837.856	24787
837.993	24544
838.131	24810
838.269	24403
838.406	24532
838.544	24536
838.681	24311
838.819	24311
838.956	24125
839.094	24076
839.231	24254
839.369	24304
839.506	24509
839.643	24346
839.781	24091
839.918	24091
840.055	24079
840.193	24026
840.33	23980
840.467	24026
840.604	24079
840.742	24285
840.879	23942
841.016	23935
841.153	23889
841.29	24064
841.427	23901
841.564	24007
841.701	24045
841.838	23939
841.975	23802
842.112	24003
842.249	23729
842.385	23775
842.522	24007
842.659	23904
842.796	23790
842.933	23665
843.069	23684
843.206	23718
843.343	23771
843.479	23665
843.616	23512
843.752	23570
843.889	23562
844.025	23623
844.162	23493
844.298	23452
844.435	23383
844.571	23406
844.708	23539
844.844	23638
844.98	23611
845.117	23604
845.253	23315
845.389	23349
845.525	23334
845.661	23360
845.798	23193
845.934	23220
846.07	23277
846.206	23235
846.342	23402
846.478	23181
846.614	22999
846.75	22957
846.886	22782
847.022	23025
847.158	23014
847.294	22946
847.429	22873
847.565	22885
847.701	23136
847.837	22717
847.972	22599
848.108	22653
848.244	22767
848.379	22512
848.515	22656
848.65	22596
848.786	22508
848.921	22470
849.057	22603
849.192	22573
849.328	22398
849.463	22554
849.598	22436
849.734	22481
849.869	22333
850.004	22238
850.14	22188
850.275	22295
850.41	22173
850.545	22166
850.68	22272
850.815	22295
850.95	22204
851.085	22303
851.22	22322
851.355	22162
851.49	22322
851.625	22219
851.76	22162
851.895	22234
852.03	22112
852.165	22135
852.299	22337
852.434	22299
852.569	22322
852.703	22299
852.838	22306
852.973	22303
853.107	22428
853.242	22090
853.376	22010
853.511	21816
853.645	22070
853.78	22162
853.914	22093
854.048	22013
854.183	22010
854.317	22010
854.451	22341
854.585	22055
854.72	22090
854.854	22128
854.988	22051
855.122	21953
855.256	21861
855.39	22063
855.524	22082
855.658	22044
855.792	22105
855.926	22010
856.06	22067
856.194	22059
856.327	22074
856.461	22093
856.595	21956
856.729	22021
856.862	22154
856.996	22097
857.13	22192
857.263	22181
857.397	22158
857.53	21953
857.664	21983
857.797	22128
857.931	22272
858.064	22109
858.197	22280
858.331	21979
858.464	21979
858.597	21903
858.731	22044
858.864	22032
858.997	21876
859.13	22021
859.263	22109
859.396	22078
859.529	21937
859.662	21968
859.795	22017
859.928	22036
860.061	22158
860.194	22169
860.327	22162
860.46	22044
860.592	22139
860.725	22188
860.858	22067
860.99	22162
861.123	21991
861.256	21899
861.388	22112
861.521	22584
861.653	21819
861.786	21888
861.918	21903
862.05	21911
862.183	22002
862.315	21983
862.447	22032
862.58	21941
862.712	21755
862.844	21720
862.976	21755
863.108	21880
863.24	22090
863.372	21732
863.504	21774
863.636	21648
863.768	21751
863.9	21743
864.032	21675
864.164	21511
864.296	21709
864.428	21739
864.559	21694
864.691	21739
864.823	21755
864.954	21743
865.086	21629
865.217	21618
865.349	21523
865.48	21549
865.612	21690
865.743	21781
865.875	21663
866.006	21625
866.137	21614
866.269	21622
866.4	21576
866.531	21595
866.662	21511
866.793	21450
866.924	21545
867.055	21568
867.186	21485
867.317	21515
867.448	21564
867.579	21473
867.71	21382
867.841	21405
867.972	21545
868.103	21500
868.233	21469
868.364	21557
868.495	21637
868.625	21690
868.756	21880
868.886	21667
869.017	21797
869.147	21835
869.278	21869
869.408	21842
869.539	21778
869.669	21785
869.799	21797
869.929	21778
870.06	21865
870.19	22010
870.32	22036
870.45	21991
870.58	22147
870.71	22166
870.84	22185
870.97	22128
871.1	22204
871.23	22238
871.36	22303
871.489	22249
871.619	22280
871.749	22375
871.879	22360
872.008	22523
872.138	22314
872.267	22363
872.397	22318
872.526	22249
872.656	22131
872.785	22169
872.915	22421
873.044	22478
873.173	22398
873.303	22417
873.432	22443
873.561	22493
873.69	22287
873.819	22447
873.948	22516
874.077	22329
874.206	22284
874.335	22402
874.464	22531
874.593	22478
874.722	22588
874.851	22603
874.979	22607
875.108	22721
875.237	22394
875.365	22519
875.494	22584
875.623	22706
875.751	22493
875.88	22592
876.008	22626
876.136	22828
876.265	22957
876.393	23132
876.521	23124
876.65	22995
876.778	22930
876.906	23044
877.034	23022
877.162	22896
877.29	22904
877.418	23041
877.546	22923
877.674	22957
877.802	22930
877.93	22915
878.058	22828
878.185	22740
878.313	22812
878.441	23022
878.568	22809
878.696	22881
878.824	22984
878.951	22946
879.079	23094
879.206	23254
879.333	23003
879.461	22915
879.588	23079
879.715	23029
879.842	23227
879.97	22927
880.097	22744
880.224	22710
880.351	22858
880.478	22721
880.605	22694
880.732	22805
880.859	23022
880.986	22812
881.112	22831
881.239	22664
881.366	22516
881.493	22447
881.619	22356
881.746	22375
881.872	22303
881.999	22295
882.125	22242
882.252	22367
882.378	22261
882.505	22402
882.631	22188
882.757	22025
882.883	22093
883.01	21979
883.136	22025
883.262	21991
883.388	21819
883.514	21956
883.64	22112
883.766	21949
883.892	21717
884.018	21762
884.143	21953
884.269	22131
884.395	21759
884.52	21701
884.646	21641
884.772	21492
884.897	21622
885.023	21625
885.148	21736
885.274	21728
885.399	21732
885.524	21701
885.65	21660
885.775	21610
885.9	21599
886.025	21835
886.15	21804
886.275	21701
886.4	21610
886.525	21469
886.65	21603
886.775	21580
886.9	21671
887.025	21816
887.149	21762
887.274	21587
887.399	21405
887.523	21283
887.648	21405
887.773	21310
887.897	21389
888.021	21344
888.146	21344
888.27	21481
888.395	21549
888.519	21481
888.643	21416
888.767	21507
888.891	21237
889.015	21214
889.139	21207
889.263	21161
889.387	21298
889.511	21454
889.635	21214
889.759	21150
889.883	21237
890.006	21180
890.13	21260
890.254	21112
890.377	21119
890.501	21020
890.624	20811
890.748	20895
890.871	20853
890.995	20769
891.118	20708
891.241	20857
891.364	20785
891.488	20834
891.611	20716
891.734	20602
891.857	20880
891.98	20792
892.103	20678
892.226	20701
892.349	20621
892.471	20461
892.594	20689
892.717	20655
892.839	20735
892.962	20667
893.085	20807
893.207	20613
893.33	20537
893.452	20609
893.575	20705
893.697	20583
893.819	20811
893.941	20880
894.064	20739
894.186	20609
894.308	20480
894.43	20636
894.552	20891
894.674	20644
894.796	20678
894.918	20667
895.04	20594
895.161	20663
895.283	20674
895.405	20590
895.526	20651
895.648	20735
895.769	20651
895.891	20636
896.012	20788
896.134	20758
896.255	20606
896.376	20552
896.498	20598
896.619	20659
896.74	20568
896.861	20762
896.982	21043
897.103	21089
897.224	20952
897.345	20941
897.466	20670
897.587	20853
897.708	20937
897.828	20815
897.949	20830
898.07	20686
898.19	20815
898.311	20880
898.431	20826
898.552	20887
898.672	20937
898.792	20864
898.913	20735
899.033	20792
899.153	20678
899.273	20495
899.393	20644
899.513	20655
899.633	20549
899.753	20644
899.873	20571
899.993	20552
900.113	20499
900.232	20476
900.352	20358
900.472	20385
900.591	20419
900.711	20267
900.83	20214
900.95	20434
901.069	20530
901.189	20180
901.308	20016
901.427	19932
901.546	20043
901.665	19890
901.784	19894
901.904	19731
902.023	19780
902.141	19518
902.26	19483
902.379	19544
902.498	19400
902.617	19381
902.735	19388
902.854	19407
902.973	19343
903.091	19053
903.21	19110
903.328	19015
903.446	19057
903.565	18844
903.683	18810
903.801	18764
903.919	18970
904.038	18840
904.156	18677
904.274	18703
904.392	18635
904.51	18578
904.627	18631
904.745	18722
904.863	18692
904.981	18513
905.098	18319
905.216	18422
905.334	18506
905.451	18285
905.569	18319
905.686	18357
905.803	18251
905.921	18091
906.038	18194
906.155	18140
906.272	18003
906.389	17954
906.506	17813
906.623	17863
906.74	17748
906.857	17710
906.974	17832
907.091	17866
907.208	17980
907.324	17832
907.441	17699
907.557	17520
907.674	17596
907.79	17467
907.907	17554
908.023	17581
908.139	17520
908.256	17509
908.372	17452
908.488	17360
908.604	17269
908.72	17170
908.836	17246
908.952	17223
909.068	17261
909.184	17261
909.3	17178
909.415	17250
909.531	17250
909.647	16976
909.762	16938
909.878	16900
909.993	17025
910.108	16949
910.224	16908
910.339	16793
910.454	16946
910.57	16721
910.685	16668
910.8	16831
910.915	17003
911.03	16767
911.145	16554
911.259	16535
911.374	16348
911.489	16436
911.604	16451
911.718	16272
911.833	16280
911.947	16158
912.062	16044
912.176	16322
912.291	16261
912.405	16238
912.519	16413
912.633	16363
912.748	16268
912.862	16223
912.976	16036
913.09	16006
913.204	16112
913.318	16059
913.431	16268
913.545	16143
913.659	16166
913.772	15983
913.886	15797
914	15781
914.113	15964
914.226	15964
914.34	15888
914.453	15778
914.566	15846
914.68	15709
914.793	15705
914.906	15606
915.019	15431
915.132	15454
915.245	15492
915.358	15485
915.47	15428
915.583	15424
915.696	15454
915.809	15507
915.921	15572
916.034	15386
916.146	15294
916.259	15340
916.371	15401
916.483	15336
916.595	15378
916.708	15317
916.82	15268
916.932	15207
917.044	15252
917.156	15123
917.268	15051
917.38	15157
917.491	15043
917.603	15074
917.715	15097
917.826	15207
917.938	15009
918.049	14861
918.161	15028
918.272	15116
918.384	15127
918.495	14982
918.606	14849
918.717	14731
918.828	14998
918.939	14883
919.05	14823
919.161	14754
919.272	14659
919.383	14686
919.494	14800
919.604	15058
919.715	14796
919.826	14773
919.936	14724
920.047	14800
920.157	14823
920.267	14918
920.378	14796
920.488	14834
920.598	15028
920.708	15097
920.818	14880
920.928	14857
921.038	15043
921.148	15062
921.258	14720
921.368	14667
921.477	14511
921.587	14518
921.697	14450
921.806	14590
921.916	14332
922.025	14142
922.134	14111
922.244	14084
922.353	14126
922.462	14107
922.571	13902
922.68	13856
922.789	13784
922.898	13852
923.007	13712
923.116	13837
923.224	13746
923.333	13811
923.442	13521
923.55	13655
923.659	13647
923.767	13628
923.876	13620
923.984	13655
924.092	13407
924.201	13563
924.309	13548
924.417	13460
924.525	13521
924.633	13460
924.741	14244
924.849	13266
924.956	13426
925.064	13160
925.172	13156
925.279	13206
925.387	13240
925.494	13110
925.602	13373
925.709	13198
925.816	13118
925.924	13164
926.031	13133
926.138	13247
926.245	13190
926.352	13023
926.459	13118
926.566	13069
926.673	13015
926.779	12943
926.886	12859
926.993	12886
927.099	12753
927.206	12696
927.312	12665
927.419	12757
927.525	12700
927.631	12833
927.737	12563
927.843	12612
927.95	12464
928.056	12525
928.162	12540
928.267	12658
928.373	13190
928.479	12597
928.585	12380
928.69	12456
928.796	12498
928.901	12429
929.007	12292
929.112	12437
929.218	12357
929.323	12319
929.428	12262
929.533	12414
929.638	12148
929.743	12216
929.848	12220
929.953	12205
930.058	12095
930.163	11840
930.267	12034
930.372	12057
930.477	11882
930.581	12148
930.685	11999
930.79	11904
930.894	11836
930.998	11752
931.103	11961
931.207	11585
931.311	11528
931.415	11425
931.519	11162
931.623	11284
