Data from test_V78500241_3268.txt Node
Date: Fri Mar 25 16:04:26 CST 2022
User: usil
Spectrometer: V785-0024
Trigger mode: 0
Integration Time (sec): 4.000000E-1
Scans to average: 1
Nonlinearity correction enabled: false
Boxcar width: 0
Storing dark spectrum: false
XAxis mode: Wavelengths
Number of Pixels in Spectrum: 1024
>>>>>Begin Spectral Data<<<<<
801.071	28242
801.214	28109
801.356	28082
801.499	27888
801.641	27857
801.783	27865
801.926	27850
802.068	27823
802.211	27606
802.353	27736
802.496	27599
802.638	27530
802.78	27233
802.923	27351
803.065	27310
803.208	27393
803.35	27408
803.492	27625
803.635	27591
803.777	27599
803.919	27705
804.061	27968
804.204	27793
804.346	27576
804.488	27504
804.63	27603
804.773	27500
804.915	27713
805.057	27781
805.199	27629
805.341	27709
805.483	27854
805.626	27633
805.768	27728
805.91	27713
806.052	27838
806.194	27778
806.336	27968
806.478	27739
806.62	27914
806.762	28063
806.904	28109
807.046	28379
807.188	28363
807.33	28177
807.472	28257
807.614	28188
807.756	28295
807.898	27994
808.04	27998
808.182	27983
808.324	28044
808.465	28211
808.607	28177
808.749	28363
808.891	28531
809.033	28683
809.174	28462
809.316	28500
809.458	28459
809.6	28379
809.741	28451
809.883	28607
810.025	28660
810.166	28687
810.308	28831
810.45	28782
810.591	28885
810.733	28519
810.875	28504
811.016	28474
811.158	28401
811.299	28531
811.441	28546
811.582	28580
811.724	28382
811.865	28493
812.007	28561
812.148	28554
812.29	28508
812.431	28607
812.573	28733
812.714	28896
812.855	28965
812.997	29170
813.138	29193
813.279	29124
813.421	28965
813.562	28843
813.703	28771
813.845	28630
813.986	28352
814.127	28188
814.268	28204
814.41	28188
814.551	28177
814.692	28219
814.833	28029
814.974	28048
815.115	28120
815.256	27991
815.397	27911
815.539	28082
815.68	27903
815.821	27934
815.962	27983
816.103	27945
816.244	27812
816.385	27751
816.526	27762
816.666	27454
816.807	27332
816.948	27526
817.089	27515
817.23	27355
817.371	27412
817.512	27443
817.653	27443
817.793	27382
817.934	27420
818.075	27405
818.216	27405
818.356	27496
818.497	27195
818.638	27157
818.778	27142
818.919	27142
819.06	27249
819.2	27526
819.341	27553
819.481	27351
819.622	27614
819.762	27907
819.903	27770
820.043	27686
820.184	27633
820.324	27583
820.465	27519
820.605	27603
820.746	27701
820.886	27386
821.026	27523
821.167	27481
821.307	27507
821.447	27576
821.588	27351
821.728	27256
821.868	27074
822.008	27013
822.149	26758
822.289	26891
822.429	26686
822.569	26602
822.709	26655
822.849	26457
822.99	26533
823.13	26336
823.27	26351
823.41	26218
823.55	26233
823.69	26324
823.83	26225
823.97	26301
824.11	26199
824.25	25936
824.389	26054
824.529	26237
824.669	26050
824.809	26161
824.949	26218
825.089	26195
825.228	26157
825.368	25871
825.508	26005
825.648	26050
825.787	26119
825.927	26073
826.067	26031
826.206	25917
826.346	26054
826.485	25841
826.625	26111
826.765	26145
826.904	25951
827.044	25818
827.183	25719
827.323	25666
827.462	25700
827.601	25818
827.741	25635
827.88	25765
828.02	25468
828.159	25624
828.298	25643
828.437	25799
828.577	25693
828.716	25734
828.855	25597
828.994	25362
829.134	25403
829.273	25430
829.412	25400
829.551	25240
829.69	25411
829.829	25533
829.968	25476
830.107	25407
830.246	25403
830.385	25441
830.524	25308
830.663	25129
830.802	24954
830.941	25061
831.08	24962
831.219	24970
831.357	25152
831.496	25209
831.635	25145
831.774	25008
831.913	24920
832.051	24764
832.19	24764
832.329	24935
832.467	24738
832.606	24616
832.744	24620
832.883	24601
833.022	24582
833.16	24623
833.299	24570
833.437	24802
833.576	24764
833.714	24669
833.852	24715
833.991	24779
834.129	24954
834.267	24852
834.406	24779
834.544	24722
834.682	24719
834.821	24684
834.959	24890
835.097	24719
835.235	24776
835.373	24654
835.511	24696
835.65	24585
835.788	24665
835.926	24517
836.064	24357
836.202	24388
836.34	24646
836.478	24627
836.615	24426
836.753	24582
836.891	24582
837.029	24494
837.167	24513
837.305	24388
837.443	24475
837.58	24403
837.718	24448
837.856	24376
837.993	24330
838.131	24391
838.269	24174
838.406	24224
838.544	24232
838.681	23984
838.819	23992
838.956	23863
839.094	23790
839.231	23931
839.369	24072
839.506	24304
839.643	24186
839.781	23764
839.918	23840
840.055	23733
840.193	23897
840.33	23703
840.467	23737
840.604	23748
840.742	24057
840.879	23531
841.016	23741
841.153	23619
841.29	23847
841.427	23752
841.564	23809
841.701	23737
841.838	23767
841.975	23581
842.112	23707
842.249	23649
842.385	23573
842.522	23798
842.659	23634
842.796	23444
842.933	23524
843.069	23573
843.206	23391
843.343	23608
843.479	23452
843.616	23585
843.752	23258
843.889	23220
844.025	23391
844.162	23337
844.298	23406
844.435	23391
844.571	23223
844.708	23383
844.844	23433
844.98	23406
845.117	23478
845.253	23178
845.389	23269
845.525	23132
845.661	23105
845.798	22991
845.934	23162
846.07	23140
846.206	23159
846.342	23033
846.478	22900
846.614	22854
846.75	22809
846.886	22713
847.022	22691
847.158	22755
847.294	22790
847.429	22774
847.565	22679
847.701	23014
847.837	22462
847.972	22489
848.108	22694
848.244	22557
848.379	22314
848.515	22363
848.65	22200
848.786	22276
848.921	22360
849.057	22474
849.192	22344
849.328	22375
849.463	22360
849.598	22215
849.734	22242
849.869	22128
850.004	22188
850.14	22147
850.275	22097
850.41	22173
850.545	22025
850.68	22124
850.815	22185
850.95	22006
851.085	22268
851.22	22238
851.355	22082
851.49	22097
851.625	22120
851.76	22173
851.895	22017
852.03	22021
852.165	22120
852.299	22238
852.434	22124
852.569	22223
852.703	22044
852.838	22211
852.973	22188
853.107	22310
853.242	22010
853.376	21937
853.511	21884
853.645	21838
853.78	22109
853.914	22021
854.048	21930
854.183	21930
854.317	21972
854.451	22067
854.585	21964
854.72	21812
854.854	21975
854.988	21857
855.122	21857
855.256	21854
855.39	21827
855.524	22070
855.658	22025
855.792	21865
855.926	21975
856.06	21903
856.194	21987
856.327	21991
856.461	21949
856.595	21842
856.729	21835
856.862	22021
856.996	22013
857.13	21892
857.263	22021
857.397	22021
857.53	21838
857.664	22090
857.797	21998
857.931	22074
858.064	21880
858.197	22040
858.331	21911
858.464	21739
858.597	21857
858.731	21888
858.864	21831
858.997	21892
859.13	21926
859.263	22002
859.396	21994
859.529	21937
859.662	21857
859.795	21812
859.928	22010
860.061	22059
860.194	22185
860.327	22051
860.46	21907
860.592	22044
860.725	22032
860.858	22116
860.99	21975
861.123	21739
861.256	21895
861.388	21972
861.521	22637
861.653	21812
861.786	21728
861.918	21781
862.05	21819
862.183	21937
862.315	21876
862.447	21960
862.58	21880
862.712	21705
862.844	21633
862.976	21732
863.108	21808
863.24	22006
863.372	21637
863.504	21587
863.636	21690
863.768	21759
863.9	21743
864.032	21644
864.164	21622
864.296	21789
864.428	21793
864.559	21705
864.691	21671
864.823	21572
864.954	21614
865.086	21629
865.217	21504
865.349	21454
865.48	21595
865.612	21523
865.743	21523
865.875	21542
866.006	21496
866.137	21591
866.269	21443
866.4	21515
866.531	21408
866.662	21504
866.793	21397
866.924	21408
867.055	21519
867.186	21504
867.317	21466
867.448	21264
867.579	21401
867.71	21355
867.841	21355
867.972	21511
868.103	21511
868.233	21420
868.364	21492
868.495	21614
868.625	21633
868.756	21854
868.886	21587
869.017	21671
869.147	21781
869.278	21732
869.408	21732
869.539	21774
869.669	21732
869.799	21705
869.929	21835
870.06	21812
870.19	22036
870.32	22032
870.45	22067
870.58	21998
870.71	22162
870.84	22188
870.97	22070
871.1	22131
871.23	22143
871.36	22246
871.489	22230
871.619	22234
871.749	22265
871.879	22295
872.008	22348
872.138	22333
872.267	22265
872.397	22219
872.526	22082
872.656	22303
872.785	22139
872.915	22314
873.044	22382
873.173	22299
873.303	22363
873.432	22398
873.561	22405
873.69	22443
873.819	22500
873.948	22428
874.077	22329
874.206	22261
874.335	22314
874.464	22519
874.593	22596
874.722	22554
874.851	22626
874.979	22504
875.108	22664
875.237	22360
875.365	22546
875.494	22531
875.623	22679
875.751	22500
875.88	22561
876.008	22736
876.136	22725
876.265	22991
876.393	23037
876.521	23064
876.65	22949
876.778	23022
876.906	22972
877.034	22972
877.162	22908
877.29	22847
877.418	22919
877.546	22805
877.674	22847
877.802	22858
877.93	22752
878.058	22927
878.185	22847
878.313	22835
878.441	22828
878.568	22733
878.696	22752
878.824	22946
878.951	22881
879.079	22957
879.206	23189
879.333	23025
879.461	22968
879.588	23010
879.715	23010
879.842	23299
879.97	23010
880.097	22675
880.224	22774
880.351	22828
880.478	22740
880.605	22698
880.732	22660
880.859	22877
880.986	22615
881.112	22668
881.239	22668
881.366	22470
881.493	22352
881.619	22356
881.746	22341
881.872	22219
881.999	22181
882.125	22230
882.252	22257
882.378	22242
882.505	22306
882.631	22215
882.757	22185
882.883	21979
883.01	21968
883.136	21949
883.262	21766
883.388	21892
883.514	21960
883.64	22029
883.766	21861
883.892	21663
884.018	21869
884.143	21895
884.269	22002
884.395	21599
884.52	21606
884.646	21679
884.772	21568
884.897	21545
885.023	21523
885.148	21614
885.274	21553
885.399	21614
885.524	21583
885.65	21568
885.775	21572
885.9	21561
886.025	21644
886.15	21633
886.275	21515
886.4	21500
886.525	21500
886.65	21595
886.775	21500
886.9	21709
887.025	21778
887.149	21545
887.274	21401
887.399	21412
887.523	21408
887.648	21287
887.773	21332
887.897	21500
888.021	21454
888.146	21370
888.27	21439
888.395	21485
888.519	21329
888.643	21412
888.767	21283
888.891	21374
889.015	21195
889.139	21207
889.263	21161
889.387	21279
889.511	21272
889.635	21188
889.759	21112
889.883	21150
890.006	21188
890.13	21199
890.254	21108
890.377	20975
890.501	20883
890.624	20807
890.748	20960
890.871	20807
890.995	20682
891.118	20583
891.241	20693
891.364	20796
891.488	20872
891.611	20735
891.734	20552
891.857	20743
891.98	20754
892.103	20830
892.226	20648
892.349	20697
892.471	20488
892.594	20514
892.717	20659
892.839	20583
892.962	20727
893.085	20712
893.207	20670
893.33	20514
893.452	20526
893.575	20705
893.697	20651
893.819	20659
893.941	20815
894.064	20648
894.186	20583
894.308	20530
894.43	20549
894.552	20842
894.674	20705
894.796	20434
894.918	20613
895.04	20537
895.161	20655
895.283	20552
895.405	20552
895.526	20503
895.648	20526
895.769	20621
895.891	20667
896.012	20583
896.134	20560
896.255	20625
896.376	20541
896.498	20602
896.619	20602
896.74	20598
896.861	20667
896.982	20815
897.103	20960
897.224	20830
897.345	20777
897.466	20785
897.587	20705
897.708	21032
897.828	20899
897.949	20651
898.07	20545
898.19	20731
898.311	20979
898.431	20705
898.552	20701
898.672	20914
898.792	20887
898.913	20918
899.033	20750
899.153	20667
899.273	20389
899.393	20495
899.513	20606
899.633	20579
899.753	20530
899.873	20476
899.993	20606
900.113	20461
900.232	20446
900.352	20442
900.472	20457
900.591	20377
900.711	20309
900.83	20256
900.95	20377
901.069	20434
901.189	20248
901.308	20058
901.427	19780
901.546	19951
901.665	19925
901.784	19936
901.904	19769
902.023	19674
902.141	19430
902.26	19388
902.379	19521
902.498	19335
902.617	19369
902.735	19373
902.854	19365
902.973	19304
903.091	19156
903.21	18973
903.328	19107
903.446	19053
903.565	18981
903.683	18867
903.801	18696
903.919	18760
904.038	18806
904.156	18700
904.274	18745
904.392	18703
904.51	18585
904.627	18642
904.745	18700
904.863	18749
904.981	18452
905.098	18353
905.216	18399
905.334	18403
905.451	18311
905.569	18209
905.686	18304
905.803	18216
905.921	18083
906.038	18197
906.155	18117
906.272	18083
906.389	18038
906.506	17897
906.623	17828
906.74	17855
906.857	17756
906.974	17676
907.091	17824
907.208	17904
907.324	17775
907.441	17779
907.557	17596
907.674	17585
907.79	17444
907.907	17471
908.023	17436
908.139	17532
908.256	17467
908.372	17444
908.488	17349
908.604	17299
908.72	17216
908.836	17356
908.952	17212
909.068	17376
909.184	17364
909.3	17273
909.415	17303
909.531	17143
909.647	17056
909.762	17083
909.878	16957
909.993	17033
910.108	16942
910.224	16942
910.339	16957
910.454	16805
910.57	16687
910.685	16767
910.8	16911
910.915	16946
911.03	16774
911.145	16554
911.259	16478
911.374	16538
911.489	16485
911.604	16497
911.718	16215
911.833	16299
911.947	16303
912.062	16143
912.176	16181
912.291	16268
912.405	16337
912.519	16363
912.633	16493
912.748	16394
912.862	16310
912.976	16002
913.09	16071
913.204	15998
913.318	16055
913.431	16166
913.545	16124
913.659	16337
913.772	16078
913.886	15945
914	15884
914.113	15934
914.226	16120
914.34	15934
914.453	15831
914.566	15816
914.68	15808
914.793	15762
914.906	15648
915.019	15542
915.132	15401
915.245	15584
915.358	15447
915.47	15469
915.583	15443
915.696	15492
915.809	15660
915.921	15595
916.034	15340
916.146	15329
916.259	15313
916.371	15386
916.483	15279
916.595	15348
916.708	15325
916.82	15260
916.932	15184
917.044	15336
917.156	15188
917.268	15138
917.38	15142
917.491	15119
917.603	15142
917.715	15222
917.826	15195
917.938	15062
918.049	15013
918.161	15138
918.272	15283
918.384	15119
918.495	15097
918.606	14941
918.717	14864
918.828	14944
918.939	14910
919.05	14853
919.161	14826
919.272	14678
919.383	14712
919.494	14998
919.604	15127
919.715	14868
919.826	14781
919.936	14853
920.047	14902
920.157	14796
920.267	14933
920.378	14853
920.488	14857
920.598	15074
920.708	15119
920.818	14918
920.928	14906
921.038	15123
921.148	15157
921.258	14777
921.368	14686
921.477	14606
921.587	14552
921.697	14366
921.806	14632
921.916	14457
922.025	14267
922.134	14252
922.244	14100
922.353	14332
922.462	14081
922.571	14005
922.68	13921
922.789	13833
922.898	13791
923.007	13761
923.116	13868
923.224	13761
923.333	13856
923.442	13712
923.55	13571
923.659	13746
923.767	13765
923.876	13727
923.984	13757
924.092	13521
924.201	13620
924.309	13666
924.417	13521
924.525	13434
924.633	13468
924.741	14206
924.849	13373
924.956	13441
925.064	13339
925.172	13160
925.279	13202
925.387	13308
925.494	13236
925.602	13362
925.709	13251
925.816	13076
925.924	13190
926.031	13255
926.138	13194
926.245	13160
926.352	13012
926.459	13194
926.566	13327
926.673	13122
926.779	13019
926.886	12977
926.993	12825
927.099	12798
927.206	12749
927.312	12768
927.419	12897
927.525	12768
927.631	12810
927.737	12700
927.843	12730
927.95	12544
928.056	12715
928.162	12654
928.267	12669
928.373	13240
928.479	12692
928.585	12407
928.69	12650
928.796	12540
928.901	12429
929.007	12308
929.112	12471
929.218	12433
929.323	12361
929.428	12384
929.533	12513
929.638	12266
929.743	12251
929.848	12422
929.953	12262
930.058	12171
930.163	12049
930.267	12022
930.372	12262
930.477	11874
930.581	12163
930.685	12079
930.79	11893
930.894	11950
930.998	11908
931.103	11950
931.207	11592
931.311	11596
931.415	11490
931.519	11398
931.623	11292
