Data from test_V78500241_145.txt Node
Date: Fri Mar 25 15:42:48 CST 2022
User: usil
Spectrometer: V785-0024
Trigger mode: 0
Integration Time (sec): 4.000000E-1
Scans to average: 1
Nonlinearity correction enabled: false
Boxcar width: 0
Storing dark spectrum: false
XAxis mode: Wavelengths
Number of Pixels in Spectrum: 1024
>>>>>Begin Spectral Data<<<<<
801.071	29592
801.214	29512
801.356	29311
801.499	29292
801.641	29132
801.783	29181
801.926	29239
802.068	29155
802.211	29090
802.353	28904
802.496	28839
802.638	28771
802.78	28759
802.923	28679
803.065	28523
803.208	28786
803.35	28858
803.492	28828
803.635	28946
803.777	28774
803.919	28801
804.061	29102
804.204	28809
804.346	28736
804.488	28797
804.63	28786
804.773	28755
804.915	28850
805.057	29029
805.199	28854
805.341	28869
805.483	28873
805.626	29025
805.768	28896
805.91	29064
806.052	29083
806.194	28888
806.336	29216
806.478	29094
806.62	28965
806.762	28942
806.904	29288
807.046	29516
807.188	29505
807.33	29375
807.472	29318
807.614	29204
807.756	29334
807.898	29147
808.04	29147
808.182	29048
808.324	29204
808.465	29147
808.607	29315
808.749	29349
808.891	29516
809.033	29649
809.174	29585
809.316	29512
809.458	29387
809.6	29436
809.741	29554
809.883	29653
810.025	29672
810.166	29798
810.308	29703
810.45	29581
810.591	29467
810.733	29444
810.875	29531
811.016	29383
811.158	29486
811.299	29566
811.441	29733
811.582	29589
811.724	29516
811.865	29345
812.007	29360
812.148	29326
812.29	29539
812.431	29497
812.573	29783
812.714	29935
812.855	29821
812.997	29862
813.138	30182
813.279	30003
813.421	29851
813.562	29878
813.703	29649
813.845	29680
813.986	29258
814.127	29155
814.268	29083
814.41	29018
814.551	29102
814.692	29159
814.833	29014
814.974	28953
815.115	28980
815.256	28812
815.397	28957
815.539	28767
815.68	28824
815.821	28763
815.962	28869
816.103	28748
816.244	28500
816.385	28443
816.526	28500
816.666	28310
816.807	28204
816.948	28314
817.089	28432
817.23	28185
817.371	28276
817.512	28200
817.653	28131
817.793	28093
817.934	28078
818.075	28166
818.216	28044
818.356	28017
818.497	27941
818.638	27823
818.778	27804
818.919	27812
819.06	27873
819.2	27899
819.341	28166
819.481	28097
819.622	28223
819.762	28318
819.903	28531
820.043	28299
820.184	28303
820.324	28169
820.465	28291
820.605	28135
820.746	28128
820.886	28051
821.026	28048
821.167	28063
821.307	28192
821.447	28093
821.588	27964
821.728	27827
821.868	27542
822.008	27553
822.149	27447
822.289	27561
822.429	27173
822.569	27241
822.709	27195
822.849	26944
822.99	26971
823.13	27013
823.27	26910
823.41	26659
823.55	26552
823.69	26712
823.83	26823
823.97	26701
824.11	26453
824.25	26355
824.389	26522
824.529	26537
824.669	26579
824.809	26705
824.949	26651
825.089	26571
825.228	26533
825.368	26347
825.508	26377
825.648	26404
825.787	26377
825.927	26313
826.067	26237
826.206	26377
826.346	26320
826.485	26339
826.625	26412
826.765	26461
826.904	26256
827.044	26073
827.183	26031
827.323	25978
827.462	26115
827.601	25864
827.741	25982
827.88	26031
828.02	25925
828.159	25928
828.298	26062
828.437	26062
828.577	25944
828.716	26058
828.855	25887
828.994	25601
829.134	25791
829.273	25864
829.412	25780
829.551	25681
829.69	25635
829.829	25845
829.968	25674
830.107	25719
830.246	25552
830.385	25658
830.524	25571
830.663	25449
830.802	25278
830.941	25152
831.08	25190
831.219	25308
831.357	25301
831.496	25331
831.635	25004
831.774	25141
831.913	25042
832.051	24943
832.19	24878
832.329	25012
832.467	24783
832.606	24753
832.744	24848
832.883	24871
833.022	24764
833.16	24741
833.299	24829
833.437	24753
833.576	24932
833.714	24806
833.852	24932
833.991	24810
834.129	24875
834.267	24817
834.406	24996
834.544	24913
834.682	24783
834.821	24665
834.959	24760
835.097	24768
835.235	24817
835.373	24817
835.511	24856
835.65	24570
835.788	24597
835.926	24582
836.064	24483
836.202	24388
836.34	24563
836.478	24681
836.615	24612
836.753	24601
836.891	24745
837.029	24646
837.167	24505
837.305	24437
837.443	24479
837.58	24471
837.718	24536
837.856	24452
837.993	24361
838.131	24429
838.269	24433
838.406	24426
838.544	24262
838.681	24053
838.819	23996
838.956	23824
839.094	23733
839.231	23916
839.369	23958
839.506	24182
839.643	24133
839.781	23908
839.918	23710
840.055	23764
840.193	23893
840.33	23790
840.467	23866
840.604	23745
840.742	24041
840.879	23684
841.016	23707
841.153	23531
841.29	23809
841.427	23691
841.564	23729
841.701	23767
841.838	23649
841.975	23695
842.112	23638
842.249	23482
842.385	23528
842.522	23554
842.659	23425
842.796	23467
842.933	23307
843.069	23220
843.206	23299
843.343	23471
843.479	23440
843.616	23280
843.752	23216
843.889	23170
844.025	23463
844.162	23102
844.298	23277
844.435	23079
844.571	22968
844.708	23178
844.844	23250
844.98	23151
845.117	23185
845.253	23033
845.389	22892
845.525	23086
845.661	22980
845.798	22915
845.934	22908
846.07	22645
846.206	22889
846.342	22957
846.478	22847
846.614	22607
846.75	22508
846.886	22618
847.022	22485
847.158	22527
847.294	22421
847.429	22656
847.565	22599
847.701	22611
847.837	22242
847.972	22223
848.108	22432
848.244	22306
848.379	22162
848.515	22177
848.65	22051
848.786	22112
848.921	22257
849.057	22173
849.192	22147
849.328	22139
849.463	22109
849.598	21975
849.734	21979
849.869	21918
850.004	21903
850.14	21804
850.275	21804
850.41	21774
850.545	21755
850.68	21876
850.815	21747
850.95	21812
851.085	22128
851.22	21873
851.355	21766
851.49	21736
851.625	21732
851.76	21656
851.895	21762
852.03	21656
852.165	21667
852.299	21778
852.434	21865
852.569	21915
852.703	21812
852.838	21812
852.973	21895
853.107	21838
853.242	21736
853.376	21576
853.511	21603
853.645	21648
853.78	21675
853.914	21583
854.048	21595
854.183	21542
854.317	21595
854.451	21751
854.585	21564
854.72	21599
854.854	21690
854.988	21523
855.122	21671
855.256	21477
855.39	21603
855.524	21557
855.658	21572
855.792	21637
855.926	21622
856.06	21690
856.194	21633
856.327	21622
856.461	21538
856.595	21515
856.729	21629
856.862	21576
856.996	21641
857.13	21717
857.263	21549
857.397	21637
857.53	21599
857.664	21580
857.797	21660
857.931	21705
858.064	21603
858.197	21682
858.331	21587
858.464	21644
858.597	21389
858.731	21557
858.864	21363
858.997	21549
859.13	21500
859.263	21500
859.396	21553
859.529	21572
859.662	21454
859.795	21397
859.928	21553
860.061	21728
860.194	21648
860.327	21660
860.46	21591
860.592	21622
860.725	21671
860.858	21576
860.99	21496
861.123	21519
861.256	21507
861.388	21382
861.521	22097
861.653	21370
861.786	21408
861.918	21363
862.05	21515
862.183	21534
862.315	21507
862.447	21652
862.58	21545
862.712	21428
862.844	21142
862.976	21279
863.108	21332
863.24	21660
863.372	21173
863.504	21218
863.636	21237
863.768	21310
863.9	21180
864.032	21138
864.164	21180
864.296	21154
864.428	21336
864.559	21173
864.691	21310
864.823	21218
864.954	21287
865.086	21218
865.217	21211
865.349	20979
865.48	21066
865.612	21119
865.743	21222
865.875	21119
866.006	21089
866.137	21096
866.269	21123
866.4	21116
866.531	20979
866.662	21119
866.793	21028
866.924	21043
867.055	21032
867.186	20979
867.317	21055
867.448	20944
867.579	21047
867.71	20952
867.841	20937
867.972	21036
868.103	21100
868.233	21074
868.364	20998
868.495	21192
868.625	21287
868.756	21283
868.886	21112
869.017	21146
869.147	21386
869.278	21469
869.408	21230
869.539	21302
869.669	21321
869.799	21275
869.929	21389
870.06	21256
870.19	21580
870.32	21519
870.45	21644
870.58	21679
870.71	21732
870.84	21717
870.97	21671
871.1	21663
871.23	21892
871.36	21888
871.489	21663
871.619	21846
871.749	21759
871.879	21876
872.008	22048
872.138	21892
872.267	21911
872.397	21595
872.526	21709
872.656	21663
872.785	21614
872.915	21770
873.044	21835
873.173	21846
873.303	21915
873.432	21918
873.561	21964
873.69	21804
873.819	21934
873.948	21983
874.077	21816
874.206	21911
874.335	21964
874.464	21991
874.593	22242
874.722	22135
874.851	22196
874.979	22116
875.108	22166
875.237	22070
875.365	22013
875.494	22090
875.623	22124
875.751	22006
875.88	22173
876.008	22253
876.136	22398
876.265	22398
876.393	22664
876.521	22557
876.65	22611
876.778	22618
876.906	22413
877.034	22398
877.162	22493
877.29	22447
877.418	22542
877.546	22421
877.674	22580
877.802	22382
877.93	22443
878.058	22417
878.185	22447
878.313	22390
878.441	22394
878.568	22314
878.696	22440
878.824	22409
878.951	22592
879.079	22675
879.206	22672
879.333	22664
879.461	22462
879.588	22588
879.715	22702
879.842	22721
879.97	22527
880.097	22310
880.224	22318
880.351	22284
880.478	22192
880.605	22249
880.732	22284
880.859	22508
880.986	22306
881.112	22329
881.239	22154
881.366	22002
881.493	21979
881.619	21903
881.746	21907
881.872	21854
881.999	21884
882.125	21903
882.252	21793
882.378	21915
882.505	21907
882.631	21728
882.757	21633
882.883	21663
883.01	21690
883.136	21580
883.262	21507
883.388	21412
883.514	21663
883.64	21595
883.766	21374
883.892	21351
884.018	21283
884.143	21542
884.269	21682
884.395	21203
884.52	21268
884.646	21264
884.772	21169
884.897	21142
885.023	21268
885.148	21351
885.274	21310
885.399	21272
885.524	21142
885.65	21085
885.775	21264
885.9	21211
886.025	21264
886.15	21268
886.275	21150
886.4	21104
886.525	21207
886.65	20963
886.775	21070
886.9	21188
887.025	21408
887.149	21146
887.274	21058
887.399	21005
887.523	20906
887.648	20910
887.773	20842
887.897	21062
888.021	20963
888.146	20918
888.27	21036
888.395	21077
888.519	20960
888.643	20910
888.767	20933
888.891	20819
889.015	20781
889.139	20785
889.263	20807
889.387	20826
889.511	20990
889.635	20853
889.759	20568
889.883	20754
890.006	20750
890.13	20864
890.254	20564
890.377	20552
890.501	20412
890.624	20362
890.748	20590
890.871	20362
890.995	20290
891.118	20233
891.241	20298
891.364	20282
891.488	20358
891.611	20271
891.734	20301
891.857	20419
891.98	20275
892.103	20259
892.226	20252
892.349	20248
892.471	20096
892.594	20206
892.717	20233
892.839	20145
892.962	20138
893.085	20267
893.207	20199
893.33	20046
893.452	20081
893.575	20290
893.697	20183
893.819	20332
893.941	20393
894.064	20347
894.186	20157
894.308	20069
894.43	20366
894.552	20431
894.674	20294
894.796	20062
894.918	20111
895.04	20096
895.161	20263
895.283	20191
895.405	20111
895.526	20187
895.648	20202
895.769	20199
895.891	20199
896.012	20180
896.134	20263
896.255	20271
896.376	20187
896.498	20202
896.619	20301
896.74	20248
896.861	20393
896.982	20594
897.103	20754
897.224	20667
897.345	20556
897.466	20290
897.587	20568
897.708	20568
897.828	20385
897.949	20256
898.07	20294
898.19	20423
898.311	20564
898.431	20358
898.552	20404
898.672	20355
898.792	20454
898.913	20431
899.033	20294
899.153	20248
899.273	20008
899.393	19997
899.513	20191
899.633	20119
899.753	20183
899.873	19959
899.993	20214
900.113	20020
900.232	20069
900.352	19989
900.472	19967
900.591	19712
900.711	19883
900.83	19807
900.95	20039
901.069	19906
901.189	19841
901.308	19651
901.427	19483
901.546	19502
901.665	19506
901.784	19506
901.904	19381
902.023	19327
902.141	19091
902.26	18954
902.379	19042
902.498	18913
902.617	18996
902.735	18954
902.854	18863
902.973	18871
903.091	18669
903.21	18551
903.328	18703
903.446	18563
903.565	18437
903.683	18612
903.801	18369
903.919	18448
904.038	18319
904.156	18209
904.274	18266
904.392	18266
904.51	18205
904.627	18197
904.745	18228
904.863	18251
904.981	17996
905.098	17855
905.216	17889
905.334	17843
905.451	17874
905.569	17855
905.686	17874
905.803	17828
905.921	17524
906.038	17684
906.155	17581
906.272	17596
906.389	17573
906.506	17296
906.623	17402
906.74	17292
906.857	17360
906.974	17322
907.091	17459
907.208	17501
907.324	17292
907.441	17341
907.557	17079
907.674	17079
907.79	16953
907.907	16999
908.023	17064
908.139	17056
908.256	17025
908.372	16873
908.488	16862
908.604	16839
908.72	16812
908.836	16706
908.952	16706
909.068	16717
909.184	16824
909.3	16717
909.415	16816
909.531	16710
909.647	16470
909.762	16409
909.878	16504
909.993	16466
910.108	16356
910.224	16360
910.339	16443
910.454	16234
910.57	16230
910.685	16185
910.8	16341
910.915	16356
911.03	16207
911.145	16032
911.259	15899
911.374	16017
911.489	15934
911.604	15895
911.718	15838
911.833	15717
911.947	15724
912.062	15637
912.176	15812
912.291	15918
912.405	15770
912.519	16010
912.633	15968
912.748	15861
912.862	15690
912.976	15595
913.09	15401
913.204	15428
913.318	15534
913.431	15595
913.545	15606
913.659	15530
913.772	15557
913.886	15431
914	15283
914.113	15424
914.226	15614
914.34	15420
914.453	15302
914.566	15485
914.68	15294
914.793	15142
914.906	15173
915.019	14887
915.132	14929
915.245	14864
915.358	15024
915.47	14960
915.583	14986
915.696	14861
915.809	15081
915.921	15116
916.034	14956
916.146	14861
916.259	14826
916.371	14960
916.483	14925
916.595	14758
916.708	14777
916.82	14735
916.932	14788
917.044	14720
917.156	14765
917.268	14640
917.38	14613
917.491	14610
917.603	14533
917.715	14781
917.826	14724
917.938	14503
918.049	14457
918.161	14648
918.272	14754
918.384	14701
918.495	14473
918.606	14366
918.717	14225
918.828	14305
918.939	14450
919.05	14309
919.161	14301
919.272	14115
919.383	14126
919.494	14450
919.604	14533
919.715	14286
919.826	14278
919.936	14328
920.047	14419
920.157	14381
920.267	14473
920.378	14317
920.488	14252
920.598	14457
920.708	14583
920.818	14484
920.928	14450
921.038	14571
921.148	14499
921.258	14221
921.368	14058
921.477	14062
921.587	13993
921.697	13822
921.806	14065
921.916	13818
922.025	13704
922.134	13704
922.244	13643
922.353	13712
922.462	13567
922.571	13377
922.68	13400
922.789	13327
922.898	13365
923.007	13183
923.116	13343
923.224	13343
923.333	13251
923.442	13198
923.55	13190
923.659	13156
923.767	13202
923.876	13046
923.984	13126
924.092	12966
924.201	12989
924.309	13141
924.417	13027
924.525	12947
924.633	13015
924.741	13605
924.849	12814
924.956	12916
925.064	12738
925.172	12662
925.279	12608
925.387	12772
925.494	12749
925.602	12890
925.709	12692
925.816	12684
925.924	12719
926.031	12833
926.138	12646
926.245	12825
926.352	12639
926.459	12719
926.566	12696
926.673	12563
926.779	12448
926.886	12536
926.993	12388
927.099	12285
927.206	12285
927.312	12258
927.419	12327
927.525	12338
927.631	12369
927.737	12152
927.843	12159
927.95	11992
928.056	12041
928.162	12167
928.267	12197
928.373	12795
928.479	12190
928.585	12022
928.69	12175
928.796	12148
928.901	11988
929.007	11859
929.112	12049
929.218	11954
929.323	11939
929.428	11798
929.533	12049
929.638	11843
929.743	11798
929.848	11847
929.953	11707
930.058	11733
930.163	11490
930.267	11573
930.372	11642
930.477	11543
930.581	11726
930.685	11539
930.79	11471
930.894	11414
930.998	11398
931.103	11455
931.207	11178
931.311	11140
931.415	10991
931.519	10778
931.623	10900
