Data from test_V78500241_1156.txt Node
Date: Fri Mar 25 15:49:48 CST 2022
User: usil
Spectrometer: V785-0024
Trigger mode: 0
Integration Time (sec): 4.000000E-1
Scans to average: 1
Nonlinearity correction enabled: false
Boxcar width: 0
Storing dark spectrum: false
XAxis mode: Wavelengths
Number of Pixels in Spectrum: 1024
>>>>>Begin Spectral Data<<<<<
801.071	28325
801.214	28440
801.356	28223
801.499	28036
801.641	27873
801.783	27857
801.926	28048
802.068	27876
802.211	27953
802.353	27888
802.496	27663
802.638	27606
802.78	27679
802.923	27561
803.065	27485
803.208	27762
803.35	27526
803.492	27800
803.635	27781
803.777	27766
803.919	27751
804.061	28169
804.204	27895
804.346	27751
804.488	27679
804.63	27705
804.773	27728
804.915	27842
805.057	27991
805.199	27857
805.341	27956
805.483	28169
805.626	28021
805.768	27911
805.91	27994
806.052	28017
806.194	27968
806.336	28139
806.478	28139
806.62	28048
806.762	28188
806.904	28303
807.046	28504
807.188	28413
807.33	28656
807.472	28428
807.614	28333
807.756	28500
807.898	28257
808.04	28409
808.182	28356
808.324	28356
808.465	28401
808.607	28478
808.749	28805
808.891	28774
809.033	28961
809.174	28862
809.316	28668
809.458	28702
809.6	28698
809.741	28896
809.883	28984
810.025	29200
810.166	28930
810.308	29143
810.45	29025
810.591	28862
810.733	28679
810.875	28755
811.016	28535
811.158	28733
811.299	28816
811.441	28740
811.582	28885
811.724	28645
811.865	28713
812.007	28565
812.148	28710
812.29	28687
812.431	28816
812.573	28869
812.714	29345
812.855	29254
812.997	29360
813.138	29459
813.279	29330
813.421	29242
813.562	29288
813.703	29067
813.845	29079
813.986	28881
814.127	28474
814.268	28497
814.41	28478
814.551	28367
814.692	28599
814.833	28352
814.974	28390
815.115	28493
815.256	28249
815.397	28295
815.539	28299
815.68	28322
815.821	28196
815.962	28166
816.103	28192
816.244	28253
816.385	28070
816.526	28131
816.666	27774
816.807	27705
816.948	27835
817.089	27907
817.23	27861
817.371	27671
817.512	27618
817.653	27667
817.793	27751
817.934	27698
818.075	27778
818.216	27694
818.356	27724
818.497	27606
818.638	27408
818.778	27526
818.919	27572
819.06	27511
819.2	27648
819.341	27755
819.481	27614
819.622	27941
819.762	28093
819.903	27918
820.043	28002
820.184	27800
820.324	27899
820.465	27918
820.605	27968
820.746	27774
820.886	27785
821.026	27838
821.167	27838
821.307	28044
821.447	27812
821.588	27622
821.728	27504
821.868	27329
822.008	27222
822.149	27233
822.289	27226
822.429	27009
822.569	26830
822.709	26963
822.849	26739
822.99	26613
823.13	26651
823.27	26621
823.41	26670
823.55	26431
823.69	26590
823.83	26499
823.97	26469
824.11	26343
824.25	26305
824.389	26362
824.529	26594
824.669	26469
824.809	26564
824.949	26465
825.089	26507
825.228	26579
825.368	26244
825.508	26294
825.648	26396
825.787	26313
825.927	26412
826.067	26225
826.206	26225
826.346	26199
826.485	26305
826.625	26339
826.765	26309
826.904	26294
827.044	26103
827.183	25986
827.323	25913
827.462	26039
827.601	26122
827.741	25955
827.88	26035
828.02	25811
828.159	25841
828.298	25993
828.437	26020
828.577	25959
828.716	26073
828.855	25913
828.994	25734
829.134	25734
829.273	25651
829.412	25556
829.551	25620
829.69	25639
829.829	25761
829.968	25742
830.107	25837
830.246	25814
830.385	25510
830.524	25575
830.663	25559
830.802	25506
830.941	25358
831.08	25202
831.219	25320
831.357	25362
831.496	25567
831.635	25304
831.774	25160
831.913	25213
832.051	25168
832.19	25053
832.329	25072
832.467	24905
832.606	24897
832.744	24859
832.883	24935
833.022	24905
833.16	25057
833.299	24977
833.437	25012
833.576	24901
833.714	25004
833.852	25061
833.991	25042
834.129	25198
834.267	25148
834.406	25110
834.544	25236
834.682	25008
834.821	24966
834.959	25072
835.097	24791
835.235	25046
835.373	24973
835.511	24973
835.65	24837
835.788	24848
835.926	24753
836.064	24696
836.202	24760
836.34	24772
836.478	24958
836.615	24768
836.753	24897
836.891	24935
837.029	24859
837.167	24760
837.305	24745
837.443	24677
837.58	24757
837.718	24848
837.856	24825
837.993	24601
838.131	24783
838.269	24597
838.406	24616
838.544	24388
838.681	24266
838.819	24327
838.956	24133
839.094	24178
839.231	24277
839.369	24372
839.506	24429
839.643	24452
839.781	24083
839.918	24110
840.055	24079
840.193	24152
840.33	23988
840.467	24064
840.604	24117
840.742	24376
840.879	23889
841.016	23912
841.153	24041
841.29	24007
841.427	23961
841.564	24068
841.701	24083
841.838	23874
841.975	23843
842.112	23885
842.249	23859
842.385	23863
842.522	24045
842.659	23931
842.796	23783
842.933	23760
843.069	23767
843.206	23756
843.343	23745
843.479	23802
843.616	23653
843.752	23581
843.889	23581
844.025	23805
844.162	23520
844.298	23672
844.435	23535
844.571	23627
844.708	23551
844.844	23805
844.98	23676
845.117	23821
845.253	23421
845.389	23372
845.525	23455
845.661	23368
845.798	23315
845.934	23326
846.07	23307
846.206	23277
846.342	23360
846.478	23151
846.614	23083
846.75	22957
846.886	23018
847.022	23018
847.158	22987
847.294	23109
847.429	23113
847.565	23052
847.701	23311
847.837	22790
847.972	22713
848.108	22790
848.244	22953
848.379	22611
848.515	22615
848.65	22611
848.786	22615
848.921	22683
849.057	22721
849.192	22653
849.328	22542
849.463	22580
849.598	22512
849.734	22538
849.869	22405
850.004	22390
850.14	22421
850.275	22306
850.41	22257
850.545	22489
850.68	22261
850.815	22318
850.95	22299
851.085	22405
851.22	22481
851.355	22344
851.49	22363
851.625	22348
851.76	22394
851.895	22424
852.03	22310
852.165	22382
852.299	22226
852.434	22474
852.569	22432
852.703	22527
852.838	22474
852.973	22500
853.107	22485
853.242	22284
853.376	22211
853.511	22124
853.645	22196
853.78	22409
853.914	22204
854.048	22143
854.183	22246
854.317	22177
854.451	22367
854.585	22192
854.72	22154
854.854	22261
854.988	22124
855.122	22234
855.256	22063
855.39	22234
855.524	22261
855.658	22329
855.792	22185
855.926	22196
856.06	22173
856.194	22337
856.327	22036
856.461	22154
856.595	22135
856.729	22238
856.862	22295
856.996	22291
857.13	22169
857.263	22417
857.397	22204
857.53	22154
857.664	22219
857.797	22284
857.931	22375
858.064	22306
858.197	22249
858.331	22139
858.464	22261
858.597	22063
858.731	22051
858.864	22280
858.997	22223
859.13	22173
859.263	22086
859.396	22344
859.529	22154
859.662	22257
859.795	22139
859.928	22219
860.061	22310
860.194	22253
860.327	22261
860.46	22147
860.592	22242
860.725	22337
860.858	22325
860.99	22230
861.123	22116
861.256	22188
861.388	22249
861.521	22946
861.653	22017
861.786	21911
861.918	22070
862.05	22196
862.183	22162
862.315	22074
862.447	22200
862.58	22150
862.712	21911
862.844	21915
862.976	22059
863.108	22055
863.24	22367
863.372	21865
863.504	21876
863.636	21899
863.768	21949
863.9	21949
864.032	21934
864.164	21895
864.296	21941
864.428	21941
864.559	22093
864.691	21850
864.823	21865
864.954	21907
865.086	21838
865.217	21774
865.349	21728
865.48	21724
865.612	21857
865.743	21934
865.875	21793
866.006	21713
866.137	21778
866.269	21759
866.4	21793
866.531	21770
866.662	21861
866.793	21679
866.924	21633
867.055	21842
867.186	21694
867.317	21694
867.448	21637
867.579	21682
867.71	21618
867.841	21504
867.972	21793
868.103	21747
868.233	21747
868.364	21637
868.495	21656
868.625	21857
868.756	22067
868.886	21842
869.017	22021
869.147	21968
869.278	22082
869.408	21895
869.539	21926
869.669	22040
869.799	21915
869.929	22112
870.06	22143
870.19	22207
870.32	22177
870.45	22348
870.58	22409
870.71	22459
870.84	22485
870.97	22417
871.1	22390
871.23	22497
871.36	22569
871.489	22390
871.619	22580
871.749	22459
871.879	22656
872.008	22603
872.138	22561
872.267	22550
872.397	22523
872.526	22402
872.656	22360
872.785	22432
872.915	22554
873.044	22664
873.173	22622
873.303	22599
873.432	22687
873.561	22691
873.69	22634
873.819	22508
873.948	22755
874.077	22603
874.206	22493
874.335	22531
874.464	22710
874.593	22664
874.722	22725
874.851	22752
874.979	22805
875.108	22797
875.237	22869
875.365	22691
875.494	22706
875.623	22843
875.751	22946
875.88	22835
876.008	22949
876.136	23003
876.265	23140
876.393	23265
876.521	23204
876.65	23299
876.778	23140
876.906	23189
877.034	23014
877.162	23041
877.29	23166
877.418	23075
877.546	23155
877.674	23105
877.802	23204
877.93	23090
878.058	23090
878.185	22972
878.313	23010
878.441	23109
878.568	23018
878.696	23132
878.824	23204
878.951	23132
879.079	23303
879.206	23436
879.333	23280
879.461	23258
879.588	23200
879.715	23220
879.842	23258
879.97	23174
880.097	22965
880.224	23006
880.351	23003
880.478	22915
880.605	22858
880.732	22927
880.859	23033
880.986	23014
881.112	22984
881.239	22881
881.366	22698
881.493	22622
881.619	22424
881.746	22588
881.872	22485
881.999	22493
882.125	22470
882.252	22634
882.378	22440
882.505	22508
882.631	22367
882.757	22253
882.883	22261
883.01	22207
883.136	22173
883.262	22143
883.388	22150
883.514	22230
883.64	22246
883.766	22048
883.892	21926
884.018	22116
884.143	22169
884.269	22314
884.395	21831
884.52	21656
884.646	21972
884.772	21755
884.897	21720
885.023	21880
885.148	21987
885.274	21884
885.399	21880
885.524	21854
885.65	21819
885.775	21808
885.9	21739
886.025	21922
886.15	21903
886.275	21732
886.4	21701
886.525	21755
886.65	21709
886.775	21682
886.9	21926
887.025	22074
887.149	21789
887.274	21675
887.399	21591
887.523	21606
887.648	21500
887.773	21230
887.897	21671
888.021	21648
888.146	21500
888.27	21656
888.395	21606
888.519	21671
888.643	21614
888.767	21572
888.891	21519
889.015	21279
889.139	21477
889.263	21359
889.387	21454
889.511	21504
889.635	21587
889.759	21298
889.883	21450
890.006	21336
890.13	21481
890.254	21249
890.377	21325
890.501	21112
890.624	21058
890.748	20941
890.871	21024
890.995	20857
891.118	20849
891.241	20921
891.364	20925
891.488	21039
891.611	20902
891.734	20941
891.857	20891
891.98	20895
892.103	20925
892.226	20853
892.349	20838
892.471	20716
892.594	20773
892.717	20876
892.839	20830
892.962	20944
893.085	20804
893.207	20853
893.33	20708
893.452	20701
893.575	20807
893.697	20788
893.819	20853
893.941	21032
894.064	20941
894.186	20853
894.308	20781
894.43	20883
894.552	20823
894.674	20842
894.796	20701
894.918	20834
895.04	20807
895.161	20845
895.283	20800
895.405	20674
895.526	20800
895.648	20811
895.769	20960
895.891	20819
896.012	20842
896.134	20819
896.255	20765
896.376	20689
896.498	20777
896.619	20781
896.74	20739
896.861	20857
896.982	21081
897.103	21161
897.224	21070
897.345	20895
897.466	20880
897.587	20921
897.708	21279
897.828	21157
897.949	20941
898.07	20823
898.19	21017
898.311	21047
898.431	20956
898.552	21150
898.672	21051
898.792	21020
898.913	21070
899.033	20880
899.153	20819
899.273	20788
899.393	20667
899.513	20773
899.633	20777
899.753	20739
899.873	20648
899.993	20781
900.113	20701
900.232	20632
900.352	20613
900.472	20583
900.591	20396
900.711	20438
900.83	20499
900.95	20541
901.069	20682
901.189	20339
901.308	20233
901.427	20153
901.546	20225
901.665	20020
901.784	20088
901.904	19970
902.023	20008
902.141	19552
902.26	19674
902.379	19681
902.498	19628
902.617	19639
902.735	19590
902.854	19407
902.973	19491
903.091	19293
903.21	19331
903.328	19168
903.446	19183
903.565	19061
903.683	19076
903.801	18901
903.919	19031
904.038	18954
904.156	18829
904.274	18901
904.392	18760
904.51	18749
904.627	18821
904.745	18795
904.863	18795
904.981	18673
905.098	18574
905.216	18525
905.334	18426
905.451	18509
905.569	18410
905.686	18612
905.803	18414
905.921	18266
906.038	18395
906.155	18266
906.272	18247
906.389	18235
906.506	18098
906.623	17893
906.74	17992
906.857	17904
906.974	17980
907.091	17984
907.208	18163
907.324	17999
907.441	17897
907.557	17646
907.674	17794
907.79	17703
907.907	17699
908.023	17745
908.139	17767
908.256	17726
908.372	17687
908.488	17661
908.604	17421
908.72	17478
908.836	17543
908.952	17459
909.068	17448
909.184	17638
909.3	17509
909.415	17524
909.531	17570
909.647	17353
909.762	17231
909.878	17193
909.993	17079
910.108	17136
910.224	17056
910.339	17094
910.454	17067
910.57	16946
910.685	16953
910.8	17197
910.915	17147
911.03	17003
911.145	16778
911.259	16736
911.374	16812
911.489	16679
911.604	16569
911.718	16455
911.833	16592
911.947	16432
912.062	16424
912.176	16596
912.291	16538
912.405	16443
912.519	16713
912.633	16733
912.748	16519
912.862	16519
912.976	16360
913.09	16207
913.204	16246
913.318	16371
913.431	16390
913.545	16310
913.659	16474
913.772	16265
913.886	16101
914	16071
914.113	16265
914.226	16207
914.34	16150
914.453	15960
914.566	16158
914.68	16006
914.793	15964
914.906	15766
915.019	15686
915.132	15660
915.245	15671
915.358	15720
915.47	15717
915.583	15637
915.696	15755
915.809	15884
915.921	15850
916.034	15618
916.146	15656
916.259	15625
916.371	15755
916.483	15637
916.595	15576
916.708	15530
916.82	15435
916.932	15431
917.044	15523
917.156	15462
917.268	15306
917.38	15382
917.491	15287
917.603	15348
917.715	15507
917.826	15428
917.938	15310
918.049	15214
918.161	15214
918.272	15370
918.384	15481
918.495	15302
918.606	15051
918.717	15062
918.828	15020
918.939	15150
919.05	14982
919.161	15005
919.272	14880
919.383	14948
919.494	15138
919.604	15275
919.715	15051
919.826	14963
919.936	15001
920.047	15165
920.157	14982
920.267	15131
920.378	15028
920.488	14929
920.598	15157
920.708	15435
920.818	15135
920.928	15154
921.038	15291
921.148	15252
921.258	14948
921.368	14891
921.477	14765
921.587	14735
921.697	14625
921.806	14834
921.916	14594
922.025	14450
922.134	14446
922.244	14278
922.353	14484
922.462	14358
922.571	14168
922.68	14069
922.789	14024
922.898	14058
923.007	13932
923.116	14020
923.224	14012
923.333	13856
923.442	13830
923.55	13837
923.659	13921
923.767	13921
923.876	13734
923.984	13871
924.092	13742
924.201	13746
924.309	13655
924.417	13784
924.525	13658
924.633	13639
924.741	14385
924.849	13495
924.956	13533
925.064	13472
925.172	13343
925.279	13468
925.387	13430
925.494	13396
925.602	13567
925.709	13392
925.816	13274
925.924	13403
926.031	13483
926.138	13350
926.245	13419
926.352	13278
926.459	13400
926.566	13369
926.673	13228
926.779	13141
926.886	13190
926.993	12989
927.099	12958
927.206	12939
927.312	12897
927.419	13015
927.525	13072
927.631	13019
927.737	12886
927.843	12856
927.95	12635
928.056	12734
928.162	12764
928.267	12768
928.373	13400
928.479	12863
928.585	12662
928.69	12757
928.796	12688
928.901	12654
929.007	12486
929.112	12665
929.218	12585
929.323	12612
929.428	12479
929.533	12582
929.638	12464
929.743	12369
929.848	12540
929.953	12448
930.058	12323
930.163	12209
930.267	12254
930.372	12330
930.477	12133
930.581	12350
930.685	12273
930.79	12007
930.894	12125
930.998	12003
931.103	12148
931.207	11836
931.311	11638
931.415	11623
931.519	11395
931.623	11356
