Data from test_V78500241_978.txt Node
Date: Fri Mar 25 15:48:34 CST 2022
User: usil
Spectrometer: V785-0024
Trigger mode: 0
Integration Time (sec): 4.000000E-1
Scans to average: 1
Nonlinearity correction enabled: false
Boxcar width: 0
Storing dark spectrum: false
XAxis mode: Wavelengths
Number of Pixels in Spectrum: 1024
>>>>>Begin Spectral Data<<<<<
801.071	28527
801.214	28459
801.356	28185
801.499	28154
801.641	28044
801.783	28002
801.926	28128
802.068	28093
802.211	27972
802.353	27987
802.496	27705
802.638	27671
802.78	27538
802.923	27724
803.065	27698
803.208	27679
803.35	27720
803.492	27755
803.635	27994
803.777	27926
803.919	27987
804.061	28211
804.204	28048
804.346	27857
804.488	27911
804.63	27994
804.773	27778
804.915	27987
805.057	28086
805.199	27949
805.341	28109
805.483	28211
805.626	28177
805.768	27956
805.91	27987
806.052	28158
806.194	27994
806.336	28276
806.478	28078
806.62	28021
806.762	28188
806.904	28371
807.046	28744
807.188	28694
807.33	28535
807.472	28622
807.614	28436
807.756	28622
807.898	28432
808.04	28318
808.182	28401
808.324	28462
808.465	28455
808.607	28679
808.749	28812
808.891	28919
809.033	28866
809.174	28968
809.316	28736
809.458	28828
809.6	28809
809.741	28987
809.883	28999
810.025	29170
810.166	28946
810.308	29296
810.45	29094
810.591	29048
810.733	28927
810.875	28759
811.016	28706
811.158	28611
811.299	28976
811.441	28995
811.582	28953
811.724	28869
811.865	28946
812.007	28774
812.148	28839
812.29	28972
812.431	28953
812.573	29200
812.714	29349
812.855	29391
812.997	29452
813.138	29573
813.279	29375
813.421	29379
813.562	29482
813.703	29178
813.845	29094
813.986	28767
814.127	28653
814.268	28508
814.41	28474
814.551	28485
814.692	28580
814.833	28489
814.974	28481
815.115	28592
815.256	28360
815.397	28280
815.539	28455
815.68	28268
815.821	28234
815.962	28234
816.103	28284
816.244	28207
816.385	28162
816.526	28040
816.666	28055
816.807	27663
816.948	27914
817.089	27918
817.23	27778
817.371	27888
817.512	27850
817.653	27766
817.793	27861
817.934	27865
818.075	27797
818.216	27766
818.356	27709
818.497	27690
818.638	27610
818.778	27523
818.919	27564
819.06	27671
819.2	27667
819.341	27880
819.481	27903
819.622	28051
819.762	28215
819.903	28169
820.043	27926
820.184	28109
820.324	27869
820.465	27960
820.605	27892
820.746	27937
820.886	27797
821.026	27914
821.167	27975
821.307	27922
821.447	27876
821.588	27823
821.728	27660
821.868	27507
822.008	27321
822.149	27336
822.289	27298
822.429	27131
822.569	27013
822.709	27119
822.849	26819
822.99	26895
823.13	26853
823.27	26777
823.41	26594
823.55	26537
823.69	26625
823.83	26735
823.97	26453
824.11	26476
824.25	26495
824.389	26427
824.529	26682
824.669	26476
824.809	26773
824.949	26644
825.089	26590
825.228	26583
825.368	26332
825.508	26339
825.648	26385
825.787	26305
825.927	26404
826.067	26362
826.206	26336
826.346	26492
826.485	26453
826.625	26457
826.765	26385
826.904	26453
827.044	26035
827.183	26039
827.323	26031
827.462	26180
827.601	26142
827.741	26115
827.88	26149
828.02	25921
828.159	26001
828.298	26065
828.437	26134
828.577	25955
828.716	26244
828.855	25955
828.994	25830
829.134	25788
829.273	25818
829.412	25582
829.551	25784
829.69	25613
829.829	25757
829.968	25879
830.107	25894
830.246	25769
830.385	25780
830.524	25841
830.663	25567
830.802	25464
830.941	25316
831.08	25445
831.219	25335
831.357	25430
831.496	25628
831.635	25377
831.774	25278
831.913	25270
832.051	25168
832.19	25194
832.329	25187
832.467	25141
832.606	25038
832.744	25053
832.883	25019
833.022	25015
833.16	25164
833.299	25084
833.437	25069
833.576	25175
833.714	25091
833.852	25301
833.991	25122
834.129	25171
834.267	25133
834.406	25198
834.544	25320
834.682	25069
834.821	25148
834.959	25301
835.097	25061
835.235	25061
835.373	25137
835.511	24951
835.65	25038
835.788	24863
835.926	24882
836.064	24730
836.202	24757
836.34	24920
836.478	24951
836.615	24966
836.753	24863
836.891	24894
837.029	24878
837.167	24798
837.305	24817
837.443	24920
837.58	24821
837.718	24894
837.856	24943
837.993	24608
838.131	24730
838.269	24589
838.406	24681
838.544	24509
838.681	24464
838.819	24483
838.956	24334
839.094	24243
839.231	24171
839.369	24452
839.506	24578
839.643	24448
839.781	24262
839.918	24224
840.055	24296
840.193	24277
840.33	24235
840.467	24209
840.604	24243
840.742	24403
840.879	24057
841.016	24133
841.153	24049
841.29	24338
841.427	24281
841.564	24106
841.701	24258
841.838	24064
841.975	24148
842.112	24140
842.249	24110
842.385	23931
842.522	24190
842.659	24011
842.796	23809
842.933	23935
843.069	23813
843.206	23961
843.343	23923
843.479	23882
843.616	23836
843.752	23691
843.889	23661
844.025	23802
844.162	23665
844.298	23859
844.435	23619
844.571	23726
844.708	23737
844.844	23798
844.98	23786
845.117	23786
845.253	23684
845.389	23528
845.525	23661
845.661	23592
845.798	23425
845.934	23467
846.07	23417
846.206	23425
846.342	23463
846.478	23520
846.614	23189
846.75	23143
846.886	23208
847.022	23265
847.158	23200
847.294	23220
847.429	23124
847.565	23140
847.701	23364
847.837	22904
847.972	22839
848.108	22942
848.244	22946
848.379	22915
848.515	22778
848.65	22748
848.786	22801
848.921	22869
849.057	22812
849.192	22835
849.328	22820
849.463	22706
849.598	22740
849.734	22672
849.869	22584
850.004	22489
850.14	22531
850.275	22428
850.41	22379
850.545	22341
850.68	22428
850.815	22508
850.95	22424
851.085	22656
851.22	22641
851.355	22611
851.49	22577
851.625	22363
851.76	22428
851.895	22390
852.03	22527
852.165	22577
852.299	22527
852.434	22679
852.569	22634
852.703	22592
852.838	22577
852.973	22668
853.107	22557
853.242	22504
853.376	22249
853.511	22181
853.645	22238
853.78	22276
853.914	22352
854.048	22291
854.183	22253
854.317	22314
854.451	22573
854.585	22246
854.72	22234
854.854	22409
854.988	22192
855.122	22242
855.256	22078
855.39	22291
855.524	22284
855.658	22405
855.792	22310
855.926	22390
856.06	22344
856.194	22329
856.327	22367
856.461	22211
856.595	22192
856.729	22318
856.862	22360
856.996	22280
857.13	22329
857.263	22447
857.397	22382
857.53	22337
857.664	22295
857.797	22287
857.931	22428
858.064	22375
858.197	22360
858.331	22276
858.464	22257
858.597	22219
858.731	22185
858.864	22276
858.997	22230
859.13	22276
859.263	22386
859.396	22459
859.529	22150
859.662	22421
859.795	22196
859.928	22249
860.061	22379
860.194	22459
860.327	22440
860.46	22360
860.592	22432
860.725	22500
860.858	22538
860.99	22337
861.123	22280
861.256	22242
861.388	22310
861.521	22953
861.653	22234
861.786	22070
861.918	22116
862.05	22223
862.183	22196
862.315	22291
862.447	22306
862.58	22200
862.712	22006
862.844	22017
862.976	22223
863.108	22124
863.24	22478
863.372	21850
863.504	21968
863.636	22032
863.768	21972
863.9	22070
864.032	22010
864.164	21968
864.296	22070
864.428	22185
864.559	21994
864.691	22124
864.823	22067
864.954	21968
865.086	21991
865.217	21907
865.349	21747
865.48	21930
865.612	21949
865.743	22090
865.875	21975
866.006	21888
866.137	21953
866.269	21774
866.4	21941
866.531	21838
866.662	21732
866.793	21808
866.924	21861
867.055	21739
867.186	21873
867.317	21808
867.448	21743
867.579	21903
867.71	21793
867.841	21728
867.972	21800
868.103	21743
868.233	21831
868.364	21884
868.495	21975
868.625	22177
868.756	22078
868.886	21842
869.017	21994
869.147	22234
869.278	22230
869.408	22021
869.539	22101
869.669	22181
869.799	22173
869.929	22230
870.06	22128
870.19	22291
870.32	22344
870.45	22394
870.58	22386
870.71	22607
870.84	22687
870.97	22584
871.1	22398
871.23	22664
871.36	22577
871.489	22668
871.619	22615
871.749	22683
871.879	22778
872.008	22588
872.138	22596
872.267	22717
872.397	22588
872.526	22436
872.656	22352
872.785	22440
872.915	22759
873.044	22809
873.173	22786
873.303	22752
873.432	22733
873.561	22782
873.69	22721
873.819	22641
873.948	22755
874.077	22740
874.206	22653
874.335	22603
874.464	22801
874.593	22938
874.722	22847
874.851	22900
874.979	22938
875.108	22919
875.237	22759
875.365	22733
875.494	22862
875.623	22911
875.751	22919
875.88	23018
876.008	23010
876.136	23094
876.265	23269
876.393	23398
876.521	23353
876.65	23429
876.778	23311
876.906	23239
877.034	23273
877.162	23212
877.29	23254
877.418	23239
877.546	23166
877.674	23204
877.802	23204
877.93	23155
878.058	23155
878.185	23181
878.313	23037
878.441	23220
878.568	22984
878.696	23105
878.824	23151
878.951	23315
879.079	23486
879.206	23433
879.333	23425
879.461	23239
879.588	23296
879.715	23398
879.842	23570
879.97	23284
880.097	23014
880.224	23048
880.351	23033
880.478	23025
880.605	22953
880.732	22976
880.859	23235
880.986	23071
881.112	23025
881.239	22809
881.366	22797
881.493	22687
881.619	22675
881.746	22694
881.872	22615
881.999	22580
882.125	22603
882.252	22660
882.378	22462
882.505	22782
882.631	22436
882.757	22215
882.883	22379
883.01	22242
883.136	22211
883.262	22238
883.388	22215
883.514	22428
883.64	22291
883.766	22093
883.892	21979
884.018	22112
884.143	22166
884.269	22303
884.395	21994
884.52	21873
884.646	21998
884.772	21926
884.897	21812
885.023	21895
885.148	22063
885.274	22017
885.399	21964
885.524	21850
885.65	21937
885.775	21945
885.9	21991
886.025	22067
886.15	22036
886.275	21926
886.4	21842
886.525	21831
886.65	21873
886.775	21831
886.9	21854
887.025	22048
887.149	21987
887.274	21755
887.399	21622
887.523	21622
887.648	21557
887.773	21485
887.897	21652
888.021	21709
888.146	21633
888.27	21755
888.395	21876
888.519	21625
888.643	21660
888.767	21686
888.891	21557
889.015	21504
889.139	21519
889.263	21450
889.387	21606
889.511	21751
889.635	21682
889.759	21382
889.883	21530
890.006	21477
890.13	21603
890.254	21420
890.377	21424
890.501	21184
890.624	21116
890.748	21348
890.871	21104
890.995	20960
891.118	20880
891.241	21013
891.364	21043
891.488	21089
891.611	21051
891.734	20994
891.857	20967
891.98	21032
892.103	21039
892.226	20986
892.349	20925
892.471	20826
892.594	20990
892.717	21001
892.839	20899
892.962	20979
893.085	20960
893.207	20849
893.33	20720
893.452	20815
893.575	20868
893.697	20910
893.819	21085
893.941	20994
894.064	21043
894.186	20823
894.308	20815
894.43	20887
894.552	21043
894.674	20941
894.796	20849
894.918	20845
895.04	20902
895.161	20792
895.283	20891
895.405	20807
895.526	20979
895.648	20861
895.769	20944
895.891	20921
896.012	20979
896.134	20880
896.255	20910
896.376	20880
896.498	20910
896.619	20944
896.74	20807
896.861	20914
896.982	21298
897.103	21321
897.224	21195
897.345	21020
897.466	21100
897.587	21032
897.708	21237
897.828	21135
897.949	21089
898.07	20823
898.19	20952
898.311	21161
898.431	21077
898.552	21074
898.672	21157
898.792	21108
898.913	21077
899.033	21131
899.153	20941
899.273	20819
899.393	20952
899.513	20826
899.633	20838
899.753	20883
899.873	20743
899.993	20861
900.113	20765
900.232	20807
900.352	20636
900.472	20621
900.591	20651
900.711	20663
900.83	20674
900.95	20724
901.069	20663
901.189	20545
901.308	20195
901.427	20016
901.546	20149
901.665	20263
901.784	20164
901.904	20012
902.023	20039
902.141	19727
902.26	19719
902.379	19807
902.498	19616
902.617	19552
902.735	19689
902.854	19639
902.973	19495
903.091	19343
903.21	19274
903.328	19289
903.446	19152
903.565	19091
903.683	19168
903.801	19046
903.919	19034
904.038	19004
904.156	18958
904.274	18897
904.392	18935
904.51	18947
904.627	18973
904.745	18897
904.863	18951
904.981	18726
905.098	18665
905.216	18574
905.334	18620
905.451	18642
905.569	18585
905.686	18559
905.803	18540
905.921	18281
906.038	18536
906.155	18456
906.272	18220
906.389	18228
906.506	18083
906.623	18190
906.74	18022
906.857	18053
906.974	18053
907.091	18167
907.208	18163
907.324	18178
907.441	17901
907.557	17836
907.674	17828
907.79	17718
907.907	17661
908.023	17798
908.139	17802
908.256	17707
908.372	17665
908.488	17585
908.604	17642
908.72	17486
908.836	17573
908.952	17425
909.068	17497
909.184	17604
909.3	17497
909.415	17528
909.531	17425
909.647	17242
909.762	17178
909.878	17185
909.993	17147
910.108	17204
910.224	17212
910.339	17235
910.454	16984
910.57	17014
910.685	16904
910.8	17292
910.915	17250
911.03	17010
911.145	16790
911.259	16862
911.374	16778
911.489	16755
911.604	16641
911.718	16523
911.833	16592
911.947	16443
912.062	16363
912.176	16531
912.291	16561
912.405	16565
912.519	16721
912.633	16752
912.748	16565
912.862	16432
912.976	16405
913.09	16177
913.204	16367
913.318	16261
913.431	16523
913.545	16436
913.659	16413
913.772	16337
913.886	16291
914	16169
914.113	16257
914.226	16318
914.34	16188
914.453	16200
914.566	16135
914.68	16067
914.793	16029
914.906	15717
915.019	15778
915.132	15660
915.245	15835
915.358	15778
915.47	15682
915.583	15797
915.696	15781
915.809	15819
915.921	15903
916.034	15648
916.146	15618
916.259	15629
916.371	15686
916.483	15675
916.595	15603
916.708	15553
916.82	15549
916.932	15561
917.044	15530
917.156	15485
917.268	15424
917.38	15424
917.491	15382
917.603	15367
917.715	15454
917.826	15504
917.938	15363
918.049	15214
918.161	15256
918.272	15500
918.384	15584
918.495	15382
918.606	15112
918.717	15138
918.828	15081
918.939	15157
919.05	15070
919.161	15123
919.272	14937
919.383	14998
919.494	15039
919.604	15287
919.715	15173
919.826	15093
919.936	15074
920.047	15173
920.157	15081
920.267	15252
920.378	15097
920.488	15055
920.598	15279
920.708	15363
920.818	15237
920.928	15161
921.038	15344
921.148	15313
921.258	15013
921.368	14971
921.477	14826
921.587	14815
921.697	14701
921.806	14842
921.916	14663
922.025	14465
922.134	14412
922.244	14412
922.353	14461
922.462	14412
922.571	14259
922.68	14100
922.789	14130
922.898	14138
923.007	13947
923.116	14088
923.224	14111
923.333	14069
923.442	13955
923.55	13788
923.659	13951
923.767	13947
923.876	13830
923.984	13932
924.092	13864
924.201	13841
924.309	13837
924.417	13849
924.525	13761
924.633	13715
924.741	14716
924.849	13559
924.956	13715
925.064	13556
925.172	13415
925.279	13449
925.387	13537
925.494	13407
925.602	13514
925.709	13457
925.816	13335
925.924	13468
926.031	13460
926.138	13411
926.245	13411
926.352	13266
926.459	13491
926.566	13457
926.673	13285
926.779	13251
926.886	13259
926.993	13065
927.099	13008
927.206	12905
927.312	12939
927.419	13015
927.525	12943
927.631	13088
927.737	12867
927.843	12859
927.95	12703
928.056	12806
928.162	12878
928.267	12932
928.373	13369
928.479	12916
928.585	12650
928.69	12757
928.796	12829
928.901	12673
929.007	12563
929.112	12631
929.218	12696
929.323	12585
929.428	12578
929.533	12776
929.638	12551
929.743	12547
929.848	12528
929.953	12475
930.058	12391
930.163	12224
930.267	12209
930.372	12376
930.477	12254
930.581	12437
930.685	12190
930.79	12117
930.894	12148
930.998	12102
931.103	12205
931.207	11866
931.311	11802
931.415	11676
931.519	11524
931.623	11417
