Data from test_V78500241_1080.txt Node
Date: Fri Mar 25 15:49:16 CST 2022
User: usil
Spectrometer: V785-0024
Trigger mode: 0
Integration Time (sec): 4.000000E-1
Scans to average: 1
Nonlinearity correction enabled: false
Boxcar width: 0
Storing dark spectrum: false
XAxis mode: Wavelengths
Number of Pixels in Spectrum: 1024
>>>>>Begin Spectral Data<<<<<
801.071	28344
801.214	28143
801.356	28055
801.499	27987
801.641	27937
801.783	27759
801.926	27941
802.068	27953
802.211	27755
802.353	27812
802.496	27633
802.638	27580
802.78	27534
802.923	27591
803.065	27427
803.208	27515
803.35	27519
803.492	27633
803.635	27701
803.777	27549
803.919	27797
804.061	28177
804.204	27793
804.346	27633
804.488	27686
804.63	27781
804.773	27553
804.915	27747
805.057	27812
805.199	27823
805.341	27770
805.483	27808
805.626	27873
805.768	27781
805.91	27922
806.052	27922
806.194	27789
806.336	28006
806.478	27968
806.62	27972
806.762	28124
806.904	28131
807.046	28386
807.188	28356
807.33	28462
807.472	28440
807.614	28337
807.756	28295
807.898	28131
808.04	28185
808.182	28109
808.324	28371
808.465	28249
808.607	28470
808.749	28538
808.891	28820
809.033	28694
809.174	28694
809.316	28588
809.458	28557
809.6	28512
809.741	28626
809.883	28831
810.025	28930
810.166	28873
810.308	28892
810.45	28885
810.591	28938
810.733	28641
810.875	28599
811.016	28424
811.158	28531
811.299	28713
811.441	28801
811.582	28771
811.724	28569
811.865	28516
812.007	28592
812.148	28550
812.29	28584
812.431	28805
812.573	28968
812.714	28999
812.855	29124
812.997	29292
813.138	29277
813.279	29261
813.421	29147
813.562	29159
813.703	29102
813.845	28847
813.986	28538
814.127	28508
814.268	28337
814.41	28417
814.551	28211
814.692	28432
814.833	28379
814.974	28360
815.115	28200
815.256	28360
815.397	28181
815.539	28120
815.68	28025
815.821	28044
815.962	28200
816.103	28067
816.244	28006
816.385	27888
816.526	27888
816.666	27709
816.807	27545
816.948	27736
817.089	27709
817.23	27694
817.371	27743
817.512	27583
817.653	27519
817.793	27561
817.934	27519
818.075	27545
818.216	27637
818.356	27599
818.497	27439
818.638	27355
818.778	27351
818.919	27454
819.06	27298
819.2	27397
819.341	27477
819.481	27534
819.622	27762
819.762	28055
819.903	27922
820.043	27789
820.184	27667
820.324	27553
820.465	27804
820.605	27793
820.746	27747
820.886	27568
821.026	27694
821.167	27587
821.307	27793
821.447	27603
821.588	27530
821.728	27469
821.868	27317
822.008	26990
822.149	27047
822.289	27165
822.429	26842
822.569	26754
822.709	26804
822.849	26552
822.99	26667
823.13	26602
823.27	26530
823.41	26465
823.55	26332
823.69	26511
823.83	26355
823.97	26404
824.11	26237
824.25	26145
824.389	26408
824.529	26339
824.669	26305
824.809	26385
824.949	26404
825.089	26294
825.228	26385
825.368	26035
825.508	26153
825.648	26081
825.787	26122
825.927	26191
826.067	26046
826.206	26119
826.346	26157
826.485	26233
826.625	26103
826.765	26324
826.904	26134
827.044	25883
827.183	25959
827.323	25734
827.462	25978
827.601	25830
827.741	25776
827.88	25860
828.02	25715
828.159	25807
828.298	25803
828.437	25932
828.577	25750
828.716	26001
828.855	25788
828.994	25468
829.134	25430
829.273	25495
829.412	25411
829.551	25556
829.69	25460
829.829	25613
829.968	25586
830.107	25704
830.246	25540
830.385	25499
830.524	25411
830.663	25282
830.802	25171
830.941	25133
831.08	25126
831.219	25168
831.357	25187
831.496	25247
831.635	25053
831.774	25133
831.913	24996
832.051	24814
832.19	24806
832.329	24954
832.467	24741
832.606	24677
832.744	24707
832.883	24890
833.022	24814
833.16	24825
833.299	24768
833.437	24734
833.576	24897
833.714	24871
833.852	24890
833.991	24844
834.129	24817
834.267	25034
834.406	24875
834.544	24863
834.682	24924
834.821	24726
834.959	24932
835.097	24772
835.235	24863
835.373	24935
835.511	24798
835.65	24787
835.788	24730
835.926	24547
836.064	24582
836.202	24502
836.34	24810
836.478	24787
836.615	24642
836.753	24547
836.891	24726
837.029	24604
837.167	24703
837.305	24642
837.443	24517
837.58	24433
837.718	24688
837.856	24528
837.993	24388
838.131	24486
838.269	24270
838.406	24399
838.544	24365
838.681	24186
838.819	24171
838.956	24041
839.094	23939
839.231	24106
839.369	24163
839.506	24464
839.643	24292
839.781	24038
839.918	23954
840.055	23996
840.193	24003
840.33	23984
840.467	23977
840.604	23904
840.742	24144
840.879	23794
841.016	23764
841.153	23729
841.29	23965
841.427	23851
841.564	23901
841.701	23977
841.838	23760
841.975	23847
842.112	23866
842.249	23707
842.385	23611
842.522	23946
842.659	23764
842.796	23726
842.933	23691
843.069	23558
843.206	23581
843.343	23646
843.479	23676
843.616	23649
843.752	23421
843.889	23395
844.025	23672
844.162	23444
844.298	23528
844.435	23455
844.571	23395
844.708	23406
844.844	23646
844.98	23486
845.117	23589
845.253	23356
845.389	23337
845.525	23341
845.661	23406
845.798	23178
845.934	23155
846.07	23071
846.206	23155
846.342	23334
846.478	23261
846.614	22812
846.75	22885
846.886	22866
847.022	22930
847.158	22915
847.294	23044
847.429	22866
847.565	22839
847.701	23075
847.837	22618
847.972	22626
848.108	22717
848.244	22698
848.379	22538
848.515	22523
848.65	22405
848.786	22489
848.921	22557
849.057	22607
849.192	22599
849.328	22535
849.463	22424
849.598	22363
849.734	22348
849.869	22398
850.004	22090
850.14	22272
850.275	22230
850.41	22059
850.545	22173
850.68	22268
850.815	22219
850.95	22261
851.085	22409
851.22	22402
851.355	22135
851.49	22162
851.625	22135
851.76	22265
851.895	22063
852.03	22211
852.165	22109
852.299	22287
852.434	22242
852.569	22295
852.703	22284
852.838	22284
852.973	22295
853.107	22314
853.242	22261
853.376	22147
853.511	21991
853.645	21972
853.78	22078
853.914	21964
854.048	21994
854.183	21994
854.317	22200
854.451	22238
854.585	21998
854.72	22097
854.854	22017
854.988	22101
855.122	21998
855.256	21930
855.39	21911
855.524	22135
855.658	22044
855.792	22010
855.926	22101
856.06	22070
856.194	22181
856.327	21998
856.461	21979
856.595	22013
856.729	22120
856.862	22185
856.996	22131
857.13	22078
857.263	22139
857.397	22150
857.53	22048
857.664	22112
857.797	22192
857.931	22207
858.064	22112
858.197	22242
858.331	22040
858.464	21983
858.597	21968
858.731	22025
858.864	21922
858.997	22162
859.13	22036
859.263	22166
859.396	22097
859.529	21953
859.662	21983
859.795	22036
859.928	22074
860.061	22291
860.194	22265
860.327	22097
860.46	21998
860.592	22341
860.725	22211
860.858	22112
860.99	22070
861.123	21972
861.256	21972
861.388	22067
861.521	22755
861.653	21907
861.786	21800
861.918	21892
862.05	21800
862.183	21937
862.315	21983
862.447	21994
862.58	22048
862.712	21713
862.844	21865
862.976	21857
863.108	21804
863.24	22185
863.372	21686
863.504	21755
863.636	21743
863.768	21819
863.9	21762
864.032	21641
864.164	21587
864.296	21800
864.428	21907
864.559	21781
864.691	21842
864.823	21739
864.954	21705
865.086	21701
865.217	21717
865.349	21526
865.48	21732
865.612	21705
865.743	21797
865.875	21641
866.006	21625
866.137	21671
866.269	21698
866.4	21545
866.531	21568
866.662	21462
866.793	21511
866.924	21534
867.055	21538
867.186	21572
867.317	21519
867.448	21523
867.579	21610
867.71	21420
867.841	21473
867.972	21660
868.103	21717
868.233	21542
868.364	21542
868.495	21720
868.625	21766
868.756	21873
868.886	21629
869.017	21793
869.147	21983
869.278	21937
869.408	21778
869.539	21789
869.669	21873
869.799	21785
869.929	21884
870.06	21953
870.19	22147
870.32	22116
870.45	22181
870.58	22276
870.71	22299
870.84	22253
870.97	22185
871.1	22268
871.23	22325
871.36	22474
871.489	22299
871.619	22356
871.749	22443
871.879	22466
872.008	22508
872.138	22375
872.267	22318
872.397	22337
872.526	22169
872.656	22249
872.785	22177
872.915	22402
873.044	22405
873.173	22375
873.303	22398
873.432	22470
873.561	22470
873.69	22504
873.819	22402
873.948	22489
874.077	22344
874.206	22382
874.335	22546
874.464	22481
874.593	22698
874.722	22618
874.851	22557
874.979	22736
875.108	22641
875.237	22561
875.365	22508
875.494	22500
875.623	22717
875.751	22641
875.88	22706
876.008	22797
876.136	22900
876.265	23170
876.393	23258
876.521	23109
876.65	23242
876.778	23086
876.906	23094
877.034	22953
877.162	22869
877.29	22965
877.418	23083
877.546	23025
877.674	22972
877.802	22965
877.93	22904
878.058	22984
878.185	22847
878.313	22835
878.441	22915
878.568	22820
878.696	22915
878.824	23056
878.951	23044
879.079	23098
879.206	23258
879.333	23071
879.461	23033
879.588	23083
879.715	23128
879.842	23258
879.97	22995
880.097	22702
880.224	22736
880.351	22858
880.478	22778
880.605	22611
880.732	22733
880.859	22968
880.986	22812
881.112	22801
881.239	22687
881.366	22607
881.493	22447
881.619	22291
881.746	22440
881.872	22325
881.999	22325
882.125	22272
882.252	22455
882.378	22322
882.505	22432
882.631	22219
882.757	22196
882.883	22215
883.01	22067
883.136	22128
883.262	21880
883.388	21884
883.514	22036
883.64	22063
883.766	22032
883.892	21759
884.018	21846
884.143	22101
884.269	21987
884.395	21781
884.52	21739
884.646	21755
884.772	21637
884.897	21523
885.023	21759
885.148	21724
885.274	21781
885.399	21804
885.524	21720
885.65	21667
885.775	21736
885.9	21614
886.025	21800
886.15	21686
886.275	21553
886.4	21530
886.525	21736
886.65	21568
886.775	21625
886.9	21850
887.025	21884
887.149	21675
887.274	21530
887.399	21511
887.523	21534
887.648	21466
887.773	21344
887.897	21519
888.021	21492
888.146	21416
888.27	21557
888.395	21500
888.519	21469
888.643	21530
888.767	21401
888.891	21439
889.015	21348
889.139	21355
889.263	21287
889.387	21424
889.511	21447
889.635	21439
889.759	21218
889.883	21283
890.006	21294
890.13	21363
890.254	21226
890.377	21165
890.501	21024
890.624	21047
890.748	20963
890.871	20918
890.995	20830
891.118	20750
891.241	20792
891.364	20929
891.488	20960
891.611	20807
891.734	20716
891.857	20941
891.98	20857
892.103	20845
892.226	20792
892.349	20727
892.471	20552
892.594	20686
892.717	20708
892.839	20663
892.962	20731
893.085	20815
893.207	20655
893.33	20632
893.452	20731
893.575	20682
893.697	20621
893.819	20765
893.941	20982
894.064	20849
894.186	20663
894.308	20678
894.43	20815
894.552	20914
894.674	20758
894.796	20552
894.918	20754
895.04	20674
895.161	20788
895.283	20689
895.405	20492
895.526	20613
895.648	20716
895.769	20606
895.891	20606
896.012	20785
896.134	20693
896.255	20655
896.376	20602
896.498	20777
896.619	20765
896.74	20788
896.861	20686
896.982	21070
897.103	21116
897.224	20921
897.345	20944
897.466	20891
897.587	20853
897.708	20971
897.828	20929
897.949	20823
898.07	20804
898.19	20876
898.311	21005
898.431	20830
898.552	20872
898.672	21058
898.792	20994
898.913	20857
899.033	20785
899.153	20587
899.273	20549
899.393	20632
899.513	20651
899.633	20636
899.753	20777
899.873	20617
899.993	20682
900.113	20465
900.232	20564
900.352	20530
900.472	20522
900.591	20374
900.711	20400
900.83	20488
900.95	20640
901.069	20575
901.189	20298
901.308	20081
901.427	19967
901.546	19955
901.665	20054
901.784	20092
901.904	19818
902.023	19769
902.141	19620
902.26	19506
902.379	19556
902.498	19453
902.617	19468
902.735	19487
902.854	19438
902.973	19335
903.091	19225
903.21	19171
903.328	19088
903.446	19012
903.565	18916
903.683	18932
903.801	18913
903.919	18859
904.038	18772
904.156	18791
904.274	18795
904.392	18757
904.51	18696
904.627	18635
904.745	18669
904.863	18776
904.981	18494
905.098	18395
905.216	18418
905.334	18563
905.451	18372
905.569	18372
905.686	18414
905.803	18365
905.921	18178
906.038	18224
906.155	18197
906.272	18106
906.389	18072
906.506	17973
906.623	17950
906.74	17885
906.857	17843
906.974	17687
907.091	17973
907.208	18026
907.324	17923
907.441	17733
907.557	17551
907.674	17611
907.79	17551
907.907	17691
908.023	17729
908.139	17600
908.256	17573
908.372	17501
908.488	17482
908.604	17318
908.72	17318
908.836	17341
908.952	17242
909.068	17296
909.184	17364
909.3	17261
909.415	17254
909.531	17280
909.647	17060
909.762	17090
909.878	16938
909.993	17079
910.108	16953
910.224	16896
910.339	17041
910.454	16771
910.57	16839
910.685	16820
910.8	17025
910.915	16987
911.03	16869
911.145	16713
911.259	16634
911.374	16653
911.489	16580
911.604	16432
911.718	16352
911.833	16443
911.947	16314
912.062	16196
912.176	16341
912.291	16367
912.405	16440
912.519	16512
912.633	16561
912.748	16394
912.862	16371
912.976	16131
913.09	15998
913.204	16112
913.318	16181
913.431	16253
913.545	16154
913.659	16109
913.772	16128
913.886	15915
914	15991
914.113	15956
914.226	16090
914.34	15918
914.453	15873
914.566	15968
914.68	15876
914.793	15766
914.906	15770
915.019	15534
915.132	15447
915.245	15564
915.358	15587
915.47	15557
915.583	15614
915.696	15557
915.809	15526
915.921	15599
916.034	15473
916.146	15523
916.259	15515
916.371	15492
916.483	15580
916.595	15401
916.708	15367
916.82	15325
916.932	15313
917.044	15363
917.156	15344
917.268	15203
917.38	15188
917.491	15135
917.603	15222
917.715	15279
917.826	15344
917.938	15203
918.049	15074
918.161	15123
918.272	15313
918.384	15207
918.495	15062
918.606	14986
918.717	15001
918.828	15036
918.939	14925
919.05	14819
919.161	14800
919.272	14705
919.383	14830
919.494	15058
919.604	15180
919.715	14994
919.826	14830
919.936	14887
920.047	15024
920.157	14883
920.267	15112
920.378	14785
920.488	14838
920.598	15062
920.708	15264
920.818	15085
920.928	15028
921.038	15176
921.148	15154
921.258	14857
921.368	14857
921.477	14632
921.587	14758
921.697	14514
921.806	14674
921.916	14556
922.025	14332
922.134	14381
922.244	14206
922.353	14328
922.462	14221
922.571	14100
922.68	14058
922.789	13970
922.898	13917
923.007	13894
923.116	14005
923.224	13887
923.333	13814
923.442	13818
923.55	13753
923.659	13769
923.767	13833
923.876	13742
923.984	13791
924.092	13628
924.201	13689
924.309	13708
924.417	13776
924.525	13670
924.633	13605
924.741	14317
924.849	13407
924.956	13525
925.064	13362
925.172	13327
925.279	13304
925.387	13396
925.494	13312
925.602	13548
925.709	13422
925.816	13206
925.924	13346
926.031	13316
926.138	13278
926.245	13331
926.352	13228
926.459	13320
926.566	13369
926.673	13255
926.779	13061
926.886	13149
926.993	12939
927.099	12928
927.206	12821
927.312	12852
927.419	12985
927.525	12916
927.631	12909
927.737	12711
927.843	12768
927.95	12608
928.056	12662
928.162	12764
928.267	12749
928.373	13247
928.479	12707
928.585	12544
928.69	12627
928.796	12703
928.901	12646
929.007	12475
929.112	12486
929.218	12540
929.323	12441
929.428	12399
929.533	12601
929.638	12388
929.743	12395
929.848	12448
929.953	12395
930.058	12372
930.163	12087
930.267	12072
930.372	12251
930.477	12057
930.581	12266
930.685	12171
930.79	11878
930.894	11935
930.998	11961
931.103	12148
931.207	11695
931.311	11729
931.415	11581
931.519	11353
931.623	11284
