Data from test_V78500241_1364.txt Node
Date: Fri Mar 25 15:51:15 CST 2022
User: usil
Spectrometer: V785-0024
Trigger mode: 0
Integration Time (sec): 4.000000E-1
Scans to average: 1
Nonlinearity correction enabled: false
Boxcar width: 0
Storing dark spectrum: false
XAxis mode: Wavelengths
Number of Pixels in Spectrum: 1024
>>>>>Begin Spectral Data<<<<<
801.071	28314
801.214	28154
801.356	27911
801.499	27979
801.641	27819
801.783	27914
801.926	27854
802.068	27781
802.211	27641
802.353	27648
802.496	27439
802.638	27500
802.78	27431
802.923	27427
803.065	27313
803.208	27348
803.35	27401
803.492	27663
803.635	27800
803.777	27625
803.919	27690
804.061	28059
804.204	27603
804.346	27595
804.488	27606
804.63	27618
804.773	27641
804.915	27743
805.057	27812
805.199	27633
805.341	27698
805.483	27964
805.626	27854
805.768	27778
805.91	27854
806.052	27907
806.194	27888
806.336	27991
806.478	27979
806.62	27736
806.762	28002
806.904	28078
807.046	28284
807.188	28310
807.33	28105
807.472	28257
807.614	28265
807.756	28223
807.898	28196
808.04	28135
808.182	28067
808.324	28204
808.465	28242
808.607	28447
808.749	28500
808.891	28596
809.033	28577
809.174	28596
809.316	28432
809.458	28348
809.6	28363
809.741	28660
809.883	28721
810.025	28828
810.166	28748
810.308	28801
810.45	28866
810.591	28774
810.733	28607
810.875	28554
811.016	28360
811.158	28519
811.299	28626
811.441	28573
811.582	28729
811.724	28500
811.865	28455
812.007	28493
812.148	28599
812.29	28645
812.431	28698
812.573	28900
812.714	28987
812.855	29113
812.997	29067
813.138	29189
813.279	29170
813.421	29060
813.562	28877
813.703	28812
813.845	28637
813.986	28542
814.127	28405
814.268	28112
814.41	28325
814.551	28166
814.692	28265
814.833	28196
814.974	28097
815.115	28173
815.256	28021
815.397	28192
815.539	28120
815.68	27991
815.821	28010
815.962	27994
816.103	27937
816.244	27743
816.385	27831
816.526	27739
816.666	27652
816.807	27424
816.948	27549
817.089	27705
817.23	27538
817.371	27485
817.512	27595
817.653	27477
817.793	27340
817.934	27606
818.075	27622
818.216	27485
818.356	27412
818.497	27344
818.638	27211
818.778	27230
818.919	27222
819.06	27332
819.2	27454
819.341	27473
819.481	27523
819.622	27583
819.762	27831
819.903	27686
820.043	27827
820.184	27770
820.324	27564
820.465	27519
820.605	27583
820.746	27530
820.886	27576
821.026	27587
821.167	27534
821.307	27679
821.447	27530
821.588	27466
821.728	27287
821.868	27127
822.008	26967
822.149	26994
822.289	26971
822.429	26727
822.569	26640
822.709	26773
822.849	26442
822.99	26514
823.13	26526
823.27	26419
823.41	26233
823.55	26180
823.69	26484
823.83	26256
823.97	26404
824.11	26237
824.25	26096
824.389	26252
824.529	26126
824.669	26183
824.809	26305
824.949	26161
825.089	26233
825.228	26259
825.368	25974
825.508	26069
825.648	25936
825.787	26183
825.927	26069
826.067	25906
826.206	25921
826.346	26054
826.485	26115
826.625	26157
826.765	26107
826.904	26031
827.044	25795
827.183	25674
827.323	25765
827.462	25814
827.601	25677
827.741	25708
827.88	25734
828.02	25518
828.159	25651
828.298	25788
828.437	25738
828.577	25731
828.716	25852
828.855	25510
828.994	25445
829.134	25460
829.273	25483
829.412	25407
829.551	25354
829.69	25373
829.829	25400
829.968	25468
830.107	25403
830.246	25502
830.385	25289
830.524	25274
830.663	25156
830.802	25015
830.941	25076
831.08	25053
831.219	25012
831.357	25072
831.496	25316
831.635	25110
831.774	24878
831.913	24977
832.051	24787
832.19	24833
832.329	24825
832.467	24795
832.606	24623
832.744	24779
832.883	24684
833.022	24532
833.16	24681
833.299	24669
833.437	24707
833.576	24825
833.714	24764
833.852	24741
833.991	24913
834.129	24779
834.267	24852
834.406	24795
834.544	24700
834.682	24848
834.821	24798
834.959	24779
835.097	24616
835.235	24669
835.373	24757
835.511	24776
835.65	24517
835.788	24467
835.926	24437
836.064	24357
836.202	24464
836.34	24623
836.478	24604
836.615	24475
836.753	24608
836.891	24658
837.029	24525
837.167	24471
837.305	24498
837.443	24448
837.58	24414
837.718	24479
837.856	24452
837.993	24460
838.131	24350
838.269	24342
838.406	24270
838.544	24209
838.681	24026
838.819	24057
838.956	23836
839.094	23863
839.231	23920
839.369	24030
839.506	24346
839.643	24213
839.781	23961
839.918	23840
840.055	23889
840.193	23790
840.33	23718
840.467	23813
840.604	23999
840.742	24018
840.879	23687
841.016	23687
841.153	23634
841.29	23775
841.427	23779
841.564	23821
841.701	23794
841.838	23741
841.975	23828
842.112	23733
842.249	23551
842.385	23539
842.522	23726
842.659	23535
842.796	23589
842.933	23558
843.069	23391
843.206	23467
843.343	23615
843.479	23463
843.616	23410
843.752	23341
843.889	23322
844.025	23421
844.162	23288
844.298	23436
844.435	23341
844.571	23220
844.708	23349
844.844	23444
844.98	23410
845.117	23459
845.253	23121
845.389	23094
845.525	23193
845.661	23200
845.798	23159
845.934	23003
846.07	23067
846.206	23151
846.342	23189
846.478	23018
846.614	22862
846.75	22824
846.886	22713
847.022	22942
847.158	22744
847.294	22843
847.429	22759
847.565	22660
847.701	22972
847.837	22577
847.972	22405
848.108	22538
848.244	22603
848.379	22440
848.515	22325
848.65	22352
848.786	22386
848.921	22356
849.057	22451
849.192	22462
849.328	22360
849.463	22386
849.598	22417
849.734	22303
849.869	22181
850.004	22139
850.14	22185
850.275	22147
850.41	22040
850.545	22086
850.68	22082
850.815	22131
850.95	22234
851.085	22310
851.22	22238
851.355	22086
851.49	22044
851.625	22158
851.76	22177
851.895	22101
852.03	22006
852.165	22070
852.299	22166
852.434	22188
852.569	22177
852.703	22078
852.838	22116
852.973	22322
853.107	22207
853.242	22051
853.376	22048
853.511	21941
853.645	22074
853.78	22059
853.914	21937
854.048	22036
854.183	21964
854.317	21975
854.451	22169
854.585	21930
854.72	21937
854.854	21960
854.988	21812
855.122	21956
855.256	21850
855.39	21800
855.524	21987
855.658	22006
855.792	21846
855.926	21888
856.06	21945
856.194	22048
856.327	21945
856.461	21751
856.595	21926
856.729	21956
856.862	22021
856.996	21937
857.13	21987
857.263	22074
857.397	21945
857.53	22048
857.664	21964
857.797	21926
857.931	22017
858.064	22010
858.197	22090
858.331	21816
858.464	21918
858.597	21827
858.731	21827
858.864	21975
858.997	21854
859.13	21922
859.263	22044
859.396	21987
859.529	21930
859.662	21816
859.795	21949
859.928	21945
860.061	22006
860.194	22162
860.327	21907
860.46	21968
860.592	22135
860.725	22044
860.858	22040
860.99	21888
861.123	21835
861.256	21770
861.388	21899
861.521	22588
861.653	21800
861.786	21713
861.918	21778
862.05	21812
862.183	21804
862.315	21968
862.447	21934
862.58	21899
862.712	21770
862.844	21587
862.976	21846
863.108	21637
863.24	22173
863.372	21545
863.504	21671
863.636	21614
863.768	21606
863.9	21698
864.032	21622
864.164	21583
864.296	21618
864.428	21793
864.559	21739
864.691	21690
864.823	21713
864.954	21557
865.086	21545
865.217	21667
865.349	21534
865.48	21504
865.612	21523
865.743	21618
865.875	21473
866.006	21488
866.137	21466
866.269	21469
866.4	21561
866.531	21545
866.662	21504
866.793	21408
866.924	21428
867.055	21553
867.186	21545
867.317	21526
867.448	21268
867.579	21458
867.71	21306
867.841	21454
867.972	21606
868.103	21401
868.233	21504
868.364	21439
868.495	21652
868.625	21656
868.756	21789
868.886	21530
869.017	21709
869.147	21854
869.278	21732
869.408	21648
869.539	21751
869.669	21770
869.799	21850
869.929	21789
870.06	21770
870.19	22211
870.32	22128
870.45	22032
870.58	22120
870.71	22162
870.84	22230
870.97	22150
871.1	22139
871.23	22276
871.36	22310
871.489	22238
871.619	22238
871.749	22314
871.879	22348
872.008	22360
872.138	22295
872.267	22329
872.397	22154
872.526	22074
872.656	22044
872.785	21960
872.915	22363
873.044	22352
873.173	22249
873.303	22428
873.432	22390
873.561	22409
873.69	22398
873.819	22299
873.948	22413
874.077	22280
874.206	22276
874.335	22303
874.464	22348
874.593	22603
874.722	22531
874.851	22615
874.979	22691
875.108	22630
875.237	22561
875.365	22413
875.494	22440
875.623	22580
875.751	22394
875.88	22596
876.008	22645
876.136	22668
876.265	22927
876.393	22938
876.521	22995
876.65	23060
876.778	22946
876.906	22839
877.034	22858
877.162	22934
877.29	22835
877.418	22904
877.546	22930
877.674	22854
877.802	22957
877.93	22965
878.058	22721
878.185	22729
878.313	22831
878.441	22892
878.568	22713
878.696	22786
878.824	22793
878.951	22866
879.079	23060
879.206	23105
879.333	23037
879.461	22965
879.588	23037
879.715	22987
879.842	23117
879.97	23079
880.097	22733
880.224	22698
880.351	22755
880.478	22835
880.605	22626
880.732	22694
880.859	22908
880.986	22622
881.112	22672
881.239	22622
881.366	22462
881.493	22299
881.619	22257
881.746	22291
881.872	22234
881.999	22192
882.125	22268
882.252	22268
882.378	22192
882.505	22428
882.631	22230
882.757	21850
882.883	22006
883.01	21895
883.136	21949
883.262	21869
883.388	21797
883.514	21918
883.64	21975
883.766	21953
883.892	21800
884.018	21781
884.143	21934
884.269	21915
884.395	21603
884.52	21580
884.646	21610
884.772	21595
884.897	21447
885.023	21587
885.148	21709
885.274	21732
885.399	21606
885.524	21698
885.65	21625
885.775	21629
885.9	21606
886.025	21766
886.15	21701
886.275	21530
886.4	21511
886.525	21488
886.65	21534
886.775	21580
886.9	21732
887.025	21785
887.149	21568
887.274	21294
887.399	21306
887.523	21306
887.648	21348
887.773	21313
887.897	21405
888.021	21291
888.146	21340
888.27	21378
888.395	21492
888.519	21397
888.643	21374
888.767	21348
888.891	21154
889.015	21184
889.139	21241
889.263	21230
889.387	21195
889.511	21428
889.635	21325
889.759	21195
889.883	21036
890.006	21047
890.13	21226
890.254	21062
890.377	21001
890.501	20910
890.624	20925
890.748	20899
890.871	20895
890.995	20674
891.118	20754
891.241	20773
891.364	20773
891.488	20868
891.611	20739
891.734	20777
891.857	20895
891.98	20629
892.103	20785
892.226	20663
892.349	20617
892.471	20457
892.594	20613
892.717	20579
892.839	20640
892.962	20606
893.085	20640
893.207	20651
893.33	20476
893.452	20602
893.575	20727
893.697	20640
893.819	20773
893.941	20727
894.064	20735
894.186	20556
894.308	20442
894.43	20609
894.552	20811
894.674	20746
894.796	20503
894.918	20560
895.04	20507
895.161	20606
895.283	20613
895.405	20575
895.526	20617
895.648	20617
895.769	20655
895.891	20526
896.012	20674
896.134	20575
896.255	20549
896.376	20590
896.498	20640
896.619	20575
896.74	20552
896.861	20724
896.982	20773
897.103	21119
897.224	20864
897.345	20781
897.466	20777
897.587	20811
897.708	20990
897.828	20887
897.949	20678
898.07	20636
898.19	20678
898.311	20868
898.431	20830
898.552	20769
898.672	20963
898.792	20921
898.913	20925
899.033	20735
899.153	20549
899.273	20552
899.393	20549
899.513	20625
899.633	20617
899.753	20575
899.873	20461
899.993	20549
900.113	20484
900.232	20499
900.352	20522
900.472	20305
900.591	20336
900.711	20309
900.83	20252
900.95	20332
901.069	20305
901.189	20199
901.308	20050
901.427	19883
901.546	19864
901.665	19913
901.784	19921
901.904	19712
902.023	19715
902.141	19537
902.26	19518
902.379	19655
902.498	19377
902.617	19350
902.735	19411
902.854	19438
902.973	19343
903.091	19031
903.21	19148
903.328	19095
903.446	18981
903.565	18916
903.683	18901
903.801	18684
903.919	18764
904.038	18760
904.156	18673
904.274	18791
904.392	18563
904.51	18612
904.627	18471
904.745	18540
904.863	18677
904.981	18414
905.098	18319
905.216	18277
905.334	18338
905.451	18376
905.569	18247
905.686	18194
905.803	18308
905.921	18129
906.038	18216
906.155	18030
906.272	18053
906.389	18007
906.506	17836
906.623	17901
906.74	17824
906.857	17714
906.974	17764
907.091	17859
907.208	17885
907.324	17851
907.441	17771
907.557	17638
907.674	17524
907.79	17448
907.907	17471
908.023	17619
908.139	17539
908.256	17474
908.372	17478
908.488	17433
908.604	17235
908.72	17193
908.836	17280
908.952	17273
909.068	17231
909.184	17364
909.3	17235
909.415	17204
909.531	17284
909.647	16946
909.762	16908
909.878	16877
909.993	16999
910.108	16908
910.224	16831
910.339	16877
910.454	16911
910.57	16694
910.685	16736
910.8	16984
910.915	16847
911.03	16790
911.145	16622
911.259	16478
911.374	16466
911.489	16546
911.604	16413
911.718	16325
911.833	16303
911.947	16196
912.062	16181
912.176	16276
912.291	16276
912.405	16402
912.519	16516
912.633	16531
912.748	16375
912.862	16242
912.976	16150
913.09	15941
913.204	16017
913.318	16063
913.431	16226
913.545	16207
913.659	16120
913.772	16055
913.886	15941
914	15892
914.113	16048
914.226	16048
914.34	16029
914.453	15770
914.566	15972
914.68	15755
914.793	15705
914.906	15561
915.019	15496
915.132	15504
915.245	15557
915.358	15572
915.47	15530
915.583	15447
915.696	15587
915.809	15610
915.921	15679
916.034	15523
916.146	15420
916.259	15435
916.371	15485
916.483	15389
916.595	15302
916.708	15344
916.82	15374
916.932	15230
917.044	15367
917.156	15325
917.268	15146
917.38	15154
917.491	15169
917.603	15104
917.715	15233
917.826	15294
917.938	15066
918.049	14986
918.161	15097
918.272	15249
918.384	15241
918.495	15085
918.606	14933
918.717	14929
918.828	15055
918.939	14963
919.05	14861
919.161	14902
919.272	14674
919.383	14785
919.494	14941
919.604	15131
919.715	14887
919.826	14773
919.936	14804
920.047	14921
920.157	14895
920.267	15116
920.378	14880
920.488	14804
920.598	15039
920.708	15123
920.818	14956
920.928	15074
921.038	15203
921.148	15051
921.258	14853
921.368	14804
921.477	14644
921.587	14587
921.697	14503
921.806	14571
921.916	14465
922.025	14351
922.134	14374
922.244	14218
922.353	14290
922.462	14100
922.571	14119
922.68	13982
922.789	13921
922.898	13852
923.007	13712
923.116	13898
923.224	13845
923.333	13970
923.442	13693
923.55	13731
923.659	13738
923.767	13833
923.876	13677
923.984	13814
924.092	13616
924.201	13674
924.309	13639
924.417	13620
924.525	13578
924.633	13613
924.741	14438
924.849	13304
924.956	13438
925.064	13400
925.172	13190
925.279	13324
925.387	13350
925.494	13324
925.602	13331
925.709	13369
925.816	13251
925.924	13183
926.031	13320
926.138	13251
926.245	13270
926.352	13129
926.459	13171
926.566	13263
926.673	13175
926.779	13103
926.886	13061
926.993	12867
927.099	12844
927.206	12749
927.312	12703
927.419	12890
927.525	12730
927.631	12840
927.737	12802
927.843	12597
927.95	12566
928.056	12684
928.162	12711
928.267	12650
928.373	13297
928.479	12730
928.585	12475
928.69	12612
928.796	12589
928.901	12456
929.007	12296
929.112	12540
929.218	12475
929.323	12441
929.428	12369
929.533	12521
929.638	12289
929.743	12346
929.848	12399
929.953	12292
930.058	12270
930.163	11980
930.267	12045
930.372	12213
930.477	12095
930.581	12292
930.685	12083
930.79	11908
930.894	11961
930.998	11942
931.103	12026
931.207	11718
931.311	11592
931.415	11562
931.519	11376
931.623	11223
