Data from test_V78500241_3605.txt Node
Date: Fri Mar 25 16:06:46 CST 2022
User: usil
Spectrometer: V785-0024
Trigger mode: 0
Integration Time (sec): 4.000000E-1
Scans to average: 1
Nonlinearity correction enabled: false
Boxcar width: 0
Storing dark spectrum: false
XAxis mode: Wavelengths
Number of Pixels in Spectrum: 1024
>>>>>Begin Spectral Data<<<<<
801.071	28546
801.214	28459
801.356	28284
801.499	28223
801.641	28010
801.783	28143
801.926	28135
802.068	28082
802.211	28048
802.353	28124
802.496	27934
802.638	27819
802.78	27816
802.923	27614
803.065	27599
803.208	27759
803.35	27865
803.492	28074
803.635	27911
803.777	27865
803.919	27964
804.061	28409
804.204	27983
804.346	27907
804.488	27884
804.63	27960
804.773	27808
804.915	28010
805.057	28207
805.199	28017
805.341	28101
805.483	28150
805.626	28192
805.768	27934
805.91	28249
806.052	28204
806.194	28093
806.336	28424
806.478	28268
806.62	28192
806.762	28424
806.904	28596
807.046	28679
807.188	28656
807.33	28675
807.472	28744
807.614	28584
807.756	28626
807.898	28542
808.04	28333
808.182	28401
808.324	28512
808.465	28455
808.607	28771
808.749	28961
808.891	28972
809.033	28927
809.174	28938
809.316	28980
809.458	28934
809.6	28843
809.741	29098
809.883	29018
810.025	29147
810.166	29197
810.308	29071
810.45	29029
810.591	29029
810.733	28942
810.875	28767
811.016	28824
811.158	28763
811.299	29071
811.441	28991
811.582	28923
811.724	28835
811.865	28885
812.007	28858
812.148	28987
812.29	28980
812.431	28999
812.573	29029
812.714	29258
812.855	29315
812.997	29467
813.138	29634
813.279	29531
813.421	29486
813.562	29296
813.703	29261
813.845	29056
813.986	28790
814.127	28664
814.268	28615
814.41	28542
814.551	28493
814.692	28573
814.833	28512
814.974	28489
815.115	28577
815.256	28554
815.397	28375
815.539	28550
815.68	28428
815.821	28322
815.962	28344
816.103	28272
816.244	28337
816.385	28097
816.526	28242
816.666	27964
816.807	27804
816.948	27964
817.089	27960
817.23	27979
817.371	27823
817.512	28021
817.653	27911
817.793	27819
817.934	27911
818.075	27949
818.216	27964
818.356	27831
818.497	27766
818.638	27660
818.778	27663
818.919	27652
819.06	27644
819.2	27842
819.341	27918
819.481	27857
819.622	28105
819.762	28200
819.903	28154
820.043	27987
820.184	28010
820.324	28097
820.465	28204
820.605	28059
820.746	27964
820.886	27884
821.026	27979
821.167	28040
821.307	28010
821.447	27975
821.588	27789
821.728	27633
821.868	27481
822.008	27466
822.149	27386
822.289	27249
822.429	27165
822.569	27047
822.709	27081
822.849	26861
822.99	26853
823.13	26826
823.27	26864
823.41	26651
823.55	26697
823.69	26705
823.83	26849
823.97	26587
824.11	26450
824.25	26511
824.389	26469
824.529	26602
824.669	26621
824.809	26667
824.949	26735
825.089	26670
825.228	26541
825.368	26415
825.508	26358
825.648	26343
825.787	26564
825.927	26476
826.067	26423
826.206	26503
826.346	26328
826.485	26427
826.625	26442
826.765	26396
826.904	26408
827.044	26195
827.183	26149
827.323	26103
827.462	26278
827.601	26077
827.741	26164
827.88	26195
828.02	26065
828.159	26081
828.298	26176
828.437	26275
828.577	25940
828.716	26210
828.855	25966
828.994	25826
829.134	25750
829.273	25833
829.412	25795
829.551	25738
829.69	25833
829.829	25852
829.968	25822
830.107	25936
830.246	25784
830.385	25845
830.524	25811
830.663	25525
830.802	25525
830.941	25419
831.08	25343
831.219	25563
831.357	25487
831.496	25540
831.635	25381
831.774	25263
831.913	25244
832.051	25145
832.19	25194
832.329	25266
832.467	25061
832.606	25061
832.744	24871
832.883	25088
833.022	25069
833.16	25148
833.299	25160
833.437	24970
833.576	25038
833.714	25194
833.852	25129
833.991	25266
834.129	25217
834.267	25175
834.406	25031
834.544	25137
834.682	25118
834.821	25129
834.959	25221
835.097	25034
835.235	25171
835.373	25118
835.511	25107
835.65	24962
835.788	24970
835.926	24890
836.064	24810
836.202	24939
836.34	25042
836.478	25050
836.615	24875
836.753	24947
836.891	25023
837.029	25019
837.167	25015
837.305	24901
837.443	24776
837.58	24779
837.718	24726
837.856	24856
837.993	24939
838.131	24741
838.269	24764
838.406	24688
838.544	24498
838.681	24509
838.819	24464
838.956	24239
839.094	24300
839.231	24330
839.369	24418
839.506	24753
839.643	24547
839.781	24350
839.918	24163
840.055	24216
840.193	24239
840.33	24224
840.467	24174
840.604	24384
840.742	24479
840.879	24015
841.016	24114
841.153	24060
841.29	24254
841.427	24022
841.564	24262
841.701	24076
841.838	24163
841.975	24034
842.112	24186
842.249	23999
842.385	24007
842.522	24129
842.659	24011
842.796	23863
842.933	23866
843.069	23771
843.206	23916
843.343	23927
843.479	24030
843.616	23958
843.752	23748
843.889	23657
844.025	23901
844.162	23752
844.298	23828
844.435	23714
844.571	23634
844.708	23699
844.844	23817
844.98	23790
845.117	23737
845.253	23699
845.389	23455
845.525	23528
845.661	23497
845.798	23455
845.934	23585
846.07	23547
846.206	23554
846.342	23646
846.478	23296
846.614	23185
846.75	23318
846.886	23128
847.022	23315
847.158	23136
847.294	23220
847.429	23216
847.565	23090
847.701	23368
847.837	22896
847.972	22858
848.108	22953
848.244	22877
848.379	22797
848.515	22793
848.65	22736
848.786	22771
848.921	22744
849.057	22759
849.192	22683
849.328	22843
849.463	22744
849.598	22706
849.734	22508
849.869	22748
850.004	22508
850.14	22523
850.275	22584
850.41	22394
850.545	22424
850.68	22466
850.815	22569
850.95	22531
851.085	22748
851.22	22584
851.355	22618
851.49	22451
851.625	22443
851.76	22527
851.895	22436
852.03	22413
852.165	22512
852.299	22565
852.434	22694
852.569	22683
852.703	22398
852.838	22588
852.973	22607
853.107	22687
853.242	22390
853.376	22375
853.511	22325
853.645	22265
853.78	22360
853.914	22360
854.048	22379
854.183	22344
854.317	22333
854.451	22500
854.585	22295
854.72	22329
854.854	22405
854.988	22226
855.122	22322
855.256	22162
855.39	22295
855.524	22443
855.658	22459
855.792	22375
855.926	22265
856.06	22508
856.194	22478
856.327	22314
856.461	22299
856.595	22314
856.729	22204
856.862	22512
856.996	22299
857.13	22466
857.263	22337
857.397	22413
857.53	22382
857.664	22322
857.797	22375
857.931	22478
858.064	22421
858.197	22382
858.331	22306
858.464	22261
858.597	22360
858.731	22242
858.864	22287
858.997	22242
859.13	22352
859.263	22325
859.396	22341
859.529	22341
859.662	22325
859.795	22322
859.928	22352
860.061	22596
860.194	22436
860.327	22219
860.46	22367
860.592	22440
860.725	22500
860.858	22443
860.99	22443
861.123	22306
861.256	22398
861.388	22329
861.521	22976
861.653	22169
861.786	22029
861.918	22169
862.05	22265
862.183	22325
862.315	22169
862.447	22265
862.58	22188
862.712	22017
862.844	21983
862.976	22242
863.108	22204
863.24	22432
863.372	22154
863.504	22002
863.636	22025
863.768	22006
863.9	22112
864.032	21968
864.164	22048
864.296	22166
864.428	22200
864.559	22048
864.691	22200
864.823	22131
864.954	22013
865.086	22013
865.217	21873
865.349	21827
865.48	21884
865.612	21835
865.743	21945
865.875	21918
866.006	21827
866.137	21930
866.269	21854
866.4	21869
866.531	21926
866.662	21816
866.793	21865
866.924	21819
867.055	21857
867.186	21903
867.317	21857
867.448	21770
867.579	21823
867.71	21785
867.841	21831
867.972	21778
868.103	21979
868.233	21930
868.364	21846
868.495	22032
868.625	22006
868.756	22101
868.886	21998
869.017	22109
869.147	22188
869.278	22188
869.408	22158
869.539	22150
869.669	22173
869.799	22082
869.929	22158
870.06	22257
870.19	22379
870.32	22402
870.45	22596
870.58	22413
870.71	22599
870.84	22580
870.97	22504
871.1	22493
871.23	22675
871.36	22725
871.489	22535
871.619	22664
871.749	22706
871.879	22630
872.008	22774
872.138	22755
872.267	22793
872.397	22580
872.526	22432
872.656	22561
872.785	22527
872.915	22763
873.044	22816
873.173	22641
873.303	22664
873.432	22702
873.561	22847
873.69	22790
873.819	22691
873.948	22835
874.077	22809
874.206	22717
874.335	22641
874.464	22831
874.593	23044
874.722	22839
874.851	22847
874.979	22968
875.108	23132
875.237	22812
875.365	22896
875.494	22759
875.623	22942
875.751	22946
875.88	23003
876.008	23006
876.136	23170
876.265	23330
876.393	23387
876.521	23356
876.65	23356
876.778	23303
876.906	23311
877.034	23204
877.162	23353
877.29	23208
877.418	23086
877.546	23292
877.674	23284
877.802	23277
877.93	23223
878.058	23197
878.185	22995
878.313	23220
878.441	23330
878.568	23029
878.696	23227
878.824	23402
878.951	23341
879.079	23524
879.206	23452
879.333	23387
879.461	23174
879.588	23372
879.715	23395
879.842	23512
879.97	23379
880.097	23178
880.224	23033
880.351	23086
880.478	23246
880.605	23052
880.732	23200
880.859	23334
880.986	23197
881.112	23041
881.239	22984
881.366	22805
881.493	22831
881.619	22656
881.746	22759
881.872	22664
881.999	22626
882.125	22538
882.252	22717
882.378	22618
882.505	22702
882.631	22538
882.757	22447
882.883	22398
883.01	22375
883.136	22341
883.262	22196
883.388	22070
883.514	22382
883.64	22432
883.766	22185
883.892	22097
884.018	22135
884.143	22276
884.269	22379
884.395	22112
884.52	21945
884.646	21979
884.772	21994
884.897	22010
885.023	21915
885.148	22032
885.274	22093
885.399	22010
885.524	21907
885.65	21998
885.775	22029
885.9	21941
886.025	22158
886.15	22097
886.275	21892
886.4	21819
886.525	22074
886.65	21968
886.775	21854
886.9	22116
887.025	22147
887.149	21945
887.274	21667
887.399	21766
887.523	21781
887.648	21629
887.773	21591
887.897	21724
888.021	21698
888.146	21656
888.27	21736
888.395	21861
888.519	21671
888.643	21804
888.767	21732
888.891	21652
889.015	21492
889.139	21625
889.263	21545
889.387	21679
889.511	21701
889.635	21644
889.759	21435
889.883	21492
890.006	21606
890.13	21553
890.254	21359
890.377	21469
890.501	21336
890.624	21298
890.748	21275
890.871	21230
890.995	21096
891.118	20948
891.241	21146
891.364	21093
891.488	21226
891.611	21043
891.734	21150
891.857	21009
891.98	21142
892.103	21055
892.226	21104
892.349	20982
892.471	20853
892.594	20998
892.717	21039
892.839	20880
892.962	21058
893.085	21028
893.207	20948
893.33	20925
893.452	20864
893.575	20986
893.697	20864
893.819	21214
893.941	21169
894.064	21093
894.186	20876
894.308	20910
894.43	21081
894.552	21058
894.674	21032
894.796	20921
894.918	20887
895.04	20880
895.161	20929
895.283	20986
895.405	20872
895.526	20914
895.648	20853
895.769	20986
895.891	20933
896.012	20979
896.134	20986
896.255	20941
896.376	20956
896.498	20880
896.619	20823
896.74	20967
896.861	20986
896.982	21207
897.103	21389
897.224	21321
897.345	21214
897.466	21028
897.587	21066
897.708	21218
897.828	21180
897.949	21062
898.07	21039
898.19	21085
898.311	21233
898.431	21135
898.552	21100
898.672	21211
898.792	21195
898.913	21195
899.033	20998
899.153	20933
899.273	20823
899.393	20796
899.513	20979
899.633	20921
899.753	20853
899.873	20781
899.993	20883
900.113	20765
900.232	20788
900.352	20853
900.472	20674
900.591	20674
900.711	20575
900.83	20659
900.95	20876
901.069	20830
901.189	20530
901.308	20400
901.427	20187
901.546	20199
901.665	20233
901.784	20225
901.904	20088
902.023	20176
902.141	19757
902.26	19826
902.379	19791
902.498	19742
902.617	19780
902.735	19883
902.854	19784
902.973	19799
903.091	19415
903.21	19396
903.328	19403
903.446	19373
903.565	19350
903.683	19304
903.801	19217
903.919	19190
904.038	19175
904.156	18989
904.274	18977
904.392	18939
904.51	18886
904.627	18939
904.745	19038
904.863	19145
904.981	18722
905.098	18589
905.216	18616
905.334	18814
905.451	18661
905.569	18574
905.686	18589
905.803	18551
905.921	18475
906.038	18509
906.155	18521
906.272	18369
906.389	18418
906.506	18178
906.623	18174
906.74	18232
906.857	18041
906.974	18133
907.091	18155
907.208	18213
907.324	18197
907.441	18060
907.557	17939
907.674	17901
907.79	17790
907.907	17908
908.023	17946
908.139	17840
908.256	17832
908.372	17779
908.488	17760
908.604	17600
908.72	17608
908.836	17585
908.952	17668
909.068	17630
909.184	17630
909.3	17585
909.415	17665
909.531	17611
909.647	17318
909.762	17414
909.878	17265
909.993	17277
910.108	17307
910.224	17337
910.339	17261
910.454	17105
910.57	17143
910.685	17067
910.8	17273
910.915	17246
911.03	17052
911.145	16946
911.259	16843
911.374	16908
911.489	16866
911.604	16683
911.718	16558
911.833	16584
911.947	16615
912.062	16493
912.176	16634
912.291	16607
912.405	16630
912.519	16843
912.633	16854
912.748	16523
912.862	16580
912.976	16348
913.09	16379
913.204	16447
913.318	16577
913.431	16470
913.545	16440
913.659	16440
913.772	16337
913.886	16265
914	16238
914.113	16337
914.226	16325
914.34	16329
914.453	16105
914.566	16185
914.68	16192
914.793	16021
914.906	15812
915.019	15797
915.132	15743
915.245	15705
915.358	15781
915.47	15785
915.583	15819
915.696	15850
915.809	15911
915.921	15907
916.034	15819
916.146	15720
916.259	15732
916.371	15732
916.483	15709
916.595	15709
916.708	15610
916.82	15618
916.932	15610
917.044	15606
917.156	15500
917.268	15435
917.38	15397
917.491	15378
917.603	15469
917.715	15485
917.826	15469
917.938	15435
918.049	15211
918.161	15325
918.272	15496
918.384	15428
918.495	15367
918.606	15260
918.717	15127
918.828	15249
918.939	15180
919.05	15104
919.161	15123
919.272	14971
919.383	14982
919.494	15203
919.604	15408
919.715	15180
919.826	15062
919.936	15085
920.047	15184
920.157	15127
920.267	15275
920.378	15150
920.488	15104
920.598	15283
920.708	15401
920.818	15195
920.928	15241
921.038	15279
921.148	15329
921.258	15039
921.368	15043
921.477	14857
921.587	14876
921.697	14735
921.806	14849
921.916	14682
922.025	14503
922.134	14492
922.244	14469
922.353	14575
922.462	14385
922.571	14263
922.68	14157
922.789	14275
922.898	14073
923.007	14058
923.116	14069
923.224	14119
923.333	14088
923.442	13978
923.55	13917
923.659	13997
923.767	13936
923.876	13917
923.984	13951
924.092	13822
924.201	13944
924.309	13791
924.417	13894
924.525	13814
924.633	13814
924.741	14621
924.849	13639
924.956	13727
925.064	13457
925.172	13415
925.279	13350
925.387	13590
925.494	13529
925.602	13636
925.709	13491
925.816	13377
925.924	13403
926.031	13453
926.138	13445
926.245	13453
926.352	13346
926.459	13457
926.566	13502
926.673	13365
926.779	13179
926.886	13194
926.993	13129
927.099	13069
927.206	13019
927.312	13057
927.419	12989
927.525	13015
927.631	13114
927.737	12943
927.843	12821
927.95	12821
928.056	12859
928.162	12920
928.267	12878
928.373	13441
928.479	12951
928.585	12650
928.69	12817
928.796	12810
928.901	12688
929.007	12608
929.112	12616
929.218	12852
929.323	12631
929.428	12650
929.533	12650
929.638	12494
929.743	12521
929.848	12593
929.953	12597
930.058	12372
930.163	12323
930.267	12361
930.372	12361
930.477	12133
930.581	12475
930.685	12258
930.79	12152
930.894	12129
930.998	12072
931.103	12258
931.207	11851
931.311	11684
931.415	11638
931.519	11471
931.623	11482
