Data from test_V78500241_805.txt Node
Date: Fri Mar 25 15:47:22 CST 2022
User: usil
Spectrometer: V785-0024
Trigger mode: 0
Integration Time (sec): 4.000000E-1
Scans to average: 1
Nonlinearity correction enabled: false
Boxcar width: 0
Storing dark spectrum: false
XAxis mode: Wavelengths
Number of Pixels in Spectrum: 1024
>>>>>Begin Spectral Data<<<<<
801.071	27606
801.214	27736
801.356	27329
801.499	27173
801.641	27058
801.783	27131
801.926	27100
802.068	27119
802.211	27074
802.353	27043
802.496	26849
802.638	26918
802.78	26815
802.923	26724
803.065	26773
803.208	26788
803.35	26815
803.492	26986
803.635	26925
803.777	26868
803.919	27062
804.061	27268
804.204	26979
804.346	26857
804.488	26811
804.63	26880
804.773	26762
804.915	26990
805.057	27036
805.199	27005
805.341	26971
805.483	27157
805.626	27047
805.768	26960
805.91	27074
806.052	27199
806.194	26982
806.336	27169
806.478	27093
806.62	27192
806.762	27138
806.904	27363
807.046	27625
807.188	27641
807.33	27606
807.472	27443
807.614	27523
807.756	27462
807.898	27389
808.04	27329
808.182	27321
808.324	27389
808.465	27408
808.607	27690
808.749	27774
808.891	27876
809.033	27914
809.174	27918
809.316	27781
809.458	27717
809.6	27583
809.741	27861
809.883	27918
810.025	27956
810.166	28059
810.308	28074
810.45	28017
810.591	28074
810.733	27823
810.875	27739
811.016	27804
811.158	27622
811.299	27979
811.441	27800
811.582	27922
811.724	27797
811.865	27591
812.007	27747
812.148	27857
812.29	27857
812.431	27949
812.573	28166
812.714	28257
812.855	28405
812.997	28341
813.138	28474
813.279	28481
813.421	28295
813.562	28147
813.703	28139
813.845	27941
813.986	27800
814.127	27633
814.268	27412
814.41	27435
814.551	27454
814.692	27519
814.833	27367
814.974	27443
815.115	27412
815.256	27256
815.397	27264
815.539	27241
815.68	27135
815.821	27169
815.962	27241
816.103	27074
816.244	27066
816.385	26967
816.526	26902
816.666	27005
816.807	26739
816.948	26788
817.089	26925
817.23	26773
817.371	26648
817.512	26689
817.653	26670
817.793	26746
817.934	26686
818.075	26678
818.216	26731
818.356	26651
818.497	26541
818.638	26568
818.778	26522
818.919	26457
819.06	26522
819.2	26621
819.341	26575
819.481	26667
819.622	26769
819.762	27005
819.903	26861
820.043	27062
820.184	26708
820.324	26826
820.465	26758
820.605	26796
820.746	26845
820.886	26697
821.026	26716
821.167	26689
821.307	26883
821.447	26670
821.588	26522
821.728	26503
821.868	26309
822.008	26229
822.149	26187
822.289	26157
822.429	25978
822.569	25807
822.709	25849
822.849	25643
822.99	25628
823.13	25700
823.27	25712
823.41	25472
823.55	25491
823.69	25468
823.83	25590
823.97	25537
824.11	25240
824.25	25339
824.389	25346
824.529	25236
824.669	25358
824.809	25521
824.949	25403
825.089	25609
825.228	25422
825.368	25118
825.508	25247
825.648	25263
825.787	25282
825.927	25209
826.067	25225
826.206	25145
826.346	25168
826.485	25308
826.625	25107
826.765	25122
826.904	25247
827.044	24932
827.183	24973
827.323	24844
827.462	24958
827.601	24840
827.741	24814
827.88	24935
828.02	24692
828.159	24932
828.298	24825
828.437	24905
828.577	24852
828.716	25019
828.855	24901
828.994	24593
829.134	24551
829.273	24673
829.412	24650
829.551	24593
829.69	24601
829.829	24730
829.968	24669
830.107	24783
830.246	24593
830.385	24566
830.524	24486
830.663	24361
830.802	24384
830.941	24254
831.08	24174
831.219	24228
831.357	24220
831.496	24502
831.635	24213
831.774	24106
831.913	24045
832.051	24095
832.19	24038
832.329	24034
832.467	23935
832.606	23805
832.744	23863
832.883	23935
833.022	23893
833.16	23851
833.299	23969
833.437	23954
833.576	23870
833.714	23996
833.852	23935
833.991	24007
834.129	24038
834.267	23927
834.406	24064
834.544	23904
834.682	24076
834.821	23824
834.959	24152
835.097	23794
835.235	23969
835.373	23912
835.511	24015
835.65	23771
835.788	23882
835.926	23592
836.064	23703
836.202	23710
836.34	23687
836.478	23874
836.615	23684
836.753	23821
836.891	23874
837.029	23756
837.167	23668
837.305	23672
837.443	23630
837.58	23653
837.718	23745
837.856	23737
837.993	23547
838.131	23516
838.269	23414
838.406	23482
838.544	23391
838.681	23273
838.819	23064
838.956	23025
839.094	23102
839.231	23075
839.369	23261
839.506	23417
839.643	23296
839.781	23121
839.918	23052
840.055	23014
840.193	23098
840.33	23003
840.467	23037
840.604	23231
840.742	23239
840.879	22797
841.016	22919
841.153	22862
841.29	23147
841.427	23105
841.564	23060
841.701	22987
841.838	23041
841.975	22915
842.112	22896
842.249	22869
842.385	22691
842.522	23075
842.659	22835
842.796	22812
842.933	22653
843.069	22683
843.206	22656
843.343	22698
843.479	22786
843.616	22664
843.752	22584
843.889	22409
844.025	22584
844.162	22508
844.298	22615
844.435	22497
844.571	22466
844.708	22527
844.844	22592
844.98	22691
845.117	22618
845.253	22436
845.389	22405
845.525	22382
845.661	22280
845.798	22234
845.934	22318
846.07	22246
846.206	22356
846.342	22375
846.478	22238
846.614	22188
846.75	22032
846.886	21911
847.022	22078
847.158	22063
847.294	22021
847.429	22036
847.565	21953
847.701	22196
847.837	21759
847.972	21736
848.108	21755
848.244	21766
848.379	21667
848.515	21614
848.65	21572
848.786	21629
848.921	21599
849.057	21526
849.192	21728
849.328	21618
849.463	21530
849.598	21477
849.734	21431
849.869	21378
850.004	21378
850.14	21378
850.275	21230
850.41	21291
850.545	21344
850.68	21355
850.815	21401
850.95	21329
851.085	21603
851.22	21462
851.355	21344
851.49	21370
851.625	21233
851.76	21233
851.895	21344
852.03	21169
852.165	21344
852.299	21412
852.434	21466
852.569	21310
852.703	21355
852.838	21416
852.973	21504
853.107	21485
853.242	21359
853.376	21074
853.511	21104
853.645	21058
853.78	21214
853.914	21199
854.048	21135
854.183	21096
854.317	21108
854.451	21462
854.585	21024
854.72	21241
854.854	21237
854.988	21108
855.122	21317
855.256	21024
855.39	21131
855.524	21055
855.658	21192
855.792	21211
855.926	21146
856.06	21165
856.194	21329
856.327	21154
856.461	21169
856.595	21051
856.729	21275
856.862	21249
856.996	21165
857.13	21218
857.263	21386
857.397	21310
857.53	21005
857.664	21230
857.797	21154
857.931	21283
858.064	21150
858.197	21355
858.331	21146
858.464	21195
858.597	21154
858.731	21157
858.864	21119
858.997	21055
859.13	21363
859.263	21180
859.396	21321
859.529	21043
859.662	21131
859.795	21249
859.928	21230
860.061	21256
860.194	21249
860.327	21199
860.46	21230
860.592	21336
860.725	21252
860.858	21313
860.99	21108
861.123	21070
861.256	21176
861.388	21157
861.521	21846
861.653	20960
861.786	20910
861.918	20986
862.05	20998
862.183	20998
862.315	21104
862.447	21188
862.58	21135
862.712	20944
862.844	20868
862.976	20933
863.108	20975
863.24	21340
863.372	20849
863.504	20868
863.636	20804
863.768	20990
863.9	20902
864.032	20838
864.164	20815
864.296	20982
864.428	20994
864.559	20880
864.691	20880
864.823	20937
864.954	20777
865.086	20887
865.217	20750
865.349	20667
865.48	20857
865.612	20758
865.743	20872
865.875	20823
866.006	20743
866.137	20857
866.269	20792
866.4	20762
866.531	20674
866.662	20590
866.793	20800
866.924	20807
867.055	20693
867.186	20826
867.317	20651
867.448	20663
867.579	20629
867.71	20629
867.841	20682
867.972	20724
868.103	20701
868.233	20739
868.364	20693
868.495	20800
868.625	20845
868.756	21047
868.886	20975
869.017	21013
869.147	20986
869.278	21043
869.408	20876
869.539	21051
869.669	21017
869.799	20986
869.929	21036
870.06	21001
870.19	21264
870.32	21195
870.45	21321
870.58	21348
870.71	21473
870.84	21431
870.97	21473
871.1	21443
871.23	21504
871.36	21519
871.489	21435
871.619	21534
871.749	21534
871.879	21614
872.008	21759
872.138	21564
872.267	21538
872.397	21298
872.526	21260
872.656	21291
872.785	21378
872.915	21507
873.044	21576
873.173	21534
873.303	21682
873.432	21599
873.561	21759
873.69	21583
873.819	21435
873.948	21641
874.077	21629
874.206	21466
874.335	21488
874.464	21732
874.593	21789
874.722	21679
874.851	21781
874.979	21857
875.108	21880
875.237	21717
875.365	21606
875.494	21774
875.623	21850
875.751	21717
875.88	21800
876.008	21941
876.136	22036
876.265	22226
876.393	22230
876.521	22360
876.65	22333
876.778	22124
876.906	22211
877.034	22048
877.162	22135
877.29	22150
877.418	22135
877.546	22120
877.674	22147
877.802	22185
877.93	22166
878.058	22128
878.185	22013
878.313	22017
878.441	22211
878.568	21987
878.696	22135
878.824	22192
878.951	22268
879.079	22268
879.206	22371
879.333	22367
879.461	22291
879.588	22295
879.715	22375
879.842	22577
879.97	22272
880.097	22059
880.224	21953
880.351	22074
880.478	21968
880.605	21953
880.732	22029
880.859	22192
880.986	22120
881.112	21922
881.239	21918
881.366	21743
881.493	21770
881.619	21526
881.746	21557
881.872	21686
881.999	21549
882.125	21534
882.252	21671
882.378	21561
882.505	21751
882.631	21416
882.757	21332
882.883	21321
883.01	21283
883.136	21112
883.262	21150
883.388	21127
883.514	21359
883.64	21298
883.766	21142
883.892	21180
884.018	21089
884.143	21195
884.269	21355
884.395	20994
884.52	20998
884.646	20956
884.772	20864
884.897	20880
885.023	20872
885.148	21001
885.274	21024
885.399	20971
885.524	20849
885.65	20933
885.775	20914
885.9	20910
886.025	20944
886.15	20967
886.275	20880
886.4	20697
886.525	20960
886.65	20811
886.775	20838
886.9	20994
887.025	21142
887.149	20906
887.274	20716
887.399	20689
887.523	20667
887.648	20701
887.773	20651
887.897	20693
888.021	20686
888.146	20720
888.27	20788
888.395	20785
888.519	20716
888.643	20663
888.767	20735
888.891	20689
889.015	20473
889.139	20598
889.263	20480
889.387	20587
889.511	20648
889.635	20571
889.759	20495
889.883	20533
890.006	20499
890.13	20640
890.254	20412
890.377	20419
890.501	20229
890.624	20145
890.748	20256
890.871	20248
890.995	20001
891.118	20031
891.241	20031
891.364	20054
891.488	20301
891.611	20058
891.734	20081
891.857	20027
891.98	19993
892.103	20115
892.226	20024
892.349	20058
892.471	19932
892.594	20005
892.717	20039
892.839	19967
892.962	20005
893.085	20054
893.207	19944
893.33	19833
893.452	19902
893.575	20073
893.697	19868
893.819	20058
893.941	20191
894.064	19974
894.186	19940
894.308	19860
894.43	19917
894.552	19997
894.674	19959
894.796	19887
894.918	19951
895.04	19936
895.161	19970
895.283	19970
895.405	19936
895.526	19951
895.648	19951
895.769	19921
895.891	20001
896.012	19959
896.134	19993
896.255	20024
896.376	19940
896.498	20031
896.619	19997
896.74	19875
896.861	19940
896.982	20305
897.103	20423
897.224	20199
897.345	20256
897.466	20138
897.587	20191
897.708	20396
897.828	20286
897.949	20134
898.07	20024
898.19	20142
898.311	20298
898.431	20119
898.552	20199
898.672	20278
898.792	20202
898.913	20202
899.033	20069
899.153	19951
899.273	19845
899.393	19906
899.513	19989
899.633	19982
899.753	20024
899.873	19906
899.993	19864
900.113	19951
900.232	19993
900.352	19974
900.472	19776
900.591	19712
900.711	19715
900.83	19670
900.95	19788
901.069	19757
901.189	19601
901.308	19388
901.427	19304
901.546	19381
901.665	19422
901.784	19331
901.904	19171
902.023	19114
902.141	19012
902.26	18894
902.379	18920
902.498	18878
902.617	18817
902.735	18871
902.854	18749
902.973	18726
903.091	18483
903.21	18528
903.328	18540
903.446	18372
903.565	18334
903.683	18414
903.801	18228
903.919	18346
904.038	18319
904.156	18011
904.274	18171
904.392	18136
904.51	18053
904.627	18026
904.745	18038
904.863	18159
904.981	17878
905.098	17764
905.216	17714
905.334	17836
905.451	17718
905.569	17676
905.686	17802
905.803	17775
905.921	17471
906.038	17676
906.155	17490
906.272	17391
906.389	17417
906.506	17261
906.623	17265
906.74	17246
906.857	17083
906.974	17360
907.091	17360
907.208	17414
907.324	17277
907.441	17204
907.557	17045
907.674	16949
907.79	16911
907.907	16976
908.023	17060
908.139	16976
908.256	16942
908.372	16965
908.488	16881
908.604	16706
908.72	16656
908.836	16713
908.952	16733
909.068	16721
909.184	16873
909.3	16710
909.415	16763
909.531	16702
909.647	16443
909.762	16413
909.878	16371
909.993	16394
910.108	16382
910.224	16337
910.339	16417
910.454	16246
910.57	16238
910.685	16131
910.8	16382
910.915	16287
911.03	16188
911.145	16067
911.259	15983
911.374	15956
911.489	15930
911.604	15888
911.718	15732
911.833	15698
911.947	15701
912.062	15580
912.176	15755
912.291	15762
912.405	15884
912.519	15907
912.633	15949
912.748	15884
912.862	15720
912.976	15584
913.09	15530
913.204	15507
913.318	15469
913.431	15728
913.545	15781
913.659	15542
913.772	15500
913.886	15348
914	15348
914.113	15447
914.226	15488
914.34	15515
914.453	15211
914.566	15458
914.68	15222
914.793	15161
914.906	15089
915.019	14918
915.132	14918
915.245	15051
915.358	15005
915.47	15039
915.583	14982
915.696	15051
915.809	15116
915.921	15085
916.034	15039
916.146	14895
916.259	14883
916.371	14971
916.483	15020
916.595	14823
916.708	14830
916.82	14815
916.932	14811
917.044	14765
917.156	14743
917.268	14655
917.38	14682
917.491	14716
917.603	14701
917.715	14727
917.826	14701
917.938	14541
918.049	14518
918.161	14621
918.272	14697
918.384	14686
918.495	14541
918.606	14400
918.717	14377
918.828	14415
918.939	14488
919.05	14320
919.161	14423
919.272	14259
919.383	14358
919.494	14499
919.604	14644
919.715	14385
919.826	14294
919.936	14377
920.047	14518
920.157	14446
920.267	14602
920.378	14362
920.488	14355
920.598	14465
920.708	14758
920.818	14473
920.928	14594
921.038	14708
921.148	14655
921.258	14362
921.368	14187
921.477	14077
921.587	14195
921.697	14073
921.806	14134
921.916	13947
922.025	13875
922.134	13757
922.244	13784
922.353	13780
922.462	13689
922.571	13655
922.68	13346
922.789	13422
922.898	13407
923.007	13396
923.116	13518
923.224	13426
923.333	13384
923.442	13251
923.55	13282
923.659	13251
923.767	13228
923.876	13171
923.984	13354
924.092	13122
924.201	13122
924.309	13118
924.417	13179
924.525	13023
924.633	13034
924.741	14062
924.849	12837
924.956	13038
925.064	12932
925.172	12821
925.279	12833
925.387	12840
925.494	12795
925.602	12932
925.709	12829
925.816	12741
925.924	12844
926.031	12909
926.138	12848
926.245	12875
926.352	12703
926.459	12844
926.566	12837
926.673	12711
926.779	12608
926.886	12585
926.993	12399
927.099	12418
927.206	12422
927.312	12369
927.419	12429
927.525	12448
927.631	12346
927.737	12190
927.843	12266
927.95	12091
928.056	12163
928.162	12270
928.267	12292
928.373	12939
928.479	12323
928.585	11977
928.69	12167
928.796	12213
928.901	12053
929.007	11984
929.112	12148
929.218	12091
929.323	11973
929.428	11908
929.533	12045
929.638	11961
929.743	11882
929.848	11965
929.953	11946
930.058	11805
930.163	11661
930.267	11665
930.372	11794
930.477	11642
930.581	11813
930.685	11646
930.79	11516
930.894	11634
930.998	11421
931.103	11665
931.207	11322
931.311	11151
931.415	11159
931.519	10885
931.623	10904
