Data from test_V78500241_1808.txt Node
Date: Fri Mar 25 15:54:19 CST 2022
User: usil
Spectrometer: V785-0024
Trigger mode: 0
Integration Time (sec): 4.000000E-1
Scans to average: 1
Nonlinearity correction enabled: false
Boxcar width: 0
Storing dark spectrum: false
XAxis mode: Wavelengths
Number of Pixels in Spectrum: 1024
>>>>>Begin Spectral Data<<<<<
801.071	28535
801.214	28405
801.356	28226
801.499	28128
801.641	27960
801.783	28097
801.926	28135
802.068	28116
802.211	27945
802.353	28010
802.496	27736
802.638	27690
802.78	27770
802.923	27736
803.065	27618
803.208	27660
803.35	27816
803.492	27762
803.635	27964
803.777	27835
803.919	27960
804.061	28379
804.204	28029
804.346	27907
804.488	27876
804.63	27873
804.773	27987
804.915	28029
805.057	28200
805.199	28101
805.341	28109
805.483	28234
805.626	28116
805.768	28036
805.91	28055
806.052	28044
806.194	28067
806.336	28211
806.478	28185
806.62	28207
806.762	28398
806.904	28474
807.046	28569
807.188	28653
807.33	28584
807.472	28626
807.614	28618
807.756	28531
807.898	28249
808.04	28310
808.182	28253
808.324	28485
808.465	28573
808.607	28618
808.749	28885
808.891	29025
809.033	28999
809.174	28793
809.316	28713
809.458	28854
809.6	28706
809.741	28843
809.883	28919
810.025	29071
810.166	29147
810.308	29136
810.45	29094
810.591	29090
810.733	28847
810.875	28816
811.016	28698
811.158	28687
811.299	28877
811.441	29029
811.582	29029
811.724	28869
811.865	28683
812.007	28847
812.148	28809
812.29	28782
812.431	28938
812.573	29071
812.714	29200
812.855	29318
812.997	29482
813.138	29455
813.279	29520
813.421	29398
813.562	29193
813.703	29151
813.845	29140
813.986	28740
814.127	28618
814.268	28554
814.41	28519
814.551	28599
814.692	28592
814.833	28348
814.974	28341
815.115	28485
815.256	28333
815.397	28356
815.539	28386
815.68	28295
815.821	28303
815.962	28257
816.103	28310
816.244	28166
816.385	28101
816.526	28109
816.666	27888
816.807	27785
816.948	27785
817.089	28051
817.23	27751
817.371	27835
817.512	27850
817.653	27816
817.793	27785
817.934	27827
818.075	27831
818.216	27827
818.356	27854
818.497	27804
818.638	27492
818.778	27625
818.919	27542
819.06	27629
819.2	27686
819.341	27797
819.481	27759
819.622	28032
819.762	28097
819.903	28112
820.043	27960
820.184	27937
820.324	27934
820.465	27945
820.605	27907
820.746	28017
820.886	27819
821.026	27911
821.167	27911
821.307	28032
821.447	27888
821.588	27736
821.728	27652
821.868	27515
822.008	27469
822.149	27393
822.289	27237
822.429	27089
822.569	26975
822.709	27077
822.849	26781
822.99	26773
823.13	26944
823.27	26792
823.41	26655
823.55	26587
823.69	26686
823.83	26602
823.97	26549
824.11	26385
824.25	26484
824.389	26530
824.529	26511
824.669	26476
824.809	26564
824.949	26492
825.089	26617
825.228	26663
825.368	26313
825.508	26408
825.648	26343
825.787	26473
825.927	26446
826.067	26294
826.206	26259
826.346	26362
826.485	26495
826.625	26332
826.765	26503
826.904	26317
827.044	26065
827.183	26195
827.323	26016
827.462	26100
827.601	26122
827.741	26100
827.88	26130
828.02	25925
828.159	25947
828.298	25986
828.437	26142
828.577	25993
828.716	26134
828.855	26031
828.994	25788
829.134	25731
829.273	25875
829.412	25837
829.551	25734
829.69	25738
829.829	25803
829.968	25852
830.107	26001
830.246	25704
830.385	25769
830.524	25727
830.663	25487
830.802	25582
830.941	25384
831.08	25266
831.219	25552
831.357	25339
831.496	25639
831.635	25392
831.774	25251
831.913	25388
832.051	25209
832.19	25206
832.329	25129
832.467	25152
832.606	24840
832.744	24977
832.883	24901
833.022	24951
833.16	25160
833.299	25152
833.437	25072
833.576	25141
833.714	25057
833.852	25247
833.991	25152
834.129	25171
834.267	25091
834.406	25160
834.544	25141
834.682	25103
834.821	25126
834.959	25198
835.097	24966
835.235	25084
835.373	25046
835.511	25038
835.65	24970
835.788	25034
835.926	24764
836.064	24776
836.202	24661
836.34	24943
836.478	24951
836.615	24825
836.753	24981
836.891	25027
837.029	24985
837.167	24814
837.305	24837
837.443	24677
837.58	24711
837.718	24882
837.856	24829
837.993	24749
838.131	24719
838.269	24673
838.406	24707
838.544	24593
838.681	24270
838.819	24372
838.956	24228
839.094	24220
839.231	24270
839.369	24433
839.506	24570
839.643	24433
839.781	24098
839.918	24174
840.055	24304
840.193	24144
840.33	24152
840.467	24072
840.604	24129
840.742	24380
840.879	23980
841.016	24053
841.153	24045
841.29	24194
841.427	24018
841.564	24167
841.701	24133
841.838	24174
841.975	24114
842.112	23992
842.249	23923
842.385	23859
842.522	24121
842.659	23961
842.796	23779
842.933	23912
843.069	23798
843.206	23767
843.343	23916
843.479	23786
843.616	23942
843.752	23729
843.889	23703
844.025	23737
844.162	23691
844.298	23672
844.435	23585
844.571	23684
844.708	23630
844.844	23767
844.98	23748
845.117	23805
845.253	23649
845.389	23630
845.525	23615
845.661	23436
845.798	23345
845.934	23436
846.07	23265
846.206	23433
846.342	23524
846.478	23414
846.614	23132
846.75	23162
846.886	23025
847.022	23151
847.158	23140
847.294	23102
847.429	23071
847.565	22987
847.701	23254
847.837	22896
847.972	22767
848.108	22942
848.244	22889
848.379	22698
848.515	22603
848.65	22645
848.786	22717
848.921	22786
849.057	22691
849.192	22843
849.328	22748
849.463	22649
849.598	22596
849.734	22645
849.869	22561
850.004	22379
850.14	22527
850.275	22466
850.41	22447
850.545	22421
850.68	22375
850.815	22451
850.95	22500
851.085	22584
851.22	22573
851.355	22538
851.49	22451
851.625	22360
851.76	22367
851.895	22325
852.03	22394
852.165	22440
852.299	22557
852.434	22470
852.569	22535
852.703	22447
852.838	22344
852.973	22565
853.107	22455
853.242	22341
853.376	22272
853.511	22226
853.645	22265
853.78	22352
853.914	22417
854.048	22402
854.183	22219
854.317	22398
854.451	22466
854.585	22352
854.72	22268
854.854	22352
854.988	22169
855.122	22265
855.256	22276
855.39	22287
855.524	22306
855.658	22268
855.792	22265
855.926	22253
856.06	22375
856.194	22382
856.327	22272
856.461	22192
856.595	22223
856.729	22162
856.862	22360
856.996	22322
857.13	22402
857.263	22546
857.397	22413
857.53	22196
857.664	22386
857.797	22432
857.931	22424
858.064	22367
858.197	22432
858.331	22253
858.464	22295
858.597	22325
858.731	22257
858.864	22147
858.997	22181
859.13	22322
859.263	22162
859.396	22295
859.529	22226
859.662	22402
859.795	22215
859.928	22265
860.061	22462
860.194	22371
860.327	22303
860.46	22150
860.592	22367
860.725	22443
860.858	22443
860.99	22402
861.123	22234
861.256	22177
861.388	22276
861.521	23006
861.653	22181
861.786	22048
861.918	22166
862.05	22166
862.183	22154
862.315	22112
862.447	22280
862.58	22207
862.712	21857
862.844	21884
862.976	22025
863.108	22097
863.24	22451
863.372	21934
863.504	21991
863.636	21918
863.768	21937
863.9	21945
864.032	21941
864.164	21854
864.296	21983
864.428	22017
864.559	22025
864.691	22112
864.823	21903
864.954	21956
865.086	22002
865.217	21793
865.349	21911
865.48	21854
865.612	21842
865.743	22040
865.875	21991
866.006	21728
866.137	21960
866.269	21972
866.4	21873
866.531	21800
866.662	21831
866.793	21739
866.924	21747
867.055	21785
867.186	21781
867.317	21698
867.448	21755
867.579	21766
867.71	21720
867.841	21854
867.972	21698
868.103	21778
868.233	21770
868.364	21770
868.495	21972
868.625	21983
868.756	22143
868.886	22032
869.017	22074
869.147	22051
869.278	22154
869.408	21956
869.539	21968
869.669	22154
869.799	22116
869.929	22078
870.06	22017
870.19	22360
870.32	22314
870.45	22432
870.58	22382
870.71	22451
870.84	22478
870.97	22519
871.1	22504
871.23	22733
871.36	22679
871.489	22615
871.619	22588
871.749	22736
871.879	22687
872.008	22641
872.138	22630
872.267	22672
872.397	22538
872.526	22424
872.656	22634
872.785	22596
872.915	22733
873.044	22752
873.173	22523
873.303	22557
873.432	22664
873.561	22847
873.69	22645
873.819	22630
873.948	22729
874.077	22694
874.206	22584
874.335	22675
874.464	22683
874.593	22930
874.722	22790
874.851	22843
874.979	22835
875.108	22854
875.237	22752
875.365	22755
875.494	22831
875.623	23132
875.751	22767
875.88	22869
876.008	22999
876.136	23113
876.265	23200
876.393	23376
876.521	23467
876.65	23231
876.778	23318
876.906	23121
877.034	23212
877.162	23231
877.29	23170
877.418	23098
877.546	23113
877.674	23105
877.802	23200
877.93	23254
878.058	23220
878.185	22961
878.313	23174
878.441	23090
878.568	23041
878.696	23151
878.824	23208
878.951	23261
879.079	23288
879.206	23630
879.333	23341
879.461	23181
879.588	23261
879.715	23334
879.842	23459
879.97	23269
880.097	22923
880.224	23006
880.351	23185
880.478	23018
880.605	23022
880.732	23105
880.859	23216
880.986	23014
881.112	23166
881.239	22908
881.366	22774
881.493	22850
881.619	22717
881.746	22668
881.872	22592
881.999	22485
882.125	22497
882.252	22596
882.378	22618
882.505	22717
882.631	22455
882.757	22287
882.883	22348
883.01	22249
883.136	22215
883.262	22082
883.388	22048
883.514	22295
883.64	22116
883.766	22169
883.892	21953
884.018	22166
884.143	22299
884.269	22242
884.395	22017
884.52	21838
884.646	21842
884.772	21964
884.897	21732
885.023	21884
885.148	21991
885.274	22059
885.399	21899
885.524	21884
885.65	21869
885.775	21888
885.9	21869
886.025	22067
886.15	21991
886.275	21876
886.4	21713
886.525	21873
886.65	21838
886.775	21751
886.9	21953
887.025	22074
887.149	21880
887.274	21679
887.399	21682
887.523	21625
887.648	21747
887.773	21519
887.897	21751
888.021	21656
888.146	21561
888.27	21644
888.395	21857
888.519	21690
888.643	21720
888.767	21709
888.891	21526
889.015	21473
889.139	21443
889.263	21576
889.387	21454
889.511	21690
889.635	21591
889.759	21386
889.883	21294
890.006	21481
890.13	21359
890.254	21412
890.377	21355
890.501	21135
890.624	21180
890.748	21154
890.871	21085
890.995	20941
891.118	20960
891.241	21032
891.364	20952
891.488	21077
891.611	21047
891.734	20990
891.857	20982
891.98	21024
892.103	21028
892.226	20952
892.349	20933
892.471	20705
892.594	20937
892.717	20925
892.839	20921
892.962	20944
893.085	20895
893.207	21066
893.33	20800
893.452	20708
893.575	20929
893.697	20906
893.819	21005
893.941	21077
894.064	21066
894.186	20765
894.308	20796
894.43	21009
894.552	21005
894.674	21032
894.796	20864
894.918	20910
895.04	20853
895.161	20929
895.283	20990
895.405	20807
895.526	20914
895.648	20899
895.769	20826
895.891	20941
896.012	21058
896.134	20914
896.255	20857
896.376	20785
896.498	20921
896.619	20849
896.74	20910
896.861	20868
896.982	21150
897.103	21370
897.224	21112
897.345	21009
897.466	21074
897.587	20994
897.708	21104
897.828	21096
897.949	21028
898.07	20979
898.19	21005
898.311	21096
898.431	20933
898.552	21062
898.672	21116
898.792	21127
898.913	21024
899.033	20914
899.153	20948
899.273	20800
899.393	20918
899.513	20830
899.633	20823
899.753	20796
899.873	20708
899.993	20746
900.113	20689
900.232	20830
900.352	20720
900.472	20640
900.591	20511
900.711	20556
900.83	20621
900.95	20724
901.069	20708
901.189	20446
901.308	20278
901.427	20161
901.546	20191
901.665	20210
901.784	20229
901.904	19982
902.023	19913
902.141	19803
902.26	19635
902.379	19738
902.498	19696
902.617	19597
902.735	19727
902.854	19651
902.973	19559
903.091	19362
903.21	19343
903.328	19278
903.446	19152
903.565	19168
903.683	19148
903.801	18966
903.919	19084
904.038	19046
904.156	18932
904.274	18890
904.392	18905
904.51	18833
904.627	18776
904.745	18863
904.863	18730
904.981	18665
905.098	18566
905.216	18669
905.334	18593
905.451	18574
905.569	18521
905.686	18593
905.803	18555
905.921	18369
906.038	18433
906.155	18353
906.272	18110
906.389	18228
906.506	18087
906.623	18034
906.74	17999
906.857	17954
906.974	17996
907.091	18152
907.208	18251
907.324	18038
907.441	17965
907.557	17897
907.674	17840
907.79	17627
907.907	17836
908.023	17828
908.139	17756
908.256	17718
908.372	17699
908.488	17665
908.604	17459
908.72	17524
908.836	17436
908.952	17520
909.068	17455
909.184	17672
909.3	17440
909.415	17611
909.531	17493
909.647	17174
909.762	17212
909.878	17174
909.993	17227
910.108	17140
910.224	17204
910.339	17140
910.454	17117
910.57	16961
910.685	17010
910.8	17197
910.915	17113
911.03	16934
911.145	16702
911.259	16793
911.374	16725
911.489	16721
911.604	16622
911.718	16516
911.833	16485
911.947	16451
912.062	16459
912.176	16675
912.291	16592
912.405	16512
912.519	16626
912.633	16733
912.748	16535
912.862	16546
912.976	16344
913.09	16185
913.204	16394
913.318	16325
913.431	16348
913.545	16375
913.659	16402
913.772	16276
913.886	16105
914	16139
914.113	16257
914.226	16188
914.34	16181
914.453	15975
914.566	16177
914.68	15956
914.793	15892
914.906	15762
915.019	15663
915.132	15660
915.245	15663
915.358	15759
915.47	15686
915.583	15800
915.696	15694
915.809	15812
915.921	15861
916.034	15675
916.146	15625
916.259	15568
916.371	15774
916.483	15584
916.595	15504
916.708	15538
916.82	15580
916.932	15393
917.044	15572
917.156	15526
917.268	15329
917.38	15378
917.491	15268
917.603	15386
917.715	15389
917.826	15386
917.938	15325
918.049	15112
918.161	15222
918.272	15485
918.384	15496
918.495	15291
918.606	15150
918.717	15085
918.828	15169
918.939	15119
919.05	14990
919.161	15058
919.272	14906
919.383	14941
919.494	15062
919.604	15283
919.715	15032
919.826	15058
919.936	15081
920.047	15218
920.157	15077
920.267	15268
920.378	15081
920.488	14975
920.598	15180
920.708	15283
920.818	15184
920.928	15077
921.038	15310
921.148	15279
921.258	14895
921.368	14941
921.477	14716
921.587	14693
921.697	14670
921.806	14857
921.916	14636
922.025	14366
922.134	14393
922.244	14454
922.353	14381
922.462	14282
922.571	14202
922.68	14088
922.789	13970
922.898	14039
923.007	13947
923.116	14008
923.224	14043
923.333	14027
923.442	13925
923.55	13894
923.659	13799
923.767	13944
923.876	13837
923.984	13936
924.092	13772
924.201	13845
924.309	13700
924.417	13693
924.525	13662
924.633	13750
924.741	14518
924.849	13567
924.956	13605
925.064	13419
925.172	13350
925.279	13468
925.387	13571
925.494	13407
925.602	13487
925.709	13552
925.816	13308
925.924	13438
926.031	13491
926.138	13388
926.245	13449
926.352	13232
926.459	13445
926.566	13449
926.673	13183
926.779	13187
926.886	13164
926.993	13004
927.099	12951
927.206	13034
927.312	12993
927.419	13008
927.525	12935
927.631	13015
927.737	12935
927.843	12798
927.95	12658
928.056	12806
928.162	12909
928.267	12829
928.373	13354
928.479	12810
928.585	12597
928.69	12726
928.796	12787
928.901	12616
929.007	12441
929.112	12608
929.218	12563
929.323	12494
929.428	12525
929.533	12631
929.638	12445
929.743	12494
929.848	12475
929.953	12429
930.058	12323
930.163	12060
930.267	12171
930.372	12296
930.477	12125
930.581	12350
930.685	12197
930.79	12072
930.894	12133
930.998	12098
931.103	12148
931.207	11847
931.311	11748
931.415	11585
931.519	11433
931.623	11410
