Data from test_V78500241_1705.txt Node
Date: Fri Mar 25 15:53:36 CST 2022
User: usil
Spectrometer: V785-0024
Trigger mode: 0
Integration Time (sec): 4.000000E-1
Scans to average: 1
Nonlinearity correction enabled: false
Boxcar width: 0
Storing dark spectrum: false
XAxis mode: Wavelengths
Number of Pixels in Spectrum: 1024
>>>>>Begin Spectral Data<<<<<
801.071	28120
801.214	28185
801.356	27865
801.499	27842
801.641	27755
801.783	27739
801.926	27789
802.068	27819
802.211	27637
802.353	27652
802.496	27500
802.638	27447
802.78	27427
802.923	27249
803.065	27180
803.208	27291
803.35	27416
803.492	27614
803.635	27629
803.777	27549
803.919	27576
804.061	27934
804.204	27599
804.346	27618
804.488	27496
804.63	27504
804.773	27458
804.915	27713
805.057	27698
805.199	27625
805.341	27709
805.483	27728
805.626	27698
805.768	27717
805.91	27823
806.052	27785
806.194	27656
806.336	27831
806.478	27774
806.62	27675
806.762	27941
806.904	28032
807.046	28242
807.188	28177
807.33	28139
807.472	28166
807.614	28166
807.756	28166
807.898	28006
808.04	28021
808.182	27964
808.324	28055
808.465	28082
808.607	28215
808.749	28401
808.891	28497
809.033	28451
809.174	28421
809.316	28356
809.458	28405
809.6	28360
809.741	28428
809.883	28611
810.025	28542
810.166	28721
810.308	28702
810.45	28542
810.591	28637
810.733	28470
810.875	28265
811.016	28192
811.158	28276
811.299	28565
811.441	28611
811.582	28725
811.724	28344
811.865	28367
812.007	28310
812.148	28371
812.29	28390
812.431	28462
812.573	28710
812.714	28866
812.855	28862
812.997	28995
813.138	29212
813.279	28999
813.421	28972
813.562	28771
813.703	28596
813.845	28519
813.986	28329
814.127	28188
814.268	28101
814.41	28219
814.551	28078
814.692	28101
814.833	27972
814.974	28029
815.115	28116
815.256	28010
815.397	27930
815.539	27949
815.68	27854
815.821	27816
815.962	27911
816.103	27907
816.244	27804
816.385	27610
816.526	27686
816.666	27568
816.807	27321
816.948	27325
817.089	27466
817.23	27447
817.371	27431
817.512	27412
817.653	27412
817.793	27359
817.934	27332
818.075	27416
818.216	27450
818.356	27389
818.497	27268
818.638	27146
818.778	27199
818.919	27085
819.06	27146
819.2	27287
819.341	27408
819.481	27393
819.622	27542
819.762	27797
819.903	27625
820.043	27610
820.184	27553
820.324	27572
820.465	27583
820.605	27519
820.746	27492
820.886	27348
821.026	27507
821.167	27329
821.307	27534
821.447	27488
821.588	27367
821.728	27233
821.868	26918
822.008	26914
822.149	26864
822.289	26838
822.429	26655
822.569	26545
822.709	26476
822.849	26396
822.99	26320
823.13	26240
823.27	26404
823.41	26149
823.55	26027
823.69	26161
823.83	26199
823.97	26122
824.11	25955
824.25	25978
824.389	25989
824.529	26218
824.669	26054
824.809	26153
824.949	26081
825.089	26027
825.228	26054
825.368	25868
825.508	25887
825.648	25799
825.787	26005
825.927	26001
826.067	25871
826.206	25913
826.346	26073
826.485	25921
826.625	25974
826.765	25982
826.904	25833
827.044	25624
827.183	25734
827.323	25750
827.462	25670
827.601	25674
827.741	25712
827.88	25674
828.02	25556
828.159	25704
828.298	25559
828.437	25799
828.577	25696
828.716	25738
828.855	25590
828.994	25430
829.134	25324
829.273	25369
829.412	25301
829.551	25183
829.69	25324
829.829	25350
829.968	25392
830.107	25407
830.246	25438
830.385	25316
830.524	25251
830.663	25194
830.802	25065
830.941	24791
831.08	24935
831.219	24992
831.357	25057
831.496	25175
831.635	24970
831.774	24856
831.913	24844
832.051	24722
832.19	24642
832.329	24684
832.467	24566
832.606	24608
832.744	24601
832.883	24661
833.022	24547
833.16	24654
833.299	24631
833.437	24677
833.576	24753
833.714	24711
833.852	24677
833.991	24635
834.129	24764
834.267	24700
834.406	24642
834.544	24711
834.682	24597
834.821	24604
834.959	24764
835.097	24498
835.235	24521
835.373	24719
835.511	24555
835.65	24483
835.788	24494
835.926	24426
836.064	24289
836.202	24319
836.34	24555
836.478	24593
836.615	24502
836.753	24486
836.891	24528
837.029	24456
837.167	24464
837.305	24213
837.443	24395
837.58	24285
837.718	24399
837.856	24300
837.993	24437
838.131	24251
838.269	24197
838.406	24121
838.544	24095
838.681	24095
838.819	23946
838.956	23775
839.094	23779
839.231	23935
839.369	23912
839.506	24148
839.643	24003
839.781	23866
839.918	23691
840.055	23695
840.193	23714
840.33	23729
840.467	23657
840.604	23741
840.742	23961
840.879	23516
841.016	23661
841.153	23509
841.29	23764
841.427	23646
841.564	23623
841.701	23714
841.838	23745
841.975	23577
842.112	23619
842.249	23627
842.385	23543
842.522	23566
842.659	23512
842.796	23398
842.933	23497
843.069	23277
843.206	23448
843.343	23551
843.479	23474
843.616	23501
843.752	23261
843.889	23269
844.025	23372
844.162	23292
844.298	23379
844.435	23098
844.571	23258
844.708	23212
844.844	23387
844.98	23330
845.117	23376
845.253	23223
845.389	23113
845.525	23208
845.661	22999
845.798	22961
845.934	22930
846.07	22980
846.206	22987
846.342	23064
846.478	22995
846.614	22694
846.75	22668
846.886	22588
847.022	22744
847.158	22607
847.294	22698
847.429	22729
847.565	22675
847.701	22953
847.837	22413
847.972	22447
848.108	22596
848.244	22409
848.379	22306
848.515	22310
848.65	22272
848.786	22325
848.921	22344
849.057	22329
849.192	22386
849.328	22402
849.463	22257
849.598	22337
849.734	22181
849.869	22101
850.004	22135
850.14	22078
850.275	22158
850.41	21949
850.545	21968
850.68	21960
850.815	22116
850.95	21930
851.085	22204
851.22	22051
851.355	22055
851.49	22017
851.625	21994
851.76	21972
851.895	21899
852.03	21930
852.165	21953
852.299	22185
852.434	22135
852.569	22006
852.703	22010
852.838	22166
852.973	22112
853.107	22169
853.242	21991
853.376	21876
853.511	21728
853.645	21895
853.78	21953
853.914	22025
854.048	21911
854.183	21884
854.317	21831
854.451	22059
854.585	21884
854.72	21831
854.854	21922
854.988	21808
855.122	21762
855.256	21793
855.39	21857
855.524	21808
855.658	21884
855.792	21857
855.926	21850
856.06	21960
856.194	22029
856.327	21743
856.461	21842
856.595	21686
856.729	21743
856.862	21998
856.996	21956
857.13	21922
857.263	21979
857.397	21926
857.53	21751
857.664	21819
857.797	21812
857.931	22040
858.064	21831
858.197	22021
858.331	21895
858.464	21751
858.597	21789
858.731	21903
858.864	21846
858.997	21690
859.13	21823
859.263	21922
859.396	21960
859.529	21922
859.662	21903
859.795	21690
859.928	21812
860.061	22017
860.194	22082
860.327	21895
860.46	21911
860.592	21880
860.725	21975
860.858	21941
860.99	21800
861.123	21629
861.256	21816
861.388	21880
861.521	22577
861.653	21827
861.786	21618
861.918	21698
862.05	21876
862.183	21667
862.315	21880
862.447	21892
862.58	21679
862.712	21637
862.844	21553
862.976	21504
863.108	21614
863.24	22036
863.372	21542
863.504	21580
863.636	21542
863.768	21633
863.9	21610
864.032	21534
864.164	21450
864.296	21622
864.428	21698
864.559	21682
864.691	21629
864.823	21553
864.954	21473
865.086	21545
865.217	21424
865.349	21389
865.48	21473
865.612	21466
865.743	21633
865.875	21443
866.006	21447
866.137	21466
866.269	21469
866.4	21462
866.531	21401
866.662	21386
866.793	21245
866.924	21485
867.055	21477
867.186	21408
867.317	21317
867.448	21336
867.579	21351
867.71	21298
867.841	21237
867.972	21233
868.103	21393
868.233	21344
868.364	21412
868.495	21481
868.625	21561
868.756	21694
868.886	21549
869.017	21686
869.147	21671
869.278	21759
869.408	21561
869.539	21583
869.669	21709
869.799	21793
869.929	21690
870.06	21694
870.19	21945
870.32	21949
870.45	21964
870.58	21998
870.71	22173
870.84	22048
870.97	22097
871.1	21994
871.23	22105
871.36	22169
871.489	22002
871.619	22131
871.749	22181
871.879	22234
872.008	22409
872.138	22341
872.267	22120
872.397	22131
872.526	22036
872.656	22109
872.785	22010
872.915	22177
873.044	22310
873.173	22348
873.303	22303
873.432	22261
873.561	22485
873.69	22177
873.819	22287
873.948	22219
874.077	22291
874.206	22154
874.335	22249
874.464	22367
874.593	22409
874.722	22310
874.851	22314
874.979	22375
875.108	22599
875.237	22348
875.365	22261
875.494	22462
875.623	22527
875.751	22348
875.88	22504
876.008	22447
876.136	22603
876.265	22767
876.393	22919
876.521	22850
876.65	22896
876.778	22854
876.906	22733
877.034	22755
877.162	22771
877.29	22729
877.418	22919
877.546	22816
877.674	22736
877.802	22805
877.93	22816
878.058	22729
878.185	22672
878.313	22733
878.441	22801
878.568	22561
878.696	22839
878.824	22782
878.951	22896
879.079	22911
879.206	23174
879.333	22984
879.461	22847
879.588	22930
879.715	23037
879.842	23151
879.97	22736
880.097	22618
880.224	22618
880.351	22672
880.478	22538
880.605	22508
880.732	22721
880.859	22820
880.986	22611
881.112	22771
881.239	22455
881.366	22287
881.493	22188
881.619	22276
881.746	22348
881.872	22238
881.999	22314
882.125	22040
882.252	22253
882.378	22173
882.505	22226
882.631	22021
882.757	21964
882.883	21991
883.01	21785
883.136	21915
883.262	21770
883.388	21709
883.514	21922
883.64	21907
883.766	21724
883.892	21671
884.018	21656
884.143	21850
884.269	21861
884.395	21583
884.52	21473
884.646	21667
884.772	21473
884.897	21424
885.023	21431
885.148	21587
885.274	21652
885.399	21583
885.524	21466
885.65	21511
885.775	21587
885.9	21424
886.025	21679
886.15	21625
886.275	21462
886.4	21428
886.525	21378
886.65	21454
886.775	21511
886.9	21454
887.025	21804
887.149	21420
887.274	21302
887.399	21260
887.523	21408
887.648	21165
887.773	21070
887.897	21389
888.021	21401
888.146	21176
888.27	21363
888.395	21443
888.519	21367
888.643	21275
888.767	21272
888.891	21214
889.015	21043
889.139	20979
889.263	21108
889.387	21089
889.511	21302
889.635	21256
889.759	21051
889.883	21131
890.006	21089
890.13	21112
890.254	21024
890.377	21009
890.501	20765
890.624	20743
890.748	20804
890.871	20670
890.995	20746
891.118	20651
891.241	20583
891.364	20594
891.488	20807
891.611	20659
891.734	20530
891.857	20663
891.98	20590
892.103	20720
892.226	20731
892.349	20632
892.471	20503
892.594	20495
892.717	20598
892.839	20571
892.962	20571
893.085	20575
893.207	20473
893.33	20484
893.452	20495
893.575	20583
893.697	20454
893.819	20667
893.941	20754
894.064	20743
894.186	20533
894.308	20442
894.43	20617
894.552	20659
894.674	20590
894.796	20488
894.918	20587
895.04	20499
895.161	20514
895.283	20442
895.405	20495
895.526	20556
895.648	20560
895.769	20507
895.891	20541
896.012	20629
896.134	20621
896.255	20625
896.376	20442
896.498	20511
896.619	20450
896.74	20568
896.861	20587
896.982	20971
897.103	20960
897.224	20792
897.345	20606
897.466	20754
897.587	20804
897.708	20967
897.828	20651
897.949	20758
898.07	20492
898.19	20636
898.311	20800
898.431	20705
898.552	20777
898.672	20689
898.792	20769
898.913	20667
899.033	20720
899.153	20514
899.273	20476
899.393	20442
899.513	20511
899.633	20518
899.753	20522
899.873	20480
899.993	20457
900.113	20400
900.232	20465
900.352	20412
900.472	20225
900.591	20259
900.711	20244
900.83	20134
900.95	20381
901.069	20305
901.189	20153
901.308	19947
901.427	19738
901.546	19887
901.665	19856
901.784	19909
901.904	19780
902.023	19480
902.141	19377
902.26	19415
902.379	19282
902.498	19373
902.617	19346
902.735	19392
902.854	19247
902.973	19179
903.091	18981
903.21	18989
903.328	19122
903.446	19042
903.565	18863
903.683	18806
903.801	18795
903.919	18779
904.038	18802
904.156	18601
904.274	18631
904.392	18475
904.51	18506
904.627	18563
904.745	18601
904.863	18597
904.981	18399
905.098	18243
905.216	18220
905.334	18292
905.451	18277
905.569	18106
905.686	18247
905.803	18235
905.921	17965
906.038	18129
906.155	18098
906.272	17870
906.389	17866
906.506	17836
906.623	17805
906.74	17802
906.857	17611
906.974	17570
907.091	17790
907.208	17923
907.324	17904
907.441	17680
907.557	17474
907.674	17570
907.79	17444
907.907	17436
908.023	17528
908.139	17391
908.256	17356
908.372	17402
908.488	17296
908.604	17326
908.72	17174
908.836	17231
908.952	17162
909.068	17193
909.184	17239
909.3	17105
909.415	17315
909.531	17197
909.647	16930
909.762	16995
909.878	16835
909.993	16820
910.108	16854
910.224	16790
910.339	16786
910.454	16786
910.57	16713
910.685	16679
910.8	16911
910.915	16854
911.03	16752
911.145	16596
911.259	16516
911.374	16451
911.489	16500
911.604	16402
911.718	16257
911.833	16287
911.947	16109
912.062	15983
912.176	16219
912.291	16268
912.405	16215
912.519	16440
912.633	16413
912.748	16344
912.862	16131
912.976	16048
913.09	15934
913.204	16017
913.318	16063
913.431	16109
913.545	16131
913.659	16021
913.772	16010
913.886	15903
914	15812
914.113	16010
914.226	15987
914.34	15934
914.453	15808
914.566	15865
914.68	15743
914.793	15713
914.906	15519
915.019	15469
915.132	15439
915.245	15443
915.358	15500
915.47	15412
915.583	15431
915.696	15450
915.809	15557
915.921	15644
916.034	15317
916.146	15348
916.259	15313
916.371	15279
916.483	15283
916.595	15119
916.708	15241
916.82	15302
916.932	15233
917.044	15256
917.156	15332
917.268	15123
917.38	15081
917.491	15116
917.603	15028
917.715	15127
917.826	15100
917.938	15089
918.049	14853
918.161	15020
918.272	15173
918.384	15146
918.495	14963
918.606	14891
918.717	14754
918.828	14819
918.939	14819
919.05	14689
919.161	14800
919.272	14632
919.383	14621
919.494	14834
919.604	15017
919.715	14792
919.826	14674
919.936	14807
920.047	14880
920.157	14807
920.267	14937
920.378	14769
920.488	14689
920.598	15028
920.708	15123
920.818	14872
920.928	14952
921.038	15066
921.148	15005
921.258	14765
921.368	14621
921.477	14556
921.587	14476
921.697	14469
921.806	14446
921.916	14336
922.025	14206
922.134	14183
922.244	14084
922.353	14218
922.462	14024
922.571	13944
922.68	13963
922.789	13727
922.898	13803
923.007	13788
923.116	13814
923.224	13738
923.333	13791
923.442	13681
923.55	13559
923.659	13655
923.767	13731
923.876	13571
923.984	13658
924.092	13491
924.201	13571
924.309	13525
924.417	13506
924.525	13381
924.633	13434
924.741	14286
924.849	13282
924.956	13327
925.064	13251
925.172	13141
925.279	13141
925.387	13194
925.494	13217
925.602	13297
925.709	13206
925.816	13141
925.924	13126
926.031	13103
926.138	13126
926.245	13118
926.352	13095
926.459	13122
926.566	13179
926.673	13008
926.779	12867
926.886	12951
926.993	12878
927.099	12779
927.206	12715
927.312	12768
927.419	12837
927.525	12722
927.631	12802
927.737	12601
927.843	12620
927.95	12483
928.056	12566
928.162	12620
928.267	12589
928.373	13301
928.479	12650
928.585	12350
928.69	12540
928.796	12566
928.901	12471
929.007	12281
929.112	12410
929.218	12380
929.323	12365
929.428	12315
929.533	12528
929.638	12213
929.743	12205
929.848	12266
929.953	12190
930.058	12098
930.163	11969
930.267	11969
930.372	12129
930.477	11969
930.581	12114
930.685	11999
930.79	11809
930.894	11809
930.998	11878
931.103	12003
931.207	11634
931.311	11543
931.415	11452
931.519	11246
931.623	11220
