Data from test_V78500241_1415.txt Node
Date: Fri Mar 25 15:51:36 CST 2022
User: usil
Spectrometer: V785-0024
Trigger mode: 0
Integration Time (sec): 4.000000E-1
Scans to average: 1
Nonlinearity correction enabled: false
Boxcar width: 0
Storing dark spectrum: false
XAxis mode: Wavelengths
Number of Pixels in Spectrum: 1024
>>>>>Begin Spectral Data<<<<<
801.071	28462
801.214	28447
801.356	28226
801.499	28105
801.641	28093
801.783	28074
801.926	28177
802.068	28090
802.211	27880
802.353	27987
802.496	27789
802.638	27762
802.78	27614
802.923	27599
803.065	27568
803.208	27629
803.35	27869
803.492	27899
803.635	27987
803.777	27857
803.919	27819
804.061	28124
804.204	28006
804.346	28017
804.488	27835
804.63	27960
804.773	27899
804.915	27892
805.057	28070
805.199	27934
805.341	28097
805.483	28238
805.626	28128
805.768	28021
805.91	28169
806.052	28192
806.194	27994
806.336	28154
806.478	28200
806.62	28128
806.762	28379
806.904	28432
807.046	28516
807.188	28580
807.33	28717
807.472	28596
807.614	28573
807.756	28436
807.898	28360
808.04	28417
808.182	28371
808.324	28561
808.465	28607
808.607	28668
808.749	28748
808.891	28858
809.033	28869
809.174	28850
809.316	28786
809.458	28869
809.6	28691
809.741	28957
809.883	28919
810.025	29162
810.166	29181
810.308	29037
810.45	28987
810.591	28968
810.733	28900
810.875	28805
811.016	28702
811.158	28725
811.299	28953
811.441	28953
811.582	28900
811.724	28843
811.865	28850
812.007	28687
812.148	28888
812.29	28763
812.431	28896
812.573	29048
812.714	29307
812.855	29368
812.997	29482
813.138	29463
813.279	29501
813.421	29288
813.562	29265
813.703	29121
813.845	29025
813.986	28850
814.127	28717
814.268	28607
814.41	28462
814.551	28470
814.692	28592
814.833	28531
814.974	28447
815.115	28489
815.256	28409
815.397	28371
815.539	28367
815.68	28318
815.821	28139
815.962	28360
816.103	28242
816.244	28249
816.385	28101
816.526	28112
816.666	27949
816.807	27873
816.948	27846
817.089	28048
817.23	27964
817.371	27838
817.512	27831
817.653	27842
817.793	27622
817.934	27743
818.075	27739
818.216	27713
818.356	27819
818.497	27679
818.638	27477
818.778	27564
818.919	27660
819.06	27663
819.2	27755
819.341	27835
819.481	27842
819.622	28029
819.762	28150
819.903	28067
820.043	28093
820.184	27991
820.324	27899
820.465	27903
820.605	27979
820.746	28044
820.886	27785
821.026	27975
821.167	27800
821.307	27968
821.447	27918
821.588	27850
821.728	27587
821.868	27507
822.008	27363
822.149	27233
822.289	27329
822.429	27066
822.569	26982
822.709	26948
822.849	26876
822.99	26743
823.13	26754
823.27	26609
823.41	26655
823.55	26514
823.69	26667
823.83	26549
823.97	26526
824.11	26343
824.25	26415
824.389	26427
824.529	26408
824.669	26617
824.809	26598
824.949	26415
825.089	26484
825.228	26427
825.368	26305
825.508	26298
825.648	26343
825.787	26381
825.927	26541
826.067	26237
826.206	26256
826.346	26358
826.485	26522
826.625	26305
826.765	26492
826.904	26256
827.044	26122
827.183	26199
827.323	26073
827.462	26119
827.601	25978
827.741	26027
827.88	26119
828.02	25974
828.159	26024
828.298	26107
828.437	26122
828.577	26088
828.716	26005
828.855	25928
828.994	25723
829.134	25746
829.273	25811
829.412	25746
829.551	25795
829.69	25681
829.829	25738
829.968	25822
830.107	25894
830.246	25875
830.385	25533
830.524	25620
830.663	25582
830.802	25430
830.941	25335
831.08	25228
831.219	25343
831.357	25350
831.496	25575
831.635	25422
831.774	25324
831.913	25289
832.051	25209
832.19	25088
832.329	25110
832.467	25069
832.606	24943
832.744	24973
832.883	24966
833.022	24856
833.16	25050
833.299	25107
833.437	25050
833.576	25095
833.714	25069
833.852	25168
833.991	25133
834.129	25152
834.267	25217
834.406	25080
834.544	25145
834.682	24951
834.821	25019
834.959	25232
835.097	24943
835.235	25240
835.373	25072
835.511	25038
835.65	24852
835.788	24848
835.926	24840
836.064	24791
836.202	24856
836.34	24875
836.478	24973
836.615	24970
836.753	24863
836.891	24962
837.029	24951
837.167	24859
837.305	24791
837.443	24840
837.58	24741
837.718	24852
837.856	24707
837.993	24677
838.131	24711
838.269	24570
838.406	24646
838.544	24616
838.681	24445
838.819	24334
838.956	24110
839.094	24243
839.231	24144
839.369	24235
839.506	24540
839.643	24403
839.781	24182
839.918	24186
840.055	24163
840.193	24197
840.33	24201
840.467	24182
840.604	24102
840.742	24498
840.879	24003
841.016	23980
841.153	24144
841.29	24209
841.427	24087
841.564	24292
841.701	24163
841.838	23980
841.975	23992
842.112	23961
842.249	23977
842.385	23817
842.522	24110
842.659	23969
842.796	23767
842.933	23847
843.069	23764
843.206	23824
843.343	23923
843.479	23775
843.616	23821
843.752	23642
843.889	23611
844.025	23764
844.162	23566
844.298	23668
844.435	23600
844.571	23551
844.708	23600
844.844	23779
844.98	23790
845.117	23737
845.253	23600
845.389	23421
845.525	23539
845.661	23433
845.798	23383
845.934	23505
846.07	23345
846.206	23349
846.342	23433
846.478	23337
846.614	23162
846.75	23178
846.886	23060
847.022	23136
847.158	23075
847.294	23170
847.429	23090
847.565	23052
847.701	23376
847.837	22744
847.972	22713
848.108	22869
848.244	22877
848.379	22729
848.515	22710
848.65	22733
848.786	22706
848.921	22687
849.057	22733
849.192	22801
849.328	22649
849.463	22752
849.598	22603
849.734	22611
849.869	22485
850.004	22348
850.14	22451
850.275	22618
850.41	22348
850.545	22455
850.68	22447
850.815	22512
850.95	22432
851.085	22611
851.22	22557
851.355	22428
851.49	22451
851.625	22398
851.76	22432
851.895	22516
852.03	22485
852.165	22459
852.299	22402
852.434	22535
852.569	22538
852.703	22322
852.838	22417
852.973	22641
853.107	22599
853.242	22424
853.376	22265
853.511	22196
853.645	22150
853.78	22341
853.914	22185
854.048	22120
854.183	22204
854.317	22367
854.451	22436
854.585	22284
854.72	22162
854.854	22325
854.988	22200
855.122	22299
855.256	22063
855.39	22265
855.524	22310
855.658	22249
855.792	22325
855.926	22261
856.06	22333
856.194	22352
856.327	22367
856.461	22204
856.595	22226
856.729	22253
856.862	22310
856.996	22276
857.13	22405
857.263	22375
857.397	22291
857.53	22242
857.664	22447
857.797	22166
857.931	22386
858.064	22299
858.197	22402
858.331	22215
858.464	22124
858.597	22109
858.731	22196
858.864	22192
858.997	22234
859.13	22299
859.263	22196
859.396	22284
859.529	22230
859.662	22226
859.795	22185
859.928	22215
860.061	22382
860.194	22428
860.327	22211
860.46	22310
860.592	22360
860.725	22394
860.858	22432
860.99	22306
861.123	22090
861.256	22120
861.388	22299
861.521	22930
861.653	22143
861.786	22120
861.918	22181
862.05	22097
862.183	22131
862.315	22188
862.447	22238
862.58	22097
862.712	22166
862.844	21899
862.976	22029
863.108	21983
863.24	22447
863.372	21895
863.504	21861
863.636	21975
863.768	22025
863.9	22070
864.032	21827
864.164	21964
864.296	21979
864.428	22166
864.559	21994
864.691	21968
864.823	21915
864.954	21918
865.086	21975
865.217	21994
865.349	21751
865.48	21781
865.612	21857
865.743	22040
865.875	21774
866.006	21804
866.137	21873
866.269	21998
866.4	21785
866.531	21781
866.662	21804
866.793	21766
866.924	21751
867.055	21797
867.186	21823
867.317	21823
867.448	21690
867.579	21682
867.71	21705
867.841	21690
867.972	21785
868.103	21739
868.233	21770
868.364	21812
868.495	21857
868.625	21918
868.756	22055
868.886	21876
869.017	22040
869.147	22021
869.278	22166
869.408	21956
869.539	22048
869.669	22135
869.799	22021
869.929	22116
870.06	22101
870.19	22295
870.32	22303
870.45	22375
870.58	22333
870.71	22481
870.84	22550
870.97	22424
871.1	22352
871.23	22535
871.36	22668
871.489	22580
871.619	22618
871.749	22554
871.879	22668
872.008	22672
872.138	22584
872.267	22550
872.397	22531
872.526	22466
872.656	22382
872.785	22489
872.915	22637
873.044	22820
873.173	22641
873.303	22706
873.432	22691
873.561	22835
873.69	22656
873.819	22618
873.948	22698
874.077	22630
874.206	22641
874.335	22675
874.464	22713
874.593	22858
874.722	22615
874.851	22938
874.979	22972
875.108	22850
875.237	22896
875.365	22809
875.494	22809
875.623	22881
875.751	22797
875.88	22797
876.008	23003
876.136	23006
876.265	23162
876.393	23379
876.521	23337
876.65	23326
876.778	23162
876.906	23303
877.034	23166
877.162	23265
877.29	23079
877.418	23162
877.546	23227
877.674	23227
877.802	23227
877.93	23292
878.058	23102
878.185	23128
878.313	23128
878.441	23239
878.568	22919
878.696	23064
878.824	23292
878.951	23265
879.079	23315
879.206	23596
879.333	23307
879.461	23284
879.588	23345
879.715	23398
879.842	23395
879.97	23239
880.097	23071
880.224	23098
880.351	23010
880.478	23048
880.605	23048
880.732	23018
880.859	23261
880.986	23056
881.112	22942
881.239	22968
881.366	22828
881.493	22672
881.619	22687
881.746	22630
881.872	22675
881.999	22550
882.125	22519
882.252	22493
882.378	22500
882.505	22786
882.631	22546
882.757	22341
882.883	22287
883.01	22367
883.136	22166
883.262	21991
883.388	22044
883.514	22268
883.64	22386
883.766	22067
883.892	22006
884.018	22078
884.143	22215
884.269	22211
884.395	22059
884.52	21865
884.646	21934
884.772	21838
884.897	21762
885.023	21880
885.148	21903
885.274	22029
885.399	22044
885.524	21819
885.65	22055
885.775	21804
885.9	21854
886.025	22120
886.15	21800
886.275	21930
886.4	21785
886.525	21857
886.65	21804
886.775	21918
886.9	22013
887.025	22067
887.149	21823
887.274	21705
887.399	21660
887.523	21679
887.648	21576
887.773	21519
887.897	21770
888.021	21671
888.146	21625
888.27	21789
888.395	21656
888.519	21724
888.643	21694
888.767	21690
888.891	21739
889.015	21481
889.139	21530
889.263	21405
889.387	21606
889.511	21713
889.635	21542
889.759	21435
889.883	21424
890.006	21462
890.13	21557
890.254	21336
890.377	21424
890.501	21275
890.624	21154
890.748	21127
890.871	21108
890.995	21085
891.118	21017
891.241	21013
891.364	21135
891.488	21066
891.611	20998
891.734	20952
891.857	21020
891.98	21036
892.103	21131
892.226	21017
892.349	20971
892.471	20876
892.594	20937
892.717	20891
892.839	20864
892.962	20819
893.085	20929
893.207	20849
893.33	20792
893.452	20830
893.575	20861
893.697	20845
893.819	21024
893.941	21062
894.064	21062
894.186	20800
894.308	21036
894.43	21020
894.552	21077
894.674	21051
894.796	20876
894.918	20845
895.04	20781
895.161	20918
895.283	20914
895.405	20815
895.526	20826
895.648	20788
895.769	20887
895.891	20880
896.012	20941
896.134	21017
896.255	20807
896.376	20804
896.498	20811
896.619	20845
896.74	20872
896.861	20861
896.982	21252
897.103	21469
897.224	20982
897.345	21047
897.466	20998
897.587	21062
897.708	21104
897.828	21036
897.949	20986
898.07	21112
898.19	21036
898.311	21142
898.431	20963
898.552	21077
898.672	21169
898.792	21222
898.913	20963
899.033	21009
899.153	20769
899.273	20792
899.393	20868
899.513	20739
899.633	20902
899.753	20773
899.873	20804
899.993	20849
900.113	20571
900.232	20762
900.352	20663
900.472	20549
900.591	20552
900.711	20670
900.83	20530
900.95	20765
901.069	20731
901.189	20598
901.308	20191
901.427	20126
901.546	20149
901.665	20252
901.784	20206
901.904	19986
902.023	19913
902.141	19658
902.26	19696
902.379	19731
902.498	19624
902.617	19590
902.735	19685
902.854	19616
902.973	19514
903.091	19282
903.21	19240
903.328	19327
903.446	19198
903.565	19129
903.683	19122
903.801	18897
903.919	18977
904.038	19110
904.156	19069
904.274	18909
904.392	18776
904.51	18886
904.627	18795
904.745	19019
904.863	18894
904.981	18730
905.098	18528
905.216	18547
905.334	18646
905.451	18601
905.569	18490
905.686	18627
905.803	18452
905.921	18346
906.038	18456
906.155	18403
906.272	18220
906.389	18395
906.506	18049
906.623	18079
906.74	18110
906.857	17980
906.974	17965
907.091	18190
907.208	18281
907.324	17984
907.441	17973
907.557	17805
907.674	17866
907.79	17805
907.907	17615
908.023	17798
908.139	17817
908.256	17817
908.372	17665
908.488	17566
908.604	17512
908.72	17463
908.836	17452
908.952	17482
909.068	17577
909.184	17703
909.3	17509
909.415	17535
909.531	17368
909.647	17235
909.762	17345
909.878	17193
909.993	17212
910.108	17079
910.224	17204
910.339	17181
910.454	17018
910.57	16987
910.685	16934
910.8	17261
910.915	17083
911.03	17075
911.145	16835
911.259	16683
911.374	16759
911.489	16729
911.604	16725
911.718	16550
911.833	16573
911.947	16474
912.062	16432
912.176	16535
912.291	16474
912.405	16588
912.519	16729
912.633	16687
912.748	16542
912.862	16546
912.976	16318
913.09	16204
913.204	16284
913.318	16318
913.431	16360
913.545	16443
913.659	16424
913.772	16322
913.886	16124
914	16211
914.113	16192
914.226	16253
914.34	16287
914.453	15991
914.566	16219
914.68	16025
914.793	15899
914.906	15812
915.019	15743
915.132	15644
915.245	15709
915.358	15720
915.47	15663
915.583	15720
915.696	15618
915.809	15800
915.921	15797
916.034	15618
916.146	15564
916.259	15496
916.371	15698
916.483	15564
916.595	15580
916.708	15591
916.82	15462
916.932	15397
917.044	15492
917.156	15428
917.268	15321
917.38	15412
917.491	15359
917.603	15344
917.715	15382
917.826	15386
917.938	15283
918.049	15131
918.161	15256
918.272	15500
918.384	15469
918.495	15237
918.606	15074
918.717	14921
918.828	15161
918.939	15100
919.05	14948
919.161	15085
919.272	14815
919.383	15009
919.494	15051
919.604	15275
919.715	15135
919.826	14925
919.936	14971
920.047	15180
920.157	15055
920.267	15135
920.378	14979
920.488	14902
920.598	15287
920.708	15401
920.818	15184
920.928	15116
921.038	15386
921.148	15192
921.258	14864
921.368	14880
921.477	14754
921.587	14792
921.697	14651
921.806	14746
921.916	14537
922.025	14461
922.134	14484
922.244	14377
922.353	14446
922.462	14244
922.571	14119
922.68	14149
922.789	14012
922.898	13989
923.007	14016
923.116	14126
923.224	13986
923.333	14058
923.442	13989
923.55	13947
923.659	13761
923.767	13909
923.876	13830
923.984	13826
924.092	13807
924.201	13849
924.309	13742
924.417	13734
924.525	13613
924.633	13704
924.741	14492
924.849	13529
924.956	13636
925.064	13559
925.172	13266
925.279	13384
925.387	13434
925.494	13362
925.602	13571
925.709	13495
925.816	13373
925.924	13301
926.031	13487
926.138	13343
926.245	13491
926.352	13320
926.459	13403
926.566	13373
926.673	13244
926.779	13255
926.886	13240
926.993	12970
927.099	12924
927.206	12985
927.312	12920
927.419	12973
927.525	12920
927.631	12977
927.737	12825
927.843	12783
927.95	12715
928.056	12776
928.162	12772
928.267	12791
928.373	13476
928.479	12802
928.585	12574
928.69	12753
928.796	12802
928.901	12673
929.007	12509
929.112	12631
929.218	12654
929.323	12490
929.428	12467
929.533	12612
929.638	12414
929.743	12509
929.848	12593
929.953	12376
930.058	12319
930.163	12152
930.267	12213
930.372	12296
930.477	12121
930.581	12285
930.685	12247
930.79	12034
930.894	12140
930.998	12022
931.103	12121
931.207	11775
931.311	11737
931.415	11646
931.519	11463
931.623	11406
