Data from test_V78500241_2299.txt Node
Date: Fri Mar 25 15:57:43 CST 2022
User: usil
Spectrometer: V785-0024
Trigger mode: 0
Integration Time (sec): 4.000000E-1
Scans to average: 1
Nonlinearity correction enabled: false
Boxcar width: 0
Storing dark spectrum: false
XAxis mode: Wavelengths
Number of Pixels in Spectrum: 1024
>>>>>Begin Spectral Data<<<<<
801.071	29117
801.214	29117
801.356	28866
801.499	28881
801.641	28607
801.783	28592
801.926	28702
802.068	28687
802.211	28596
802.353	28592
802.496	28443
802.638	28405
802.78	28398
802.923	28329
803.065	28295
803.208	28382
803.35	28249
803.492	28535
803.635	28630
803.777	28398
803.919	28596
804.061	28923
804.204	28577
804.346	28596
804.488	28717
804.63	28588
804.773	28618
804.915	28721
805.057	28831
805.199	28649
805.341	28733
805.483	28752
805.626	28888
805.768	28717
805.91	28843
806.052	28843
806.194	28915
806.336	28968
806.478	28797
806.62	28904
806.762	28904
806.904	29124
807.046	29383
807.188	29231
807.33	29280
807.472	29398
807.614	29094
807.756	29311
807.898	29273
808.04	29105
808.182	29212
808.324	29178
808.465	29200
808.607	29406
808.749	29524
808.891	29573
809.033	29672
809.174	29543
809.316	29474
809.458	29585
809.6	29547
809.741	29562
809.883	29649
810.025	29813
810.166	29786
810.308	29889
810.45	29878
810.591	29687
810.733	29615
810.875	29615
811.016	29334
811.158	29395
811.299	29661
811.441	29691
811.582	29752
811.724	29642
811.865	29668
812.007	29528
812.148	29554
812.29	29566
812.431	29741
812.573	29870
812.714	29935
812.855	30022
812.997	30129
813.138	30323
813.279	30228
813.421	30155
813.562	29946
813.703	29866
813.845	29657
813.986	29516
814.127	29429
814.268	29193
814.41	29174
814.551	29204
814.692	29360
814.833	29231
814.974	29341
815.115	29315
815.256	29105
815.397	29235
815.539	29067
815.68	29113
815.821	29064
815.962	29048
816.103	29140
816.244	28976
816.385	28987
816.526	28782
816.666	28759
816.807	28535
816.948	28725
817.089	28592
817.23	28592
817.371	28615
817.512	28565
817.653	28538
817.793	28668
817.934	28691
818.075	28489
818.216	28508
818.356	28569
818.497	28417
818.638	28337
818.778	28436
818.919	28428
819.06	28462
819.2	28424
819.341	28538
819.481	28588
819.622	28862
819.762	28980
819.903	28904
820.043	28923
820.184	28710
820.324	28584
820.465	28862
820.605	28759
820.746	28820
820.886	28523
821.026	28580
821.167	28656
821.307	28786
821.447	28470
821.588	28508
821.728	28432
821.868	28226
822.008	28226
822.149	28078
822.289	28025
822.429	27884
822.569	27937
822.709	27804
822.849	27530
822.99	27564
823.13	27705
823.27	27526
823.41	27466
823.55	27355
823.69	27294
823.83	27523
823.97	27325
824.11	27264
824.25	27230
824.389	27154
824.529	27317
824.669	27340
824.809	27439
824.949	27329
825.089	27313
825.228	27249
825.368	27089
825.508	27169
825.648	27093
825.787	27146
825.927	27131
826.067	27039
826.206	27108
826.346	27260
826.485	27154
826.625	27188
826.765	27302
826.904	27169
827.044	26944
827.183	26902
827.323	26887
827.462	26967
827.601	26857
827.741	26682
827.88	26861
828.02	26663
828.159	26823
828.298	26788
828.437	26815
828.577	26845
828.716	26994
828.855	26731
828.994	26644
829.134	26560
829.273	26526
829.412	26667
829.551	26545
829.69	26545
829.829	26545
829.968	26522
830.107	26499
830.246	26511
830.385	26453
830.524	26404
830.663	26355
830.802	26237
830.941	26142
831.08	26035
831.219	26153
831.357	26282
831.496	26400
831.635	26122
831.774	25982
831.913	25883
832.051	25928
832.19	25894
832.329	25986
832.467	25822
832.606	25795
832.744	25753
832.883	25765
833.022	25738
833.16	25871
833.299	25704
833.437	25693
833.576	25928
833.714	25833
833.852	25974
833.991	26005
834.129	25966
834.267	25955
834.406	25837
834.544	25909
834.682	25772
834.821	25913
834.959	25944
835.097	25864
835.235	25955
835.373	25776
835.511	25803
835.65	25795
835.788	25788
835.926	25544
836.064	25533
836.202	25434
836.34	25594
836.478	25723
836.615	25575
836.753	25753
836.891	25807
837.029	25753
837.167	25708
837.305	25624
837.443	25575
837.58	25533
837.718	25578
837.856	25552
837.993	25441
838.131	25529
838.269	25499
838.406	25369
838.544	25434
838.681	25175
838.819	25061
838.956	24992
839.094	25019
839.231	25000
839.369	25194
839.506	25384
839.643	25175
839.781	25012
839.918	24916
840.055	24897
840.193	25004
840.33	24897
840.467	24829
840.604	24913
840.742	25099
840.879	24707
841.016	24817
841.153	24783
841.29	24924
841.427	24806
841.564	24817
841.701	24833
841.838	24722
841.975	24684
842.112	24829
842.249	24673
842.385	24570
842.522	24875
842.659	24608
842.796	24593
842.933	24738
843.069	24612
843.206	24551
843.343	24627
843.479	24570
843.616	24642
843.752	24372
843.889	24509
844.025	24494
844.162	24262
844.298	24650
844.435	24502
844.571	24327
844.708	24467
844.844	24559
844.98	24517
845.117	24494
845.253	24148
845.389	24194
845.525	24300
845.661	24232
845.798	24030
845.934	24140
846.07	24038
846.206	24125
846.342	24167
846.478	24022
846.614	23855
846.75	23836
846.886	23961
847.022	23863
847.158	23855
847.294	23775
847.429	23889
847.565	23824
847.701	24026
847.837	23490
847.972	23493
848.108	23714
848.244	23551
848.379	23505
848.515	23455
848.65	23501
848.786	23459
848.921	23391
849.057	23668
849.192	23433
849.328	23436
849.463	23360
849.598	23288
849.734	23296
849.869	23147
850.004	23159
850.14	23189
850.275	23204
850.41	23151
850.545	23094
850.68	23079
850.815	23334
850.95	23170
851.085	23341
851.22	23345
851.355	23277
851.49	23261
851.625	23151
851.76	23166
851.895	23041
852.03	23060
852.165	23204
852.299	23239
852.434	23318
852.569	23102
852.703	23273
852.838	23200
852.973	23315
853.107	23341
853.242	23151
853.376	22999
853.511	22850
853.645	22980
853.78	23109
853.914	23022
854.048	22957
854.183	22896
854.317	23022
854.451	23174
854.585	22927
854.72	23014
854.854	23200
854.988	22980
855.122	23041
855.256	22850
855.39	22972
855.524	23147
855.658	23060
855.792	22991
855.926	23025
856.06	23128
856.194	23079
856.327	22987
856.461	22995
856.595	23006
856.729	22949
856.862	23086
856.996	23033
857.13	23151
857.263	23083
857.397	23098
857.53	23044
857.664	22919
857.797	23044
857.931	23143
858.064	23014
858.197	22980
858.331	23010
858.464	23010
858.597	22866
858.731	23010
858.864	22889
858.997	22904
859.13	22999
859.263	23147
859.396	23071
859.529	22999
859.662	22999
859.795	22968
859.928	22927
860.061	23220
860.194	23212
860.327	23010
860.46	23010
860.592	23174
860.725	23216
860.858	23018
860.99	23071
861.123	22957
861.256	22965
861.388	23006
861.521	23726
861.653	22824
861.786	22812
861.918	22790
862.05	22919
862.183	22915
862.315	23041
862.447	23090
862.58	22866
862.712	22702
862.844	22744
862.976	22740
863.108	22672
863.24	23079
863.372	22615
863.504	22744
863.636	22698
863.768	22672
863.9	22755
864.032	22683
864.164	22645
864.296	22645
864.428	22744
864.559	22729
864.691	22771
864.823	22637
864.954	22675
865.086	22710
865.217	22489
865.349	22478
865.48	22717
865.612	22535
865.743	22615
865.875	22538
866.006	22478
866.137	22485
866.269	22557
866.4	22618
866.531	22519
866.662	22409
866.793	22462
866.924	22424
867.055	22599
867.186	22497
867.317	22512
867.448	22402
867.579	22516
867.71	22402
867.841	22322
867.972	22478
868.103	22440
868.233	22497
868.364	22436
868.495	22573
868.625	22771
868.756	22801
868.886	22710
869.017	22733
869.147	22934
869.278	22816
869.408	22839
869.539	22588
869.669	22725
869.799	22668
869.929	22850
870.06	22725
870.19	23071
870.32	23064
870.45	23136
870.58	23098
870.71	23227
870.84	23220
870.97	23181
871.1	23006
871.23	23398
871.36	23334
871.489	23242
871.619	23326
871.749	23337
871.879	23406
872.008	23387
872.138	23250
872.267	23280
872.397	23208
872.526	23064
872.656	23170
872.785	23227
872.915	23326
873.044	23402
873.173	23376
873.303	23345
873.432	23360
873.561	23467
873.69	23345
873.819	23417
873.948	23387
874.077	23341
874.206	23258
874.335	23337
874.464	23520
874.593	23505
874.722	23554
874.851	23657
874.979	23516
875.108	23604
875.237	23425
875.365	23448
875.494	23520
875.623	23630
875.751	23497
875.88	23604
876.008	23695
876.136	23668
876.265	23996
876.393	23988
876.521	23920
876.65	24038
876.778	23996
876.906	23897
877.034	23832
877.162	23840
877.29	23878
877.418	23870
877.546	23973
877.674	23843
877.802	23866
877.93	23855
878.058	23722
878.185	23775
878.313	23859
878.441	23912
878.568	23733
878.696	23748
878.824	23840
878.951	24041
879.079	24076
879.206	24251
879.333	24125
879.461	23927
879.588	23958
879.715	24049
879.842	24144
879.97	23927
880.097	23577
880.224	23737
880.351	23821
880.478	23699
880.605	23665
880.732	23672
880.859	23817
880.986	23733
881.112	23756
881.239	23611
881.366	23471
881.493	23136
881.619	23398
881.746	23246
881.872	23246
881.999	23204
882.125	23090
882.252	23239
882.378	23216
882.505	23330
882.631	23212
882.757	23014
882.883	22949
883.01	22949
883.136	22968
883.262	22953
883.388	22752
883.514	22911
883.64	22923
883.766	22736
883.892	22630
884.018	22645
884.143	22858
884.269	22938
884.395	22542
884.52	22523
884.646	22580
884.772	22504
884.897	22504
885.023	22584
885.148	22618
885.274	22702
885.399	22508
885.524	22683
885.65	22512
885.775	22588
885.9	22478
886.025	22660
886.15	22550
886.275	22512
886.4	22584
886.525	22573
886.65	22402
886.775	22493
886.9	22622
887.025	22774
887.149	22531
887.274	22367
887.399	22223
887.523	22363
887.648	22284
887.773	22242
887.897	22386
888.021	22303
888.146	22226
888.27	22462
888.395	22303
888.519	22303
888.643	22329
888.767	22341
888.891	22055
889.015	22139
889.139	22055
889.263	22109
889.387	22181
889.511	22268
889.635	22192
889.759	21941
889.883	22143
890.006	22143
890.13	22291
890.254	22101
890.377	21964
890.501	21865
890.624	21759
890.748	21888
890.871	21610
890.995	21591
891.118	21606
891.241	21717
891.364	21622
891.488	21804
891.611	21717
891.734	21644
891.857	21778
891.98	21530
892.103	21778
892.226	21637
892.349	21568
892.471	21477
892.594	21667
892.717	21561
892.839	21454
892.962	21458
893.085	21583
893.207	21530
893.33	21382
893.452	21424
893.575	21545
893.697	21545
893.819	21625
893.941	21667
894.064	21568
894.186	21477
894.308	21424
894.43	21717
894.552	21622
894.674	21595
894.796	21530
894.918	21393
895.04	21477
895.161	21545
895.283	21496
895.405	21466
895.526	21606
895.648	21530
895.769	21500
895.891	21515
896.012	21462
896.134	21454
896.255	21462
896.376	21439
896.498	21488
896.619	21526
896.74	21572
896.861	21545
896.982	21865
897.103	21991
897.224	21701
897.345	21671
897.466	21686
897.587	21797
897.708	21816
897.828	21694
897.949	21732
898.07	21557
898.19	21595
898.311	21660
898.431	21488
898.552	21736
898.672	21675
898.792	21709
898.913	21656
899.033	21545
899.153	21462
899.273	21469
899.393	21401
899.513	21408
899.633	21564
899.753	21397
899.873	21332
899.993	21378
900.113	21412
900.232	21389
900.352	21329
900.472	21165
900.591	21066
900.711	21173
900.83	21036
900.95	21233
901.069	21222
901.189	20941
901.308	20762
901.427	20731
901.546	20823
901.665	20861
901.784	20735
901.904	20609
902.023	20537
902.141	20343
902.26	20161
902.379	20343
902.498	20244
902.617	20153
902.735	20339
902.854	20164
902.973	20259
903.091	19989
903.21	19864
903.328	19894
903.446	19746
903.565	19875
903.683	19677
903.801	19537
903.919	19685
904.038	19647
904.156	19411
904.274	19453
904.392	19502
904.51	19365
904.627	19392
904.745	19518
904.863	19464
904.981	19274
905.098	19156
905.216	19084
905.334	19076
905.451	19084
905.569	19031
905.686	19072
905.803	19156
905.921	18806
906.038	19088
906.155	18962
906.272	18757
906.389	18859
906.506	18707
906.623	18650
906.74	18738
906.857	18570
906.974	18479
907.091	18741
907.208	18703
907.324	18582
907.441	18464
907.557	18433
907.674	18258
907.79	18380
907.907	18296
908.023	18270
908.139	18407
908.256	18155
908.372	18277
908.488	18186
908.604	18072
908.72	17942
908.836	18114
908.952	17992
909.068	18022
909.184	18121
909.3	17984
909.415	18076
909.531	17980
909.647	17756
909.762	17809
909.878	17729
909.993	17684
910.108	17729
910.224	17726
910.339	17528
910.454	17558
910.57	17543
910.685	17372
910.8	17790
910.915	17649
911.03	17493
911.145	17364
911.259	17326
911.374	17372
911.489	17242
911.604	17235
911.718	17121
911.833	17102
911.947	16968
912.062	16877
912.176	17060
912.291	17056
912.405	16946
912.519	17155
912.633	17204
912.748	17105
912.862	17056
912.976	16953
913.09	16748
913.204	16767
913.318	16782
913.431	16854
913.545	16942
913.659	16866
913.772	16763
913.886	16675
914	16675
914.113	16694
914.226	16801
914.34	16759
914.453	16485
914.566	16664
914.68	16611
914.793	16470
914.906	16287
915.019	16207
915.132	16090
915.245	16238
915.358	16249
915.47	16185
915.583	16257
915.696	16246
915.809	16284
915.921	16337
916.034	16063
916.146	16112
916.259	16029
916.371	16139
916.483	16124
916.595	16086
916.708	16013
916.82	15983
916.932	15926
917.044	15937
917.156	15884
917.268	15861
917.38	15759
917.491	15781
917.603	15797
917.715	15774
917.826	15747
917.938	15686
918.049	15614
918.161	15671
918.272	15857
918.384	15854
918.495	15724
918.606	15576
918.717	15477
918.828	15511
918.939	15553
919.05	15374
919.161	15488
919.272	15317
919.383	15351
919.494	15603
919.604	15690
919.715	15511
919.826	15355
919.936	15439
920.047	15492
920.157	15504
920.267	15530
920.378	15458
920.488	15435
920.598	15618
920.708	15808
920.818	15580
920.928	15663
921.038	15724
921.148	15694
921.258	15389
921.368	15302
921.477	15260
921.587	15203
921.697	15020
921.806	15161
921.916	15024
922.025	14864
922.134	14773
922.244	14788
922.353	14861
922.462	14636
922.571	14678
922.68	14556
922.789	14450
922.898	14469
923.007	14419
923.116	14343
923.224	14454
923.333	14427
923.442	14355
923.55	14267
923.659	14267
923.767	14320
923.876	14221
923.984	14320
924.092	14183
924.201	14301
924.309	14180
924.417	14199
924.525	14088
924.633	14001
924.741	15001
924.849	13833
924.956	13970
925.064	13822
925.172	13795
925.279	13788
925.387	13890
925.494	13818
925.602	14035
925.709	13856
925.816	13666
925.924	13723
926.031	13795
926.138	13757
926.245	13822
926.352	13708
926.459	13849
926.566	13791
926.673	13693
926.779	13571
926.886	13616
926.993	13514
927.099	13354
927.206	13270
927.312	13358
927.419	13339
927.525	13354
927.631	13407
927.737	13236
927.843	13156
927.95	13012
928.056	13171
928.162	13110
928.267	13213
928.373	13811
928.479	13240
928.585	12954
928.69	12993
928.796	13145
928.901	12947
929.007	12837
929.112	12958
929.218	12958
929.323	12951
929.428	12905
929.533	12966
929.638	12776
929.743	12776
929.848	12852
929.953	12825
930.058	12684
930.163	12467
930.267	12623
930.372	12642
930.477	12513
930.581	12673
930.685	12483
930.79	12418
930.894	12414
930.998	12376
931.103	12513
931.207	12148
931.311	12007
931.415	12041
931.519	11828
931.623	11691
