Data from test_V78500241_1095.txt Node
Date: Fri Mar 25 15:49:23 CST 2022
User: usil
Spectrometer: V785-0024
Trigger mode: 0
Integration Time (sec): 4.000000E-1
Scans to average: 1
Nonlinearity correction enabled: false
Boxcar width: 0
Storing dark spectrum: false
XAxis mode: Wavelengths
Number of Pixels in Spectrum: 1024
>>>>>Begin Spectral Data<<<<<
801.071	28447
801.214	28455
801.356	28215
801.499	28070
801.641	27945
801.783	28090
801.926	28082
802.068	28074
802.211	27804
802.353	27850
802.496	27625
802.638	27736
802.78	27564
802.923	27717
803.065	27416
803.208	27648
803.35	27625
803.492	27724
803.635	27819
803.777	27842
803.919	28029
804.061	28238
804.204	27934
804.346	27884
804.488	27880
804.63	27991
804.773	27926
804.915	27987
805.057	28048
805.199	27880
805.341	28067
805.483	28051
805.626	28135
805.768	27949
805.91	28112
806.052	28097
806.194	27949
806.336	28287
806.478	28078
806.62	28082
806.762	28200
806.904	28238
807.046	28645
807.188	28489
807.33	28485
807.472	28508
807.614	28375
807.756	28527
807.898	28436
808.04	28333
808.182	28436
808.324	28394
808.465	28436
808.607	28691
808.749	28774
808.891	28607
809.033	28835
809.174	28782
809.316	28672
809.458	28721
809.6	28809
809.741	28736
809.883	28869
810.025	29128
810.166	29018
810.308	28965
810.45	29025
810.591	29079
810.733	28645
810.875	28713
811.016	28733
811.158	28626
811.299	28782
811.441	28961
811.582	29067
811.724	28774
811.865	28649
812.007	28755
812.148	28717
812.29	28622
812.431	28961
812.573	29105
812.714	29292
812.855	29326
812.997	29364
813.138	29414
813.279	29387
813.421	29269
813.562	29231
813.703	29064
813.845	29071
813.986	28816
814.127	28603
814.268	28523
814.41	28455
814.551	28440
814.692	28660
814.833	28622
814.974	28481
815.115	28409
815.256	28375
815.397	28371
815.539	28367
815.68	28204
815.821	28272
815.962	28356
816.103	28257
816.244	28166
816.385	28120
816.526	27907
816.666	27888
816.807	27770
816.948	27728
817.089	27831
817.23	27709
817.371	27728
817.512	27781
817.653	27739
817.793	27755
817.934	27785
818.075	27842
818.216	27911
818.356	27644
818.497	27622
818.638	27454
818.778	27359
818.919	27553
819.06	27553
819.2	27603
819.341	27907
819.481	27819
819.622	28010
819.762	28177
819.903	28048
820.043	27979
820.184	27869
820.324	27766
820.465	27934
820.605	28006
820.746	28013
820.886	27778
821.026	27895
821.167	27926
821.307	27972
821.447	27880
821.588	27671
821.728	27526
821.868	27523
822.008	27370
822.149	27294
822.289	27245
822.429	27077
822.569	26933
822.709	27032
822.849	26792
822.99	26804
823.13	26746
823.27	26720
823.41	26632
823.55	26507
823.69	26583
823.83	26663
823.97	26564
824.11	26473
824.25	26461
824.389	26453
824.529	26511
824.669	26396
824.809	26663
824.949	26469
825.089	26495
825.228	26560
825.368	26168
825.508	26301
825.648	26309
825.787	26290
825.927	26355
826.067	26259
826.206	26339
826.346	26305
826.485	26271
826.625	26282
826.765	26537
826.904	26404
827.044	26058
827.183	25944
827.323	25902
827.462	26149
827.601	25940
827.741	26020
827.88	26092
828.02	25894
828.159	25989
828.298	26020
828.437	26069
828.577	25986
828.716	26012
828.855	25932
828.994	25799
829.134	25753
829.273	25620
829.412	25791
829.551	25601
829.69	25761
829.829	25696
829.968	25879
830.107	25784
830.246	25750
830.385	25647
830.524	25655
830.663	25476
830.802	25270
830.941	25133
831.08	25304
831.219	25434
831.357	25419
831.496	25419
831.635	25339
831.774	25244
831.913	25228
832.051	25110
832.19	25232
832.329	25069
832.467	25000
832.606	24886
832.744	24951
832.883	24981
833.022	24920
833.16	25012
833.299	25046
833.437	25065
833.576	25019
833.714	25031
833.852	25046
833.991	25061
834.129	25141
834.267	25107
834.406	25061
834.544	25042
834.682	25065
834.821	25053
834.959	25171
835.097	24856
835.235	25053
835.373	24939
835.511	25027
835.65	24882
835.788	25080
835.926	24688
836.064	24620
836.202	24760
836.34	24985
836.478	24939
836.615	24833
836.753	24932
836.891	24909
837.029	25000
837.167	24753
837.305	24798
837.443	24589
837.58	24673
837.718	24661
837.856	24646
837.993	24646
838.131	24650
838.269	24597
838.406	24551
838.544	24540
838.681	24315
838.819	24342
838.956	24266
839.094	24270
839.231	24239
839.369	24376
839.506	24517
839.643	24350
839.781	24239
839.918	24026
840.055	24041
840.193	24125
840.33	24095
840.467	24110
840.604	24068
840.742	24296
840.879	23969
841.016	24102
841.153	24015
841.29	24228
841.427	24022
841.564	24159
841.701	24064
841.838	24053
841.975	23851
842.112	23916
842.249	23893
842.385	23817
842.522	23954
842.659	23935
842.796	23722
842.933	23885
843.069	23775
843.206	23798
843.343	23893
843.479	23805
843.616	23847
843.752	23531
843.889	23429
844.025	23729
844.162	23638
844.298	23699
844.435	23676
844.571	23467
844.708	23649
844.844	23687
844.98	23703
845.117	23718
845.253	23516
845.389	23406
845.525	23440
845.661	23395
845.798	23398
845.934	23337
846.07	23387
846.206	23417
846.342	23398
846.478	23322
846.614	23128
846.75	23064
846.886	23067
847.022	23147
847.158	23003
847.294	23029
847.429	23044
847.565	23048
847.701	23235
847.837	22736
847.972	22767
848.108	22949
848.244	22748
848.379	22748
848.515	22687
848.65	22694
848.786	22592
848.921	22645
849.057	22683
849.192	22801
849.328	22740
849.463	22687
849.598	22519
849.734	22428
849.869	22451
850.004	22443
850.14	22424
850.275	22470
850.41	22348
850.545	22386
850.68	22443
850.815	22455
850.95	22333
851.085	22497
851.22	22535
851.355	22451
851.49	22470
851.625	22367
851.76	22341
851.895	22299
852.03	22276
852.165	22356
852.299	22394
852.434	22455
852.569	22424
852.703	22402
852.838	22516
852.973	22531
853.107	22577
853.242	22310
853.376	22272
853.511	22090
853.645	22226
853.78	22291
853.914	22211
854.048	22093
854.183	22105
854.317	22219
854.451	22421
854.585	22169
854.72	22253
854.854	22356
854.988	22166
855.122	22249
855.256	22051
855.39	22257
855.524	22272
855.658	22303
855.792	22204
855.926	22188
856.06	22188
856.194	22367
856.327	22211
856.461	22196
856.595	22226
856.729	22188
856.862	22246
856.996	22230
857.13	22356
857.263	22249
857.397	22246
857.53	22253
857.664	22204
857.797	22196
857.931	22268
858.064	22223
858.197	22360
858.331	22257
858.464	22185
858.597	22093
858.731	22207
858.864	22093
858.997	22360
859.13	22196
859.263	22272
859.396	22268
859.529	22150
859.662	22128
859.795	22192
859.928	22086
860.061	22394
860.194	22375
860.327	22200
860.46	22135
860.592	22280
860.725	22474
860.858	22325
860.99	22173
861.123	22082
861.256	22131
861.388	22344
861.521	23064
861.653	22154
861.786	21953
861.918	22105
862.05	22166
862.183	22158
862.315	22188
862.447	22207
862.58	22025
862.712	21918
862.844	21869
862.976	21949
863.108	21861
863.24	22390
863.372	21861
863.504	21964
863.636	21808
863.768	21930
863.9	21873
864.032	21846
864.164	21854
864.296	21907
864.428	22074
864.559	21934
864.691	21941
864.823	21930
864.954	21934
865.086	21869
865.217	21842
865.349	21816
865.48	21793
865.612	21838
865.743	21934
865.875	21850
866.006	21724
866.137	21861
866.269	21926
866.4	21888
866.531	21732
866.662	21724
866.793	21660
866.924	21698
867.055	21686
867.186	21667
867.317	21656
867.448	21755
867.579	21656
867.71	21538
867.841	21610
867.972	21793
868.103	21663
868.233	21698
868.364	21724
868.495	21656
868.625	21953
868.756	21960
868.886	21941
869.017	21941
869.147	22128
869.278	22021
869.408	21956
869.539	21926
869.669	21983
869.799	21975
869.929	22002
870.06	22097
870.19	22322
870.32	22276
870.45	22367
870.58	22390
870.71	22417
870.84	22447
870.97	22386
871.1	22466
871.23	22405
871.36	22497
871.489	22402
871.619	22485
871.749	22615
871.879	22535
872.008	22786
872.138	22546
872.267	22500
872.397	22417
872.526	22561
872.656	22417
872.785	22318
872.915	22622
873.044	22683
873.173	22565
873.303	22706
873.432	22500
873.561	22584
873.69	22622
873.819	22580
873.948	22660
874.077	22611
874.206	22626
874.335	22497
874.464	22538
874.593	22835
874.722	22736
874.851	23006
874.979	22873
875.108	22889
875.237	22717
875.365	22736
875.494	22713
875.623	22839
875.751	22809
875.88	22752
876.008	22980
876.136	23033
876.265	23102
876.393	23372
876.521	23414
876.65	23189
876.778	23239
876.906	23140
877.034	23102
877.162	23121
877.29	23083
877.418	23189
877.546	23140
877.674	23200
877.802	23086
877.93	23155
878.058	23162
878.185	23029
878.313	23155
878.441	23064
878.568	22869
878.696	22949
878.824	23044
878.951	23140
879.079	23467
879.206	23353
879.333	23349
879.461	23170
879.588	23246
879.715	23284
879.842	23417
879.97	23105
880.097	23003
880.224	22965
880.351	23022
880.478	23025
880.605	22885
880.732	22972
880.859	23227
880.986	22915
881.112	22866
881.239	22816
881.366	22702
881.493	22698
881.619	22436
881.746	22535
881.872	22535
881.999	22436
882.125	22436
882.252	22573
882.378	22459
882.505	22656
882.631	22440
882.757	22242
882.883	22230
883.01	22204
883.136	22139
883.262	21987
883.388	22078
883.514	22162
883.64	22139
883.766	22120
883.892	21953
884.018	22010
884.143	22169
884.269	22169
884.395	21838
884.52	21865
884.646	21785
884.772	21728
884.897	21682
885.023	21854
885.148	22032
885.274	21850
885.399	22013
885.524	21895
885.65	21854
885.775	21842
885.9	21812
886.025	21880
886.15	21903
886.275	21747
886.4	21701
886.525	21682
886.65	21766
886.775	21717
886.9	22025
887.025	21945
887.149	21850
887.274	21705
887.399	21561
887.523	21656
887.648	21618
887.773	21591
887.897	21648
888.021	21713
888.146	21542
888.27	21743
888.395	21759
888.519	21625
888.643	21557
888.767	21660
888.891	21507
889.015	21389
889.139	21492
889.263	21447
889.387	21515
889.511	21580
889.635	21553
889.759	21370
889.883	21340
890.006	21458
890.13	21469
890.254	21329
890.377	21336
890.501	21161
890.624	20963
890.748	21211
890.871	20948
890.995	20979
891.118	20864
891.241	20941
891.364	20921
891.488	21032
891.611	20906
891.734	21017
891.857	20918
891.98	21009
892.103	20998
892.226	21066
892.349	20925
892.471	20568
892.594	20800
892.717	20868
892.839	20853
892.962	20880
893.085	20902
893.207	20788
893.33	20804
893.452	20785
893.575	20838
893.697	20739
893.819	20937
893.941	20990
894.064	21085
894.186	20758
894.308	20746
894.43	21013
894.552	21093
894.674	20929
894.796	20575
894.918	20705
895.04	20952
895.161	20849
895.283	20773
895.405	20792
895.526	20762
895.648	20670
895.769	20872
895.891	20826
896.012	20933
896.134	20758
896.255	20785
896.376	20705
896.498	20861
896.619	20815
896.74	20785
896.861	20883
896.982	20998
897.103	21275
897.224	20990
897.345	21081
897.466	20956
897.587	21096
897.708	21359
897.828	21070
897.949	20937
898.07	20864
898.19	20971
898.311	20906
898.431	20925
898.552	20979
898.672	21154
898.792	21096
898.913	21024
899.033	20929
899.153	20815
899.273	20769
899.393	20826
899.513	20743
899.633	20838
899.753	20746
899.873	20686
899.993	20701
900.113	20629
900.232	20849
900.352	20678
900.472	20590
900.591	20473
900.711	20526
900.83	20499
900.95	20625
901.069	20655
901.189	20556
901.308	20267
901.427	20126
901.546	20035
901.665	20206
901.784	20111
901.904	20001
902.023	19807
902.141	19620
902.26	19681
902.379	19696
902.498	19537
902.617	19655
902.735	19658
902.854	19597
902.973	19525
903.091	19255
903.21	19259
903.328	19411
903.446	19183
903.565	19065
903.683	18996
903.801	18928
903.919	18962
904.038	18924
904.156	18852
904.274	18958
904.392	18760
904.51	18814
904.627	18707
904.745	18932
904.863	18924
904.981	18555
905.098	18483
905.216	18544
905.334	18536
905.451	18479
905.569	18445
905.686	18513
905.803	18429
905.921	18182
906.038	18399
906.155	18361
906.272	18197
906.389	18186
906.506	18087
906.623	18064
906.74	18053
906.857	17939
906.974	17999
907.091	18015
907.208	18053
907.324	18030
907.441	17988
907.557	17783
907.674	17729
907.79	17802
907.907	17733
908.023	17767
908.139	17710
908.256	17665
908.372	17703
908.488	17623
908.604	17463
908.72	17429
908.836	17478
908.952	17402
909.068	17436
909.184	17581
909.3	17436
909.415	17471
909.531	17436
909.647	17181
909.762	17242
909.878	17155
909.993	17155
910.108	17113
910.224	17143
910.339	17170
910.454	16968
910.57	16965
910.685	16820
910.8	17193
910.915	17010
911.03	16885
911.145	16793
911.259	16744
911.374	16706
911.489	16710
911.604	16603
911.718	16478
911.833	16489
911.947	16314
912.062	16466
912.176	16500
912.291	16413
912.405	16523
912.519	16736
912.633	16691
912.748	16550
912.862	16455
912.976	16276
913.09	16181
913.204	16299
913.318	16173
913.431	16382
913.545	16246
913.659	16390
913.772	16207
913.886	16078
914	16055
914.113	16169
914.226	16131
914.34	16112
914.453	15892
914.566	16090
914.68	15987
914.793	15968
914.906	15701
915.019	15732
915.132	15690
915.245	15618
915.358	15701
915.47	15591
915.583	15759
915.696	15625
915.809	15751
915.921	15747
916.034	15618
916.146	15587
916.259	15572
916.371	15675
916.483	15667
916.595	15507
916.708	15477
916.82	15519
916.932	15485
917.044	15351
917.156	15393
917.268	15302
917.38	15294
917.491	15279
917.603	15302
917.715	15287
917.826	15420
917.938	15157
918.049	15154
918.161	15306
918.272	15329
918.384	15393
918.495	15214
918.606	15142
918.717	14906
918.828	15173
918.939	15081
919.05	14956
919.161	14975
919.272	14796
919.383	14906
919.494	15165
919.604	15176
919.715	14941
919.826	14864
919.936	14986
920.047	15036
920.157	15009
920.267	15192
920.378	15058
920.488	14921
920.598	15165
920.708	15283
920.818	15123
920.928	15199
921.038	15291
921.148	15127
921.258	14921
921.368	14823
921.477	14746
921.587	14727
921.697	14552
921.806	14663
921.916	14629
922.025	14442
922.134	14343
922.244	14309
922.353	14324
922.462	14263
922.571	14176
922.68	14107
922.789	13955
922.898	14035
923.007	13963
923.116	13997
923.224	13898
923.333	13868
923.442	13868
923.55	13883
923.659	13909
923.767	13864
923.876	13700
923.984	13814
924.092	13761
924.201	13772
924.309	13731
924.417	13715
924.525	13670
924.633	13681
924.741	14389
924.849	13495
924.956	13643
925.064	13441
925.172	13388
925.279	13388
925.387	13415
925.494	13392
925.602	13514
925.709	13415
925.816	13312
925.924	13362
926.031	13392
926.138	13331
926.245	13316
926.352	13209
926.459	13377
926.566	13415
926.673	13228
926.779	13027
926.886	13034
926.993	12993
927.099	12932
927.206	12875
927.312	12829
927.419	12954
927.525	12935
927.631	12932
927.737	12753
927.843	12768
927.95	12688
928.056	12764
928.162	12772
928.267	12844
928.373	13312
928.479	12798
928.585	12593
928.69	12738
928.796	12779
928.901	12570
929.007	12475
929.112	12635
929.218	12601
929.323	12509
929.428	12483
929.533	12555
929.638	12429
929.743	12376
929.848	12410
929.953	12395
930.058	12266
930.163	12220
930.267	12175
930.372	12254
930.477	12068
930.581	12251
930.685	12171
930.79	12019
930.894	12091
930.998	12019
931.103	12079
931.207	11866
931.311	11665
931.415	11691
931.519	11425
931.623	11402
