Data from test_V78500241_1596.txt Node
Date: Fri Mar 25 15:52:51 CST 2022
User: usil
Spectrometer: V785-0024
Trigger mode: 0
Integration Time (sec): 4.000000E-1
Scans to average: 1
Nonlinearity correction enabled: false
Boxcar width: 0
Storing dark spectrum: false
XAxis mode: Wavelengths
Number of Pixels in Spectrum: 1024
>>>>>Begin Spectral Data<<<<<
801.071	28185
801.214	28196
801.356	27838
801.499	27838
801.641	27679
801.783	27751
801.926	27804
802.068	27819
802.211	27747
802.353	27701
802.496	27542
802.638	27500
802.78	27458
802.923	27351
803.065	27245
803.208	27325
803.35	27576
803.492	27488
803.635	27648
803.777	27534
803.919	27827
804.061	28002
804.204	27835
804.346	27557
804.488	27625
804.63	27736
804.773	27671
804.915	27819
805.057	27831
805.199	27633
805.341	27755
805.483	27793
805.626	27861
805.768	27800
805.91	27857
806.052	27835
806.194	27892
806.336	28101
806.478	27842
806.62	27770
806.762	28112
806.904	28120
807.046	28459
807.188	28181
807.33	28284
807.472	28432
807.614	28249
807.756	28215
807.898	28188
808.04	28120
808.182	28040
808.324	28158
808.465	28173
808.607	28428
808.749	28379
808.891	28634
809.033	28710
809.174	28615
809.316	28512
809.458	28535
809.6	28443
809.741	28679
809.883	28740
810.025	28812
810.166	28710
810.308	28820
810.45	28717
810.591	28683
810.733	28535
810.875	28462
811.016	28470
811.158	28223
811.299	28679
811.441	28653
811.582	28694
811.724	28500
811.865	28527
812.007	28504
812.148	28535
812.29	28546
812.431	28744
812.573	28771
812.714	28752
812.855	29056
812.997	29052
813.138	29227
813.279	29010
813.421	29006
813.562	28934
813.703	28706
813.845	28694
813.986	28474
814.127	28333
814.268	28223
814.41	28322
814.551	28040
814.692	28234
814.833	28105
814.974	28207
815.115	28310
815.256	28112
815.397	28086
815.539	28143
815.68	28021
815.821	27922
815.962	28025
816.103	27979
816.244	27804
816.385	27739
816.526	27667
816.666	27633
816.807	27572
816.948	27667
817.089	27587
817.23	27549
817.371	27447
817.512	27580
817.653	27496
817.793	27431
817.934	27488
818.075	27496
818.216	27477
818.356	27424
818.497	27351
818.638	27233
818.778	27344
818.919	27188
819.06	27454
819.2	27306
819.341	27568
819.481	27477
819.622	27485
819.762	27743
819.903	27819
820.043	27751
820.184	27595
820.324	27656
820.465	27667
820.605	27701
820.746	27576
820.886	27454
821.026	27519
821.167	27564
821.307	27599
821.447	27534
821.588	27458
821.728	27279
821.868	27051
822.008	26990
822.149	27005
822.289	26963
822.429	26659
822.569	26686
822.709	26712
822.849	26461
822.99	26583
823.13	26423
823.27	26457
823.41	26393
823.55	26229
823.69	26282
823.83	26336
823.97	26298
824.11	26153
824.25	26195
824.389	26024
824.529	26240
824.669	26122
824.809	26271
824.949	26145
825.089	26259
825.228	26168
825.368	25936
825.508	25993
825.648	25944
825.787	26077
825.927	26130
826.067	26058
826.206	25928
826.346	26054
826.485	26100
826.625	26031
826.765	26088
826.904	26016
827.044	25845
827.183	25753
827.323	25780
827.462	25696
827.601	25586
827.741	25708
827.88	25723
828.02	25723
828.159	25685
828.298	25811
828.437	25780
828.577	25594
828.716	25902
828.855	25578
828.994	25548
829.134	25430
829.273	25263
829.412	25350
829.551	25324
829.69	25403
829.829	25434
829.968	25407
830.107	25381
830.246	25358
830.385	25350
830.524	25438
830.663	25164
830.802	25118
830.941	24992
831.08	25015
831.219	25046
831.357	25076
831.496	25240
831.635	25031
831.774	24989
831.913	24977
832.051	24795
832.19	24890
832.329	24916
832.467	24711
832.606	24696
832.744	24608
832.883	24665
833.022	24639
833.16	24582
833.299	24715
833.437	24692
833.576	24734
833.714	24837
833.852	24760
833.991	24840
834.129	24772
834.267	24753
834.406	24715
834.544	24776
834.682	24802
834.821	24715
834.959	24817
835.097	24726
835.235	24745
835.373	24856
835.511	24764
835.65	24703
835.788	24578
835.926	24570
836.064	24384
836.202	24407
836.34	24544
836.478	24642
836.615	24456
836.753	24452
836.891	24677
837.029	24437
837.167	24460
837.305	24532
837.443	24247
837.58	24308
837.718	24532
837.856	24532
837.993	24353
838.131	24399
838.269	24171
838.406	24330
838.544	24228
838.681	24140
838.819	24079
838.956	23817
839.094	23821
839.231	24018
839.369	24144
839.506	24133
839.643	24026
839.781	23901
839.918	23798
840.055	23889
840.193	23836
840.33	23859
840.467	23859
840.604	23855
840.742	24064
840.879	23638
841.016	23904
841.153	23783
841.29	23813
841.427	23790
841.564	23794
841.701	23741
841.838	23714
841.975	23627
842.112	23699
842.249	23707
842.385	23512
842.522	23775
842.659	23627
842.796	23661
842.933	23649
843.069	23478
843.206	23524
843.343	23619
843.479	23630
843.616	23520
843.752	23372
843.889	23368
844.025	23562
844.162	23330
844.298	23452
844.435	23299
844.571	23303
844.708	23330
844.844	23356
844.98	23512
845.117	23433
845.253	23250
845.389	23086
845.525	23452
845.661	23140
845.798	23067
845.934	23086
846.07	22957
846.206	23094
846.342	23067
846.478	22972
846.614	22889
846.75	22596
846.886	22744
847.022	22801
847.158	22725
847.294	22691
847.429	22721
847.565	22797
847.701	23044
847.837	22451
847.972	22394
848.108	22622
848.244	22588
848.379	22344
848.515	22421
848.65	22363
848.786	22360
848.921	22394
849.057	22371
849.192	22341
849.328	22459
849.463	22348
849.598	22371
849.734	22306
849.869	22246
850.004	22147
850.14	22204
850.275	22158
850.41	22059
850.545	22044
850.68	22120
850.815	22150
850.95	22017
851.085	22234
851.22	22253
851.355	22070
851.49	22093
851.625	22044
851.76	22044
851.895	22093
852.03	22029
852.165	22120
852.299	22196
852.434	22207
852.569	22055
852.703	22204
852.838	22185
852.973	22329
853.107	22181
853.242	22078
853.376	22135
853.511	21789
853.645	21892
853.78	22036
853.914	22063
854.048	21846
854.183	21937
854.317	21960
854.451	22150
854.585	21968
854.72	21846
854.854	22078
854.988	21953
855.122	21953
855.256	21747
855.39	21941
855.524	22025
855.658	21934
855.792	21934
855.926	22074
856.06	22044
856.194	21964
856.327	22017
856.461	21922
856.595	21915
856.729	21850
856.862	22120
856.996	21930
857.13	22029
857.263	22074
857.397	22082
857.53	21941
857.664	22086
857.797	22044
857.931	22109
858.064	21987
858.197	22120
858.331	21972
858.464	21892
858.597	21873
858.731	21804
858.864	22013
858.997	21895
859.13	21964
859.263	21903
859.396	22048
859.529	21926
859.662	21918
859.795	21930
859.928	21949
860.061	22040
860.194	22025
860.327	21998
860.46	22112
860.592	22086
860.725	22097
860.858	22105
860.99	21915
861.123	22006
861.256	21930
861.388	21991
861.521	22615
861.653	21808
861.786	21717
861.918	21835
862.05	21850
862.183	21850
862.315	21888
862.447	21892
862.58	21797
862.712	21656
862.844	21656
862.976	21759
863.108	21857
863.24	22223
863.372	21572
863.504	21656
863.636	21622
863.768	21679
863.9	21755
864.032	21587
864.164	21622
864.296	21625
864.428	21762
864.559	21694
864.691	21690
864.823	21603
864.954	21625
865.086	21557
865.217	21606
865.349	21515
865.48	21530
865.612	21629
865.743	21705
865.875	21530
866.006	21526
866.137	21564
866.269	21595
866.4	21492
866.531	21454
866.662	21447
866.793	21462
866.924	21374
867.055	21580
867.186	21401
867.317	21564
867.448	21397
867.579	21408
867.71	21485
867.841	21462
867.972	21447
868.103	21428
868.233	21454
868.364	21564
868.495	21534
868.625	21717
868.756	21873
868.886	21717
869.017	21755
869.147	21816
869.278	21838
869.408	21778
869.539	21720
869.669	21800
869.799	21827
869.929	21869
870.06	21835
870.19	22059
870.32	22166
870.45	22051
870.58	22226
870.71	22322
870.84	22124
870.97	22101
871.1	22154
871.23	22390
871.36	22386
871.489	22154
871.619	22265
871.749	22390
871.879	22333
872.008	22504
872.138	22280
872.267	22284
872.397	22253
872.526	22177
872.656	22211
872.785	22150
872.915	22424
873.044	22432
873.173	22249
873.303	22287
873.432	22314
873.561	22519
873.69	22303
873.819	22295
873.948	22314
874.077	22310
874.206	22303
874.335	22310
874.464	22375
874.593	22645
874.722	22519
874.851	22596
874.979	22573
875.108	22584
875.237	22485
875.365	22440
875.494	22615
875.623	22542
875.751	22455
875.88	22618
876.008	22645
876.136	22725
876.265	23025
876.393	23105
876.521	23044
876.65	22923
876.778	22828
876.906	22972
877.034	22980
877.162	22790
877.29	22748
877.418	22949
877.546	22869
877.674	22953
877.802	22862
877.93	22824
878.058	22847
878.185	22774
878.313	22866
878.441	22763
878.568	22736
878.696	22820
878.824	22835
878.951	22991
879.079	23075
879.206	23079
879.333	23075
879.461	22915
879.588	22995
879.715	23037
879.842	23265
879.97	23052
880.097	22797
880.224	22710
880.351	22771
880.478	22744
880.605	22755
880.732	22740
880.859	22923
880.986	22660
881.112	22786
881.239	22592
881.366	22436
881.493	22440
881.619	22299
881.746	22318
881.872	22234
881.999	22280
882.125	22234
882.252	22402
882.378	22314
882.505	22291
882.631	22051
882.757	22029
882.883	22006
883.01	21915
883.136	21918
883.262	21709
883.388	21800
883.514	22059
883.64	22002
883.766	21785
883.892	21774
884.018	21747
884.143	21873
884.269	22131
884.395	21759
884.52	21545
884.646	21633
884.772	21519
884.897	21530
885.023	21682
885.148	21606
885.274	21785
885.399	21698
885.524	21576
885.65	21610
885.775	21568
885.9	21564
886.025	21739
886.15	21671
886.275	21641
886.4	21568
886.525	21587
886.65	21504
886.775	21568
886.9	21587
887.025	21690
887.149	21561
887.274	21389
887.399	21374
887.523	21416
887.648	21359
887.773	21310
887.897	21416
888.021	21466
888.146	21336
888.27	21469
888.395	21485
888.519	21313
888.643	21496
888.767	21515
888.891	21241
889.015	21123
889.139	21142
889.263	21112
889.387	21233
889.511	21329
889.635	21294
889.759	21249
889.883	21214
890.006	21108
890.13	21313
890.254	21108
890.377	21085
890.501	20899
890.624	20933
890.748	21013
890.871	20853
890.995	20781
891.118	20590
891.241	20727
891.364	20621
891.488	20785
891.611	20674
891.734	20678
891.857	20750
891.98	20800
892.103	20765
892.226	20705
892.349	20629
892.471	20568
892.594	20575
892.717	20693
892.839	20606
892.962	20564
893.085	20777
893.207	20549
893.33	20507
893.452	20678
893.575	20659
893.697	20670
893.819	20720
893.941	20868
894.064	20758
894.186	20617
894.308	20526
894.43	20663
894.552	20746
894.674	20689
894.796	20549
894.918	20575
895.04	20606
895.161	20644
895.283	20636
895.405	20556
895.526	20636
895.648	20590
895.769	20670
895.891	20754
896.012	20765
896.134	20579
896.255	20697
896.376	20549
896.498	20606
896.619	20606
896.74	20545
896.861	20678
896.982	20918
897.103	21062
897.224	20891
897.345	20796
897.466	20743
897.587	20834
897.708	20868
897.828	20857
897.949	20781
898.07	20564
898.19	20712
898.311	20845
898.431	20636
898.552	20815
898.672	20845
898.792	20925
898.913	20902
899.033	20762
899.153	20583
899.273	20454
899.393	20541
899.513	20663
899.633	20579
899.753	20571
899.873	20545
899.993	20617
900.113	20427
900.232	20587
900.352	20438
900.472	20381
900.591	20298
900.711	20377
900.83	20263
900.95	20415
901.069	20298
901.189	20244
901.308	19928
901.427	19963
901.546	19887
901.665	19883
901.784	19963
901.904	19780
902.023	19715
902.141	19491
902.26	19381
902.379	19548
902.498	19445
902.617	19365
902.735	19381
902.854	19396
902.973	19384
903.091	19110
903.21	19061
903.328	19118
903.446	18989
903.565	18928
903.683	18806
903.801	18859
903.919	18954
904.038	18890
904.156	18722
904.274	18844
904.392	18692
904.51	18623
904.627	18734
904.745	18707
904.863	18745
904.981	18467
905.098	18254
905.216	18330
905.334	18342
905.451	18281
905.569	18270
905.686	18330
905.803	18213
905.921	18091
906.038	18190
906.155	18098
906.272	17950
906.389	18079
906.506	17874
906.623	17836
906.74	17931
906.857	17718
906.974	17707
907.091	17958
907.208	17977
907.324	17984
907.441	17676
907.557	17547
907.674	17623
907.79	17551
907.907	17539
908.023	17589
908.139	17589
908.256	17497
908.372	17478
908.488	17478
908.604	17277
908.72	17273
908.836	17189
908.952	17242
909.068	17315
909.184	17345
909.3	17326
909.415	17258
909.531	17277
909.647	16972
909.762	16999
909.878	16915
909.993	17075
910.108	17010
910.224	16885
910.339	16911
910.454	16919
910.57	16881
910.685	16710
910.8	17003
910.915	16862
911.03	16885
911.145	16645
911.259	16493
911.374	16645
911.489	16531
911.604	16440
911.718	16421
911.833	16329
911.947	16265
912.062	16314
912.176	16344
912.291	16333
912.405	16356
912.519	16611
912.633	16542
912.748	16344
912.862	16363
912.976	16185
913.09	16051
913.204	16101
913.318	16173
913.431	16185
913.545	16150
913.659	16234
913.772	16192
913.886	15876
914	16059
914.113	16025
914.226	16036
914.34	15987
914.453	15816
914.566	16048
914.68	15781
914.793	15838
914.906	15561
915.019	15576
915.132	15450
915.245	15603
915.358	15492
915.47	15580
915.583	15515
915.696	15610
915.809	15644
915.921	15648
916.034	15420
916.146	15367
916.259	15473
916.371	15576
916.483	15462
916.595	15370
916.708	15351
916.82	15351
916.932	15306
917.044	15249
917.156	15245
917.268	15226
917.38	15176
917.491	15211
917.603	15157
917.715	15218
917.826	15298
917.938	15104
918.049	15104
918.161	15093
918.272	15230
918.384	15195
918.495	15043
918.606	14895
918.717	14857
918.828	15081
918.939	14986
919.05	14849
919.161	14929
919.272	14693
919.383	14800
919.494	15009
919.604	15123
919.715	14948
919.826	14750
919.936	14777
920.047	14918
920.157	14895
920.267	15066
920.378	14887
920.488	14838
920.598	15081
920.708	15173
920.818	15036
920.928	14979
921.038	15165
921.148	15112
921.258	14899
921.368	14693
921.477	14693
921.587	14644
921.697	14427
921.806	14522
921.916	14488
922.025	14374
922.134	14233
922.244	14149
922.353	14328
922.462	14035
922.571	14069
922.68	13963
922.789	13852
922.898	13944
923.007	13799
923.116	13967
923.224	13814
923.333	13830
923.442	13685
923.55	13696
923.659	13734
923.767	13761
923.876	13628
923.984	13670
924.092	13727
924.201	13563
924.309	13784
924.417	13590
924.525	13563
924.633	13487
924.741	14518
924.849	13335
924.956	13441
925.064	13377
925.172	13335
925.279	13179
925.387	13358
925.494	13320
925.602	13381
925.709	13285
925.816	13149
925.924	13183
926.031	13228
926.138	13145
926.245	13278
926.352	13065
926.459	13289
926.566	13346
926.673	13152
926.779	13076
926.886	13053
926.993	12916
927.099	12833
927.206	12821
927.312	12700
927.419	12875
927.525	12844
927.631	12810
927.737	12711
927.843	12703
927.95	12574
928.056	12681
928.162	12677
928.267	12730
928.373	13320
928.479	12692
928.585	12464
928.69	12623
928.796	12681
928.901	12547
929.007	12334
929.112	12498
929.218	12506
929.323	12372
929.428	12445
929.533	12547
929.638	12289
929.743	12338
929.848	12342
929.953	12414
930.058	12209
930.163	12072
930.267	12076
930.372	12216
930.477	12030
930.581	12251
930.685	12083
930.79	11927
930.894	11988
930.998	11927
931.103	12068
931.207	11646
931.311	11585
931.415	11486
931.519	11356
931.623	11326
