Data from test_V78500241_3158.txt Node
Date: Fri Mar 25 16:03:40 CST 2022
User: usil
Spectrometer: V785-0024
Trigger mode: 0
Integration Time (sec): 4.000000E-1
Scans to average: 1
Nonlinearity correction enabled: false
Boxcar width: 0
Storing dark spectrum: false
XAxis mode: Wavelengths
Number of Pixels in Spectrum: 1024
>>>>>Begin Spectral Data<<<<<
801.071	28630
801.214	28466
801.356	28059
801.499	28341
801.641	28150
801.783	28055
801.926	28185
802.068	28181
802.211	28051
802.353	28025
802.496	27964
802.638	27762
802.78	27857
802.923	27918
803.065	27747
803.208	27682
803.35	27739
803.492	28074
803.635	28013
803.777	28010
803.919	28048
804.061	28352
804.204	28116
804.346	27918
804.488	28010
804.63	27972
804.773	28120
804.915	28090
805.057	28128
805.199	28002
805.341	28223
805.483	28131
805.626	28131
805.768	28036
805.91	28131
806.052	28192
806.194	28215
806.336	28303
806.478	28204
806.62	28234
806.762	28272
806.904	28538
807.046	28786
807.188	28679
807.33	28740
807.472	28561
807.614	28653
807.756	28767
807.898	28535
808.04	28516
808.182	28607
808.324	28622
808.465	28607
808.607	28892
808.749	28900
808.891	28896
809.033	28991
809.174	28999
809.316	29010
809.458	28858
809.6	28839
809.741	28987
809.883	29025
810.025	29121
810.166	29231
810.308	29155
810.45	29143
810.591	29071
810.733	28862
810.875	28869
811.016	28957
811.158	28793
811.299	28976
811.441	29003
811.582	29143
811.724	28961
811.865	28888
812.007	28847
812.148	28854
812.29	28949
812.431	29124
812.573	29322
812.714	29246
812.855	29459
812.997	29539
813.138	29638
813.279	29497
813.421	29459
813.562	29372
813.703	29140
813.845	28987
813.986	28892
814.127	28653
814.268	28626
814.41	28687
814.551	28698
814.692	28729
814.833	28557
814.974	28554
815.115	28672
815.256	28550
815.397	28417
815.539	28478
815.68	28485
815.821	28333
815.962	28424
816.103	28493
816.244	28459
816.385	28284
816.526	28158
816.666	28101
816.807	27926
816.948	28067
817.089	28147
817.23	28112
817.371	27922
817.512	27876
817.653	27914
817.793	27793
817.934	27823
818.075	27937
818.216	27956
818.356	27732
818.497	27895
818.638	27675
818.778	27671
818.919	27781
819.06	27846
819.2	27869
819.341	27842
819.481	27854
819.622	28150
819.762	28325
819.903	28147
820.043	28139
820.184	28055
820.324	28143
820.465	28131
820.605	28124
820.746	28116
820.886	27964
821.026	28147
821.167	28067
821.307	28139
821.447	28017
821.588	27835
821.728	27823
821.868	27701
822.008	27564
822.149	27351
822.289	27427
822.429	27195
822.569	27104
822.709	27074
822.849	26982
822.99	26925
823.13	26842
823.27	26940
823.41	26765
823.55	26693
823.69	26746
823.83	26811
823.97	26621
824.11	26469
824.25	26636
824.389	26602
824.529	26590
824.669	26522
824.809	26800
824.949	26750
825.089	26724
825.228	26636
825.368	26412
825.508	26476
825.648	26446
825.787	26549
825.927	26560
826.067	26476
826.206	26419
826.346	26465
826.485	26450
826.625	26427
826.765	26564
826.904	26476
827.044	26176
827.183	26267
827.323	26206
827.462	26221
827.601	26050
827.741	26206
827.88	26259
828.02	26062
828.159	26138
828.298	26130
828.437	26313
828.577	26172
828.716	26191
828.855	26062
828.994	25818
829.134	25936
829.273	25921
829.412	25974
829.551	25765
829.69	25818
829.829	25879
829.968	25807
830.107	25868
830.246	25887
830.385	25807
830.524	25708
830.663	25731
830.802	25597
830.941	25483
831.08	25415
831.219	25693
831.357	25632
831.496	25552
831.635	25365
831.774	25411
831.913	25327
832.051	25194
832.19	25251
832.329	25232
832.467	25053
832.606	25122
832.744	25145
832.883	25031
833.022	24985
833.16	25179
833.299	25110
833.437	25221
833.576	25209
833.714	25206
833.852	25164
833.991	25198
834.129	25244
834.267	25263
834.406	25324
834.544	25263
834.682	25187
834.821	25171
834.959	25373
835.097	25137
835.235	25232
835.373	25160
835.511	25129
835.65	25012
835.788	24901
835.926	24878
836.064	24928
836.202	24939
836.34	25107
836.478	25137
836.615	24943
836.753	25076
836.891	25118
837.029	25015
837.167	25015
837.305	24909
837.443	24935
837.58	25023
837.718	24909
837.856	24916
837.993	24848
838.131	24863
838.269	24772
838.406	24844
838.544	24768
838.681	24422
838.819	24498
838.956	24369
839.094	24372
839.231	24281
839.369	24460
839.506	24825
839.643	24608
839.781	24235
839.918	24243
840.055	24296
840.193	24174
840.33	24258
840.467	24296
840.604	24319
840.742	24471
840.879	24091
841.016	24144
841.153	24197
841.29	24429
841.427	24323
841.564	24228
841.701	24277
841.838	24224
841.975	24136
842.112	24102
842.249	24026
842.385	23992
842.522	24117
842.659	24030
842.796	23897
842.933	24003
843.069	24114
843.206	23904
843.343	24095
843.479	23980
843.616	24041
843.752	23726
843.889	23790
844.025	23946
844.162	23680
844.298	23866
844.435	23794
844.571	23760
844.708	23863
844.844	24041
844.98	23946
845.117	23923
845.253	23783
845.389	23531
845.525	23608
845.661	23642
845.798	23486
845.934	23589
846.07	23474
846.206	23661
846.342	23577
846.478	23562
846.614	23368
846.75	23162
846.886	23242
847.022	23345
847.158	23326
847.294	23250
847.429	23277
847.565	23254
847.701	23493
847.837	22965
847.972	22911
848.108	22915
848.244	22946
848.379	22793
848.515	22847
848.65	22694
848.786	22790
848.921	22755
849.057	22847
849.192	22767
849.328	22850
849.463	22755
849.598	22736
849.734	22744
849.869	22653
850.004	22660
850.14	22637
850.275	22702
850.41	22474
850.545	22531
850.68	22565
850.815	22577
850.95	22672
851.085	22752
851.22	22493
851.355	22592
851.49	22561
851.625	22577
851.76	22580
851.895	22531
852.03	22379
852.165	22565
852.299	22641
852.434	22615
852.569	22512
852.703	22546
852.838	22615
852.973	22660
853.107	22774
853.242	22573
853.376	22390
853.511	22329
853.645	22402
853.78	22436
853.914	22287
854.048	22329
854.183	22443
854.317	22276
854.451	22577
854.585	22318
854.72	22344
854.854	22561
854.988	22242
855.122	22344
855.256	22360
855.39	22413
855.524	22527
855.658	22424
855.792	22447
855.926	22413
856.06	22417
856.194	22436
856.327	22280
856.461	22417
856.595	22360
856.729	22424
856.862	22428
856.996	22462
857.13	22497
857.263	22554
857.397	22493
857.53	22249
857.664	22462
857.797	22413
857.931	22508
858.064	22497
858.197	22344
858.331	22421
858.464	22306
858.597	22360
858.731	22352
858.864	22535
858.997	22310
859.13	22424
859.263	22356
859.396	22478
859.529	22424
859.662	22367
859.795	22257
859.928	22356
860.061	22565
860.194	22607
860.327	22325
860.46	22367
860.592	22440
860.725	22611
860.858	22592
860.99	22322
861.123	22303
861.256	22333
861.388	22360
861.521	23117
861.653	22333
861.786	22322
861.918	22135
862.05	22291
862.183	22238
862.315	22196
862.447	22405
862.58	22306
862.712	22147
862.844	22166
862.976	22147
863.108	22211
863.24	22428
863.372	22116
863.504	21994
863.636	22097
863.768	22158
863.9	22074
864.032	22059
864.164	22078
864.296	22032
864.428	22188
864.559	22158
864.691	22185
864.823	22112
864.954	22101
865.086	22093
865.217	22025
865.349	21915
865.48	21972
865.612	22036
865.743	22074
865.875	22002
866.006	21869
866.137	22013
866.269	22074
866.4	21857
866.531	21926
866.662	21983
866.793	21869
866.924	21778
867.055	21998
867.186	21937
867.317	21949
867.448	21903
867.579	21934
867.71	21835
867.841	21793
867.972	21930
868.103	21816
868.233	21934
868.364	21975
868.495	21968
868.625	22032
868.756	22219
868.886	22067
869.017	21964
869.147	22181
869.278	22226
869.408	22226
869.539	22150
869.669	22173
869.799	22169
869.929	22284
870.06	22348
870.19	22417
870.32	22436
870.45	22577
870.58	22641
870.71	22588
870.84	22672
870.97	22588
871.1	22386
871.23	22691
871.36	22759
871.489	22725
871.619	22748
871.749	22873
871.879	22778
872.008	22877
872.138	22805
872.267	22778
872.397	22569
872.526	22538
872.656	22603
872.785	22531
872.915	22774
873.044	22725
873.173	22805
873.303	22793
873.432	22885
873.561	22911
873.69	22729
873.819	22828
873.948	22953
874.077	22752
874.206	22759
874.335	22793
874.464	22824
874.593	22885
874.722	22877
874.851	23090
874.979	22942
875.108	23109
875.237	22980
875.365	22850
875.494	22942
875.623	23113
875.751	23033
875.88	23056
876.008	23178
876.136	23079
876.265	23467
876.393	23486
876.521	23429
876.65	23410
876.778	23486
876.906	23372
877.034	23383
877.162	23402
877.29	23326
877.418	23360
877.546	23368
877.674	23311
877.802	23356
877.93	23524
878.058	23204
878.185	23254
878.313	23258
878.441	23417
878.568	23079
878.696	23322
878.824	23311
878.951	23425
879.079	23490
879.206	23608
879.333	23463
879.461	23337
879.588	23528
879.715	23543
879.842	23657
879.97	23433
880.097	23185
880.224	23151
880.351	23341
880.478	23353
880.605	23143
880.732	23147
880.859	23490
880.986	23132
881.112	23318
881.239	23071
881.366	22968
881.493	22828
881.619	22698
881.746	22790
881.872	22694
881.999	22710
882.125	22702
882.252	22793
882.378	22786
882.505	22847
882.631	22569
882.757	22569
882.883	22497
883.01	22424
883.136	22303
883.262	22341
883.388	22352
883.514	22284
883.64	22531
883.766	22462
883.892	22143
884.018	22093
884.143	22405
884.269	22341
884.395	22131
884.52	22177
884.646	22128
884.772	22101
884.897	21892
885.023	22112
885.148	22188
885.274	22124
885.399	22261
885.524	21915
885.65	22131
885.775	22101
885.9	21987
886.025	22147
886.15	22135
886.275	22025
886.4	21930
886.525	22109
886.65	22006
886.775	22002
886.9	22101
887.025	22223
887.149	22002
887.274	21854
887.399	21846
887.523	21701
887.648	21835
887.773	21778
887.897	21781
888.021	21880
888.146	21629
888.27	21819
888.395	21918
888.519	21869
888.643	21895
888.767	21827
888.891	21728
889.015	21663
889.139	21641
889.263	21679
889.387	21793
889.511	21876
889.635	21538
889.759	21713
889.883	21614
890.006	21644
890.13	21709
890.254	21469
890.377	21477
890.501	21325
890.624	21275
890.748	21378
890.871	21389
890.995	21081
891.118	21199
891.241	21203
891.364	21074
891.488	21161
891.611	21085
891.734	21165
891.857	21192
891.98	21199
892.103	21169
892.226	21146
892.349	21161
892.471	20975
892.594	21051
892.717	21081
892.839	20933
892.962	20998
893.085	21165
893.207	20952
893.33	21001
893.452	21001
893.575	21184
893.697	20990
893.819	21199
893.941	21207
894.064	21165
894.186	20948
894.308	20998
894.43	21157
894.552	21127
894.674	21146
894.796	20948
894.918	20960
895.04	20941
895.161	21138
895.283	21005
895.405	21017
895.526	21013
895.648	20975
895.769	20960
895.891	21036
896.012	21161
896.134	20979
896.255	21024
896.376	21013
896.498	20975
896.619	21150
896.74	20990
896.861	21096
896.982	21416
897.103	21428
897.224	21237
897.345	21214
897.466	21184
897.587	21298
897.708	21287
897.828	21439
897.949	21108
898.07	20994
898.19	21199
898.311	21199
898.431	21161
898.552	21119
898.672	21195
898.792	21351
898.913	21245
899.033	21150
899.153	21108
899.273	20899
899.393	20998
899.513	20982
899.633	20899
899.753	21089
899.873	20963
899.993	20914
900.113	20887
900.232	20895
900.352	20845
900.472	20777
900.591	20602
900.711	20724
900.83	20697
900.95	20750
901.069	20811
901.189	20587
901.308	20381
901.427	20313
901.546	20339
901.665	20210
901.784	20313
901.904	20191
902.023	20157
902.141	19822
902.26	19841
902.379	19833
902.498	19883
902.617	19845
902.735	19799
902.854	19807
902.973	19750
903.091	19499
903.21	19331
903.328	19457
903.446	19415
903.565	19228
903.683	19259
903.801	19171
903.919	19202
904.038	19198
904.156	18924
904.274	19198
904.392	18913
904.51	19050
904.627	19023
904.745	19034
904.863	19027
904.981	18806
905.098	18715
905.216	18665
905.334	18757
905.451	18631
905.569	18677
905.686	18673
905.803	18620
905.921	18513
906.038	18528
906.155	18513
906.272	18296
906.389	18346
906.506	18224
906.623	18205
906.74	18186
906.857	18121
906.974	18167
907.091	18285
907.208	18300
907.324	18136
907.441	18159
907.557	18049
907.674	17954
907.79	17798
907.907	17802
908.023	17863
908.139	17942
908.256	17847
908.372	17802
908.488	17771
908.604	17611
908.72	17600
908.836	17668
908.952	17554
909.068	17718
909.184	17714
909.3	17630
909.415	17638
909.531	17661
909.647	17334
909.762	17307
909.878	17273
909.993	17307
910.108	17258
910.224	17265
910.339	17318
910.454	17231
910.57	17159
910.685	17124
910.8	17250
910.915	17258
911.03	17178
911.145	16953
911.259	16911
911.374	16961
911.489	16866
911.604	16748
911.718	16592
911.833	16599
911.947	16596
912.062	16443
912.176	16641
912.291	16740
912.405	16615
912.519	16885
912.633	16927
912.748	16672
912.862	16660
912.976	16508
913.09	16371
913.204	16432
913.318	16474
913.431	16561
913.545	16558
913.659	16504
913.772	16375
913.886	16333
914	16280
914.113	16329
914.226	16341
914.34	16253
914.453	16215
914.566	16287
914.68	16204
914.793	16032
914.906	15846
915.019	15899
915.132	15827
915.245	15915
915.358	15888
915.47	15888
915.583	15789
915.696	15876
915.809	15888
915.921	15918
916.034	15831
916.146	15709
916.259	15709
916.371	15781
916.483	15720
916.595	15667
916.708	15736
916.82	15587
916.932	15637
917.044	15660
917.156	15549
917.268	15420
917.38	15492
917.491	15408
917.603	15462
917.715	15561
917.826	15530
917.938	15420
918.049	15359
918.161	15504
918.272	15591
918.384	15511
918.495	15329
918.606	15268
918.717	15112
918.828	15264
918.939	15188
919.05	15081
919.161	15127
919.272	14933
919.383	15070
919.494	15230
919.604	15367
919.715	15249
919.826	15104
919.936	15135
920.047	15161
920.157	15214
920.267	15382
920.378	15237
920.488	15097
920.598	15226
920.708	15370
920.818	15264
920.928	15245
921.038	15370
921.148	15439
921.258	15127
921.368	15043
921.477	14944
921.587	14910
921.697	14845
921.806	14857
921.916	14739
922.025	14571
922.134	14503
922.244	14526
922.353	14545
922.462	14389
922.571	14347
922.68	14195
922.789	14145
922.898	14138
923.007	14035
923.116	14138
923.224	14142
923.333	14103
923.442	14031
923.55	14001
923.659	14005
923.767	14008
923.876	13871
923.984	13940
924.092	13864
924.201	13826
924.309	13909
924.417	13818
924.525	13765
924.633	13890
924.741	14617
924.849	13613
924.956	13693
925.064	13559
925.172	13499
925.279	13529
925.387	13590
925.494	13525
925.602	13742
925.709	13590
925.816	13487
925.924	13487
926.031	13521
926.138	13529
926.245	13525
926.352	13457
926.459	13445
926.566	13590
926.673	13320
926.779	13289
926.886	13255
926.993	13179
927.099	13168
927.206	13114
927.312	12905
927.419	13236
927.525	13114
927.631	13114
927.737	12970
927.843	12867
927.95	12833
928.056	12913
928.162	12916
928.267	12814
928.373	13468
928.479	13012
928.585	12768
928.69	12837
928.796	12871
928.901	12726
929.007	12574
929.112	12692
929.218	12722
929.323	12574
929.428	12646
929.533	12658
929.638	12547
929.743	12559
929.848	12547
929.953	12506
930.058	12410
930.163	12346
930.267	12330
930.372	12380
930.477	12216
930.581	12509
930.685	12327
930.79	12201
930.894	12235
930.998	11992
931.103	12190
931.207	11859
931.311	11969
931.415	11710
931.519	11547
931.623	11520
