Data from test_V78500241_794.txt Node
Date: Fri Mar 25 15:47:18 CST 2022
User: usil
Spectrometer: V785-0024
Trigger mode: 0
Integration Time (sec): 4.000000E-1
Scans to average: 1
Nonlinearity correction enabled: false
Boxcar width: 0
Storing dark spectrum: false
XAxis mode: Wavelengths
Number of Pixels in Spectrum: 1024
>>>>>Begin Spectral Data<<<<<
801.071	27370
801.214	27104
801.356	26807
801.499	26853
801.641	26632
801.783	26785
801.926	26876
802.068	26891
802.211	26826
802.353	26602
802.496	26370
802.638	26450
802.78	26358
802.923	26294
803.065	26317
803.208	26408
803.35	26412
803.492	26419
803.635	26636
803.777	26541
803.919	26495
804.061	26838
804.204	26503
804.346	26594
804.488	26469
804.63	26667
804.773	26336
804.915	26537
805.057	26659
805.199	26423
805.341	26743
805.483	26648
805.626	26625
805.768	26743
805.91	26655
806.052	26655
806.194	26514
806.336	26823
806.478	26781
806.62	26678
806.762	26811
806.904	27039
807.046	27275
807.188	27211
807.33	27127
807.472	27123
807.614	27039
807.756	27135
807.898	27070
808.04	26834
808.182	26887
808.324	27062
808.465	27047
808.607	27096
808.749	27256
808.891	27401
809.033	27469
809.174	27351
809.316	27211
809.458	27355
809.6	27283
809.741	27477
809.883	27454
810.025	27667
810.166	27443
810.308	27667
810.45	27587
810.591	27496
810.733	27230
810.875	27294
811.016	27237
811.158	27279
811.299	27336
811.441	27477
811.582	27572
811.724	27355
811.865	27344
812.007	27184
812.148	27279
812.29	27150
812.431	27519
812.573	27629
812.714	27751
812.855	27926
812.997	27937
813.138	28010
813.279	27937
813.421	27873
813.562	27724
813.703	27682
813.845	27504
813.986	27188
814.127	26979
814.268	26849
814.41	26982
814.551	27009
814.692	27032
814.833	26933
814.974	27020
815.115	27051
815.256	26838
815.397	26727
815.539	26880
815.68	26667
815.821	26625
815.962	26861
816.103	26785
816.244	26674
816.385	26415
816.526	26526
816.666	26404
816.807	26290
816.948	26351
817.089	26282
817.23	26339
817.371	26240
817.512	26168
817.653	26294
817.793	26206
817.934	26221
818.075	26237
818.216	26225
818.356	26206
818.497	26142
818.638	25944
818.778	26054
818.919	26145
819.06	26161
819.2	26271
819.341	26149
819.481	26275
819.622	26423
819.762	26655
819.903	26511
820.043	26415
820.184	26434
820.324	26252
820.465	26385
820.605	26347
820.746	26275
820.886	26248
821.026	26164
821.167	26328
821.307	26320
821.447	26263
821.588	26054
821.728	26084
821.868	25788
822.008	25811
822.149	25643
822.289	25635
822.429	25449
822.569	25316
822.709	25365
822.849	25225
822.99	25263
823.13	25240
823.27	25148
823.41	25114
823.55	25046
823.69	24928
823.83	24856
823.97	24973
824.11	24726
824.25	24791
824.389	24821
824.529	24935
824.669	24768
824.809	25031
824.949	24863
825.089	24947
825.228	24913
825.368	24730
825.508	24719
825.648	24821
825.787	24760
825.927	24684
826.067	24711
826.206	24696
826.346	24802
826.485	24745
826.625	24741
826.765	24738
826.904	24646
827.044	24471
827.183	24426
827.323	24467
827.462	24517
827.601	24429
827.741	24426
827.88	24505
828.02	24380
828.159	24448
828.298	24407
828.437	24399
828.577	24365
828.716	24490
828.855	24304
828.994	24232
829.134	24163
829.273	24186
829.412	24136
829.551	24167
829.69	24102
829.829	24190
829.968	24171
830.107	24209
830.246	24140
830.385	24083
830.524	24041
830.663	24018
830.802	23840
830.941	23684
831.08	23764
831.219	23783
831.357	23794
831.496	23969
831.635	23737
831.774	23707
831.913	23676
832.051	23539
832.19	23493
832.329	23512
832.467	23421
832.606	23170
832.744	23356
832.883	23467
833.022	23341
833.16	23459
833.299	23516
833.437	23337
833.576	23467
833.714	23452
833.852	23429
833.991	23414
834.129	23490
834.267	23577
834.406	23436
834.544	23516
834.682	23414
834.821	23410
834.959	23592
835.097	23463
835.235	23463
835.373	23414
835.511	23516
835.65	23170
835.788	23311
835.926	23159
836.064	23155
836.202	23162
836.34	23208
836.478	23368
836.615	23269
836.753	23147
836.891	23364
837.029	23246
837.167	23174
837.305	23067
837.443	23086
837.58	23086
837.718	23231
837.856	23147
837.993	23086
838.131	23006
838.269	23041
838.406	23151
838.544	22991
838.681	22801
838.819	22805
838.956	22615
839.094	22580
839.231	22618
839.369	22835
839.506	23064
839.643	22881
839.781	22508
839.918	22542
840.055	22592
840.193	22550
840.33	22523
840.467	22569
840.604	22599
840.742	22801
840.879	22382
841.016	22478
841.153	22398
841.29	22580
841.427	22459
841.564	22382
841.701	22569
841.838	22481
841.975	22390
842.112	22493
842.249	22409
842.385	22325
842.522	22459
842.659	22341
842.796	22303
842.933	22303
843.069	22207
843.206	22230
843.343	22219
843.479	22265
843.616	22299
843.752	22029
843.889	22086
844.025	22139
844.162	21991
844.298	22150
844.435	22048
844.571	21937
844.708	22196
844.844	22135
844.98	22131
845.117	22109
845.253	22021
845.389	21895
845.525	22006
845.661	21846
845.798	21793
845.934	21823
846.07	21835
846.206	21728
846.342	21869
846.478	21865
846.614	21481
846.75	21492
846.886	21515
847.022	21557
847.158	21469
847.294	21450
847.429	21473
847.565	21500
847.701	21667
847.837	21348
847.972	21218
848.108	21378
848.244	21336
848.379	21112
848.515	21039
848.65	21077
848.786	21043
848.921	21150
849.057	21237
849.192	21256
849.328	21142
849.463	21009
849.598	21047
849.734	21138
849.869	21081
850.004	20823
850.14	20929
850.275	20960
850.41	20750
850.545	20872
850.68	20868
850.815	20880
850.95	20979
851.085	21119
851.22	20986
851.355	20735
851.49	20872
851.625	20883
851.76	20857
851.895	20834
852.03	20746
852.165	20864
852.299	20952
852.434	20876
852.569	20925
852.703	20868
852.838	20937
852.973	21093
853.107	21055
853.242	20807
853.376	20807
853.511	20606
853.645	20705
853.78	20849
853.914	20807
854.048	20727
854.183	20686
854.317	20697
854.451	20956
854.585	20754
854.72	20720
854.854	20739
854.988	20762
855.122	20792
855.256	20655
855.39	20705
855.524	20720
855.658	20857
855.792	20731
855.926	20785
856.06	20864
856.194	20735
856.327	20785
856.461	20594
856.595	20648
856.729	20670
856.862	20788
856.996	20651
857.13	20625
857.263	20845
857.397	20933
857.53	20629
857.664	20777
857.797	20804
857.931	20815
858.064	20754
858.197	20845
858.331	20602
858.464	20670
858.597	20606
858.731	20765
858.864	20606
858.997	20659
859.13	20754
859.263	20659
859.396	20804
859.529	20712
859.662	20609
859.795	20682
859.928	20697
860.061	20834
860.194	20819
860.327	20708
860.46	20708
860.592	20804
860.725	20902
860.858	20773
860.99	20800
861.123	20655
861.256	20583
861.388	20762
861.521	21302
861.653	20613
861.786	20465
861.918	20530
862.05	20571
862.183	20617
862.315	20743
862.447	20663
862.58	20617
862.712	20492
862.844	20351
862.976	20511
863.108	20530
863.24	20990
863.372	20259
863.504	20419
863.636	20438
863.768	20404
863.9	20351
864.032	20294
864.164	20480
864.296	20526
864.428	20495
864.559	20545
864.691	20423
864.823	20400
864.954	20564
865.086	20366
865.217	20298
865.349	20286
865.48	20313
865.612	20381
865.743	20583
865.875	20408
866.006	20347
866.137	20347
866.269	20438
866.4	20298
866.531	20157
866.662	20252
866.793	20256
866.924	20259
867.055	20275
867.186	20366
867.317	20313
867.448	20324
867.579	20286
867.71	20180
867.841	20210
867.972	20381
868.103	20252
868.233	20362
868.364	20385
868.495	20400
868.625	20571
868.756	20670
868.886	20564
869.017	20495
869.147	20613
869.278	20667
869.408	20541
869.539	20598
869.669	20621
869.799	20663
869.929	20629
870.06	20583
870.19	21005
870.32	20891
870.45	20754
870.58	20994
870.71	20998
870.84	21036
870.97	21074
871.1	20914
871.23	21237
871.36	21047
871.489	21058
871.619	21020
871.749	21104
871.879	21127
872.008	21249
872.138	21123
872.267	21138
872.397	20967
872.526	20990
872.656	20975
872.785	21028
872.915	21154
873.044	21218
873.173	21146
873.303	21230
873.432	21188
873.561	21252
873.69	21275
873.819	21051
873.948	21233
874.077	21275
874.206	21104
874.335	21169
874.464	21272
874.593	21298
874.722	21454
874.851	21469
874.979	21408
875.108	21477
875.237	21332
875.365	21291
875.494	21359
875.623	21568
875.751	21454
875.88	21431
876.008	21606
876.136	21561
876.265	21739
876.393	21854
876.521	21842
876.65	21918
876.778	21812
876.906	21701
877.034	21739
877.162	21701
877.29	21720
877.418	21743
877.546	21861
877.674	21861
877.802	21770
877.93	21652
878.058	21781
878.185	21732
878.313	21793
878.441	21751
878.568	21576
878.696	21637
878.824	21876
878.951	21778
879.079	22051
879.206	22048
879.333	21937
879.461	21800
879.588	21987
879.715	21854
879.842	22025
879.97	21831
880.097	21561
880.224	21603
880.351	21606
880.478	21553
880.605	21599
880.732	21587
880.859	21846
880.986	21724
881.112	21618
881.239	21481
881.366	21344
881.493	21264
881.619	21272
881.746	21127
881.872	21150
881.999	21142
882.125	21127
882.252	21275
882.378	21051
882.505	21241
882.631	21089
882.757	20952
882.883	20948
883.01	20887
883.136	20899
883.262	20625
883.388	20769
883.514	20948
883.64	20887
883.766	20811
883.892	20598
884.018	20655
884.143	20834
884.269	21020
884.395	20644
884.52	20465
884.646	20564
884.772	20495
884.897	20423
885.023	20549
885.148	20560
885.274	20689
885.399	20583
885.524	20590
885.65	20499
885.775	20537
885.9	20465
886.025	20629
886.15	20648
886.275	20396
886.4	20423
886.525	20583
886.65	20454
886.775	20427
886.9	20636
887.025	20720
887.149	20507
887.274	20229
887.399	20229
887.523	20240
887.648	20214
887.773	20191
887.897	20419
888.021	20495
888.146	20290
888.27	20438
888.395	20381
888.519	20358
888.643	20317
888.767	20412
888.891	20252
889.015	20054
889.139	20115
889.263	20122
889.387	20305
889.511	20362
889.635	20248
889.759	20183
889.883	20088
890.006	20107
890.13	20126
890.254	20012
890.377	20138
890.501	19925
890.624	19746
890.748	20027
890.871	19708
890.995	19677
891.118	19662
891.241	19746
891.364	19674
891.488	19822
891.611	19685
891.734	19750
891.857	19643
891.98	19681
892.103	19799
892.226	19605
892.349	19544
892.471	19457
892.594	19635
892.717	19601
892.839	19552
892.962	19674
893.085	19704
893.207	19567
893.33	19464
893.452	19487
893.575	19590
893.697	19632
893.819	19731
893.941	19708
894.064	19765
894.186	19609
894.308	19544
894.43	19700
894.552	19753
894.674	19765
894.796	19556
894.918	19677
895.04	19567
895.161	19776
895.283	19502
895.405	19594
895.526	19575
895.648	19620
895.769	19518
895.891	19597
896.012	19670
896.134	19708
896.255	19525
896.376	19582
896.498	19491
896.619	19658
896.74	19590
896.861	19689
896.982	19841
897.103	20134
897.224	19807
897.345	19811
897.466	19708
897.587	19868
897.708	19978
897.828	19868
897.949	19772
898.07	19662
898.19	19921
898.311	19944
898.431	19761
898.552	19849
898.672	19761
898.792	19967
898.913	19826
899.033	19856
899.153	19647
899.273	19518
899.393	19647
899.513	19666
899.633	19689
899.753	19559
899.873	19514
899.993	19594
900.113	19518
900.232	19704
900.352	19620
900.472	19434
900.591	19419
900.711	19441
900.83	19449
900.95	19460
901.069	19529
901.189	19263
901.308	19061
901.427	19008
901.546	19076
901.665	19027
901.784	19050
901.904	18886
902.023	18791
902.141	18517
902.26	18391
902.379	18547
902.498	18517
902.617	18456
902.735	18547
902.854	18445
902.973	18448
903.091	18251
903.21	18182
903.328	18205
903.446	18038
903.565	17954
903.683	17939
903.801	17859
903.919	17950
904.038	17950
904.156	17885
904.274	17790
904.392	17737
904.51	17726
904.627	17756
904.745	17840
904.863	17684
904.981	17520
905.098	17414
905.216	17455
905.334	17414
905.451	17493
905.569	17440
905.686	17436
905.803	17490
905.921	17261
906.038	17311
906.155	17181
906.272	17102
906.389	17151
906.506	16949
906.623	16953
906.74	16816
906.857	16858
906.974	16866
907.091	17056
907.208	17086
907.324	16991
907.441	16812
907.557	16675
907.674	16622
907.79	16615
907.907	16550
908.023	16733
908.139	16694
908.256	16603
908.372	16550
908.488	16565
908.604	16371
908.72	16341
908.836	16421
908.952	16443
909.068	16478
909.184	16546
909.3	16413
909.415	16527
909.531	16436
909.647	16200
909.762	16116
909.878	16025
909.993	16299
910.108	15915
910.224	16082
910.339	16021
910.454	15968
910.57	15850
910.685	15869
910.8	16173
910.915	16143
911.03	15941
911.145	15778
911.259	15724
911.374	15660
911.489	15675
911.604	15587
911.718	15424
911.833	15397
911.947	15359
912.062	15287
912.176	15519
912.291	15519
912.405	15496
912.519	15656
912.633	15606
912.748	15481
912.862	15500
912.976	15348
913.09	15097
913.204	15237
913.318	15351
913.431	15416
913.545	15374
913.659	15378
913.772	15241
913.886	15062
914	15081
914.113	15104
914.226	15268
914.34	15146
914.453	14963
914.566	15036
914.68	14963
914.793	14960
914.906	14864
915.019	14720
915.132	14678
915.245	14727
915.358	14670
915.47	14727
915.583	14708
915.696	14792
915.809	14872
915.921	14895
916.034	14659
916.146	14575
916.259	14568
916.371	14636
916.483	14659
916.595	14651
916.708	14503
916.82	14571
916.932	14465
917.044	14480
917.156	14564
917.268	14396
917.38	14412
917.491	14259
917.603	14423
917.715	14533
917.826	14461
917.938	14355
918.049	14225
918.161	14233
918.272	14457
918.384	14541
918.495	14267
918.606	14202
918.717	14145
918.828	14164
918.939	14092
919.05	14065
919.161	14134
919.272	13887
919.383	14054
919.494	14221
919.604	14328
919.715	14176
919.826	14115
919.936	14081
920.047	14278
920.157	14100
920.267	14313
920.378	14233
920.488	14043
920.598	14351
920.708	14408
920.818	14286
920.928	14240
921.038	14412
921.148	14313
921.258	14077
921.368	13925
921.477	13845
921.587	13906
921.697	13788
921.806	13894
921.916	13700
922.025	13571
922.134	13556
922.244	13529
922.353	13464
922.462	13415
922.571	13377
922.68	13225
922.789	13274
922.898	13129
923.007	13156
923.116	13213
923.224	13110
923.333	13084
923.442	13061
923.55	13012
923.659	13057
923.767	13107
923.876	12958
923.984	13004
924.092	12798
924.201	13057
924.309	12951
924.417	12966
924.525	12886
924.633	12852
924.741	13776
924.849	12654
924.956	12768
925.064	12639
925.172	12585
925.279	12509
925.387	12620
925.494	12700
925.602	12730
925.709	12608
925.816	12429
925.924	12589
926.031	12711
926.138	12620
926.245	12703
926.352	12456
926.459	12578
926.566	12612
926.673	12525
926.779	12365
926.886	12376
926.993	12277
927.099	12266
927.206	12125
927.312	12182
927.419	12251
927.525	12224
927.631	12235
927.737	12011
927.843	11992
927.95	11893
928.056	12022
928.162	12011
928.267	12015
928.373	12608
928.479	12106
928.585	11828
928.69	11904
928.796	11996
928.901	11813
929.007	11802
929.112	11885
929.218	11775
929.323	11802
929.428	11752
929.533	11836
929.638	11630
929.743	11718
929.848	11783
929.953	11665
930.058	11562
930.163	11524
930.267	11474
930.372	11539
930.477	11398
930.581	11615
930.685	11459
930.79	11326
930.894	11277
930.998	11330
931.103	11520
931.207	11105
931.311	11025
931.415	10991
931.519	10710
931.623	10668
