Data from test_V78500241_372.txt Node
Date: Fri Mar 25 15:44:22 CST 2022
User: usil
Spectrometer: V785-0024
Trigger mode: 0
Integration Time (sec): 4.000000E-1
Scans to average: 1
Nonlinearity correction enabled: false
Boxcar width: 0
Storing dark spectrum: false
XAxis mode: Wavelengths
Number of Pixels in Spectrum: 1024
>>>>>Begin Spectral Data<<<<<
801.071	29440
801.214	29543
801.356	29315
801.499	29307
801.641	29140
801.783	29246
801.926	29292
802.068	29041
802.211	29044
802.353	29105
802.496	28869
802.638	28961
802.78	28847
802.923	28869
803.065	28755
803.208	28691
803.35	28942
803.492	28888
803.635	29037
803.777	28991
803.919	29056
804.061	29147
804.204	29223
804.346	29003
804.488	28923
804.63	29029
804.773	28877
804.915	28946
805.057	29090
805.199	28976
805.341	29151
805.483	29102
805.626	29014
805.768	29064
805.91	29212
806.052	29075
806.194	29155
806.336	29425
806.478	29159
806.62	29117
806.762	29250
806.904	29516
807.046	29798
807.188	29539
807.33	29570
807.472	29596
807.614	29619
807.756	29516
807.898	29421
808.04	29356
808.182	29334
808.324	29421
808.465	29379
808.607	29547
808.749	29771
808.891	29954
809.033	29973
809.174	29805
809.316	29958
809.458	29992
809.6	29805
809.741	29935
809.883	29969
810.025	30159
810.166	30011
810.308	30110
810.45	30060
810.591	30003
810.733	29904
810.875	29748
811.016	29722
811.158	29672
811.299	30003
811.441	30003
811.582	30095
811.724	29764
811.865	29828
812.007	29999
812.148	29882
812.29	29923
812.431	29923
812.573	30254
812.714	30239
812.855	30365
812.997	30414
813.138	30597
813.279	30521
813.421	30319
813.562	30334
813.703	30133
813.845	30114
813.986	29741
814.127	29623
814.268	29558
814.41	29368
814.551	29452
814.692	29646
814.833	29398
814.974	29360
815.115	29471
815.256	29277
815.397	29231
815.539	29398
815.68	29254
815.821	29292
815.962	29235
816.103	29189
816.244	29208
816.385	29128
816.526	29075
816.666	28900
816.807	28782
816.948	28930
817.089	28858
817.23	28904
817.371	28607
817.512	28824
817.653	28660
817.793	28710
817.934	28824
818.075	28721
818.216	28759
818.356	28672
818.497	28626
818.638	28371
818.778	28531
818.919	28557
819.06	28668
819.2	28485
819.341	28809
819.481	28649
819.622	28839
819.762	29014
819.903	28946
820.043	28911
820.184	28835
820.324	28809
820.465	29083
820.605	28843
820.746	28767
820.886	28554
821.026	28733
821.167	28649
821.307	28877
821.447	28691
821.588	28424
821.728	28485
821.868	28299
822.008	28177
822.149	28067
822.289	28150
822.429	27960
822.569	27793
822.709	27812
822.849	27648
822.99	27644
823.13	27739
823.27	27591
823.41	27351
823.55	27454
823.69	27481
823.83	27355
823.97	27424
824.11	27241
824.25	27176
824.389	27348
824.529	27252
824.669	27272
824.809	27329
824.949	27260
825.089	27218
825.228	27203
825.368	27066
825.508	27096
825.648	27207
825.787	27005
825.927	27157
826.067	27138
826.206	27138
826.346	27043
826.485	27127
826.625	27070
826.765	27268
826.904	27051
827.044	26845
827.183	26864
827.323	26670
827.462	26940
827.601	26876
827.741	26667
827.88	26689
828.02	26564
828.159	26682
828.298	26739
828.437	26891
828.577	26861
828.716	26929
828.855	26533
828.994	26412
829.134	26484
829.273	26461
829.412	26343
829.551	26396
829.69	26332
829.829	26533
829.968	26564
830.107	26469
830.246	26492
830.385	26446
830.524	26347
830.663	26206
830.802	26088
830.941	26161
831.08	25989
831.219	26046
831.357	26172
831.496	26172
831.635	25807
831.774	25959
831.913	25868
832.051	25947
832.19	25761
832.329	25784
832.467	25605
832.606	25567
832.744	25655
832.883	25582
833.022	25700
833.16	25628
833.299	25613
833.437	25689
833.576	25681
833.714	25567
833.852	25852
833.991	25799
834.129	25772
834.267	25696
834.406	25567
834.544	25769
834.682	25689
834.821	25769
834.959	25776
835.097	25613
835.235	25708
835.373	25689
835.511	25662
835.65	25582
835.788	25457
835.926	25403
836.064	25285
836.202	25403
836.34	25483
836.478	25514
836.615	25400
836.753	25495
836.891	25533
837.029	25445
837.167	25346
837.305	25343
837.443	25339
837.58	25354
837.718	25388
837.856	25362
837.993	25228
838.131	25293
838.269	25152
838.406	25225
838.544	25137
838.681	24852
838.819	24973
838.956	24753
839.094	24669
839.231	24753
839.369	24897
839.506	25084
839.643	24939
839.781	24669
839.918	24753
840.055	24726
840.193	24616
840.33	24639
840.467	24726
840.604	24757
840.742	25046
840.879	24498
841.016	24582
841.153	24410
841.29	24650
841.427	24574
841.564	24574
841.701	24532
841.838	24601
841.975	24464
842.112	24631
842.249	24361
842.385	24300
842.522	24593
842.659	24353
842.796	24464
842.933	24369
843.069	24213
843.206	24216
843.343	24467
843.479	24247
843.616	24346
843.752	24125
843.889	24213
844.025	24258
844.162	24079
844.298	24235
844.435	24030
844.571	23988
844.708	24136
844.844	24315
844.98	24224
845.117	24174
845.253	23996
845.389	23961
845.525	24018
845.661	23920
845.798	23726
845.934	23824
846.07	23783
846.206	23965
846.342	23855
846.478	23710
846.614	23493
846.75	23356
846.886	23368
847.022	23630
847.158	23455
847.294	23630
847.429	23604
847.565	23455
847.701	23707
847.837	23197
847.972	23216
848.108	23258
848.244	23220
848.379	23155
848.515	23075
848.65	23033
848.786	23086
848.921	23124
849.057	23109
849.192	23140
849.328	23067
849.463	23071
849.598	23098
849.734	22877
849.869	22930
850.004	22847
850.14	22900
850.275	22729
850.41	22786
850.545	22721
850.68	22736
850.815	22839
850.95	22782
851.085	22991
851.22	22949
851.355	22733
851.49	22824
851.625	22782
851.76	22866
851.895	22786
852.03	22759
852.165	22862
852.299	22831
852.434	22911
852.569	22942
852.703	22835
852.838	22767
852.973	23018
853.107	22965
853.242	22771
853.376	22481
853.511	22603
853.645	22500
853.78	22615
853.914	22637
854.048	22569
854.183	22607
854.317	22481
854.451	22843
854.585	22531
854.72	22622
854.854	22687
854.988	22550
855.122	22451
855.256	22485
855.39	22596
855.524	22626
855.658	22569
855.792	22656
855.926	22656
856.06	22630
856.194	22656
856.327	22535
856.461	22603
856.595	22512
856.729	22630
856.862	22527
856.996	22596
857.13	22622
857.263	22710
857.397	22740
857.53	22607
857.664	22702
857.797	22683
857.931	22668
858.064	22569
858.197	22668
858.331	22459
858.464	22489
858.597	22432
858.731	22516
858.864	22474
858.997	22409
859.13	22577
859.263	22535
859.396	22660
859.529	22569
859.662	22569
859.795	22371
859.928	22554
860.061	22687
860.194	22668
860.327	22523
860.46	22481
860.592	22717
860.725	22630
860.858	22584
860.99	22622
861.123	22523
861.256	22565
861.388	22653
861.521	23094
861.653	22497
861.786	22242
861.918	22424
862.05	22561
862.183	22557
862.315	22599
862.447	22569
862.58	22436
862.712	22242
862.844	22257
862.976	22318
863.108	22367
863.24	22854
863.372	22185
863.504	22322
863.636	22215
863.768	22303
863.9	22276
864.032	22120
864.164	22158
864.296	22280
864.428	22314
864.559	22257
864.691	22272
864.823	22185
864.954	22268
865.086	22246
865.217	22154
865.349	22067
865.48	22139
865.612	22169
865.743	22253
865.875	22086
866.006	21964
866.137	22150
866.269	22135
866.4	22067
866.531	22086
866.662	21968
866.793	22063
866.924	22124
867.055	21960
867.186	22021
867.317	21994
867.448	21945
867.579	22040
867.71	21975
867.841	22063
867.972	21964
868.103	22048
868.233	22116
868.364	21987
868.495	22074
868.625	22325
868.756	22352
868.886	22204
869.017	22257
869.147	22318
869.278	22363
869.408	22367
869.539	22371
869.669	22451
869.799	22325
869.929	22360
870.06	22322
870.19	22561
870.32	22649
870.45	22557
870.58	22702
870.71	22786
870.84	22710
870.97	22660
871.1	22839
871.23	22949
871.36	22934
871.489	22740
871.619	22812
871.749	22930
871.879	22915
872.008	22927
872.138	22786
872.267	22824
872.397	22744
872.526	22702
872.656	22759
872.785	22767
872.915	22915
873.044	23029
873.173	22889
873.303	23037
873.432	22953
873.561	23113
873.69	22900
873.819	22953
873.948	22927
874.077	22797
874.206	22866
874.335	22793
874.464	23075
874.593	23147
874.722	23064
874.851	23220
874.979	23124
875.108	23113
875.237	23117
875.365	22961
875.494	23029
875.623	23132
875.751	23162
875.88	23109
876.008	23121
876.136	23322
876.265	23398
876.393	23600
876.521	23573
876.65	23531
876.778	23531
876.906	23391
877.034	23471
877.162	23406
877.29	23459
877.418	23391
877.546	23391
877.674	23433
877.802	23372
877.93	23520
878.058	23410
878.185	23303
878.313	23269
878.441	23387
878.568	23193
878.696	23436
878.824	23436
878.951	23558
879.079	23478
879.206	23604
879.333	23608
879.461	23634
879.588	23520
879.715	23611
879.842	23703
879.97	23440
880.097	23326
880.224	23220
880.351	23280
880.478	23181
880.605	23242
880.732	23334
880.859	23459
880.986	23292
881.112	23356
881.239	23155
881.366	22934
881.493	22915
881.619	22710
881.746	22824
881.872	22797
881.999	22831
882.125	22828
882.252	22843
882.378	22831
882.505	22938
882.631	22725
882.757	22557
882.883	22664
883.01	22508
883.136	22398
883.262	22405
883.388	22363
883.514	22542
883.64	22634
883.766	22287
883.892	22272
884.018	22207
884.143	22398
884.269	22618
884.395	22188
884.52	22173
884.646	22196
884.772	22154
884.897	22021
885.023	22154
885.148	22162
885.274	22329
885.399	22169
885.524	22101
885.65	22169
885.775	22173
885.9	22048
886.025	22246
886.15	22242
886.275	22116
886.4	21899
886.525	22116
886.65	22067
886.775	22006
886.9	22230
887.025	22215
887.149	22055
887.274	21899
887.399	21884
887.523	21960
887.648	21842
887.773	21671
887.897	21972
888.021	22006
888.146	21865
888.27	22002
888.395	22040
888.519	21861
888.643	21964
888.767	22032
888.891	21747
889.015	21637
889.139	21618
889.263	21675
889.387	21823
889.511	21861
889.635	21637
889.759	21648
889.883	21603
890.006	21667
890.13	21709
890.254	21534
890.377	21515
890.501	21325
890.624	21294
890.748	21454
890.871	21302
890.995	21176
891.118	21070
891.241	21230
891.364	21226
891.488	21340
891.611	21302
891.734	21176
891.857	21233
891.98	21207
892.103	21249
892.226	21222
892.349	21074
892.471	21070
892.594	21146
892.717	21119
892.839	21055
892.962	21051
893.085	21176
893.207	21085
893.33	20982
893.452	20998
893.575	21062
893.697	21024
893.819	21268
893.941	21340
894.064	21195
894.186	21001
894.308	20998
894.43	21142
894.552	21252
894.674	21222
894.796	20948
894.918	21131
895.04	20979
895.161	21157
895.283	21051
895.405	20948
895.526	21066
895.648	21119
895.769	21070
895.891	21051
896.012	21089
896.134	21062
896.255	21093
896.376	21123
896.498	21116
896.619	21161
896.74	21089
896.861	21154
896.982	21466
897.103	21580
897.224	21401
897.345	21279
897.466	21310
897.587	21310
897.708	21389
897.828	21317
897.949	21268
898.07	21062
898.19	21165
898.311	21428
898.431	21230
898.552	21199
898.672	21291
898.792	21264
898.913	21249
899.033	21226
899.153	21089
899.273	20914
899.393	21009
899.513	21089
899.633	21024
899.753	20979
899.873	20880
899.993	21009
900.113	20891
900.232	20986
900.352	20857
900.472	20769
900.591	20750
900.711	20758
900.83	20796
900.95	20864
901.069	20830
901.189	20640
901.308	20355
901.427	20248
901.546	20385
901.665	20256
901.784	20252
901.904	20122
902.023	20103
902.141	19902
902.26	19879
902.379	19940
902.498	19811
902.617	19715
902.735	19830
902.854	19727
902.973	19734
903.091	19426
903.21	19521
903.328	19552
903.446	19377
903.565	19278
903.683	19198
903.801	19259
903.919	19198
904.038	19381
904.156	19129
904.274	19019
904.392	18977
904.51	19019
904.627	19027
904.745	19015
904.863	19084
904.981	18901
905.098	18707
905.216	18631
905.334	18730
905.451	18760
905.569	18677
905.686	18768
905.803	18661
905.921	18452
906.038	18616
906.155	18509
906.272	18399
906.389	18315
906.506	18304
906.623	18228
906.74	18171
906.857	18022
906.974	18144
907.091	18311
907.208	18334
907.324	18155
907.441	18019
907.557	17965
907.674	17840
907.79	17855
907.907	17908
908.023	17946
908.139	17939
908.256	17908
908.372	17901
908.488	17794
908.604	17707
908.72	17642
908.836	17596
908.952	17615
909.068	17619
909.184	17760
909.3	17516
909.415	17596
909.531	17512
909.647	17345
909.762	17315
909.878	17292
909.993	17261
910.108	17265
910.224	17216
910.339	17280
910.454	17208
910.57	17079
910.685	17022
910.8	17376
910.915	17277
911.03	17029
911.145	16991
911.259	16828
911.374	16828
911.489	16790
911.604	16713
911.718	16607
911.833	16523
911.947	16451
912.062	16512
912.176	16618
912.291	16729
912.405	16599
912.519	16740
912.633	16801
912.748	16615
912.862	16611
912.976	16428
913.09	16238
913.204	16398
913.318	16352
913.431	16363
913.545	16371
913.659	16569
913.772	16268
913.886	16196
914	16169
914.113	16306
914.226	16337
914.34	16211
914.453	16059
914.566	16211
914.68	16067
914.793	16021
914.906	15892
915.019	15838
915.132	15739
915.245	15797
915.358	15728
915.47	15831
915.583	15732
915.696	15804
915.809	15930
915.921	15884
916.034	15743
916.146	15610
916.259	15728
916.371	15720
916.483	15736
916.595	15523
916.708	15568
916.82	15584
916.932	15572
917.044	15511
917.156	15481
917.268	15420
917.38	15393
917.491	15321
917.603	15450
917.715	15507
917.826	15576
917.938	15313
918.049	15214
918.161	15389
918.272	15401
918.384	15401
918.495	15279
918.606	15104
918.717	15024
918.828	15146
918.939	15192
919.05	14990
919.161	15154
919.272	14883
919.383	14929
919.494	15203
919.604	15192
919.715	15146
919.826	14971
919.936	15157
920.047	15176
920.157	15001
920.267	15283
920.378	15112
920.488	15081
920.598	15203
920.708	15313
920.818	15291
920.928	15135
921.038	15370
921.148	15252
921.258	14971
921.368	14952
921.477	14800
921.587	14693
921.697	14640
921.806	14842
921.916	14648
922.025	14461
922.134	14324
922.244	14362
922.353	14385
922.462	14271
922.571	14233
922.68	14115
922.789	14081
922.898	14115
923.007	13989
923.116	14081
923.224	14020
923.333	14065
923.442	13932
923.55	13826
923.659	13902
923.767	13978
923.876	13807
923.984	13811
924.092	13822
924.201	13898
924.309	13769
924.417	13799
924.525	13586
924.633	13757
924.741	14465
924.849	13460
924.956	13651
925.064	13457
925.172	13308
925.279	13419
925.387	13316
925.494	13377
925.602	13563
925.709	13457
925.816	13327
925.924	13407
926.031	13468
926.138	13263
926.245	13358
926.352	13266
926.459	13373
926.566	13392
926.673	13426
926.779	13187
926.886	13137
926.993	13126
927.099	12954
927.206	12924
927.312	12962
927.419	13061
927.525	12973
927.631	13019
927.737	12920
927.843	12844
927.95	12703
928.056	12726
928.162	12829
928.267	12798
928.373	13346
928.479	12802
928.585	12646
928.69	12757
928.796	12867
928.901	12703
929.007	12441
929.112	12623
929.218	12517
929.323	12555
929.428	12494
929.533	12623
929.638	12483
929.743	12464
929.848	12540
929.953	12464
930.058	12304
930.163	12205
930.267	12216
930.372	12296
930.477	12102
930.581	12380
930.685	12186
930.79	12125
930.894	12045
930.998	11988
931.103	12175
931.207	11737
931.311	11703
931.415	11619
931.519	11501
931.623	11478
