Data from test_V78500241_1628.txt Node
Date: Fri Mar 25 15:53:04 CST 2022
User: usil
Spectrometer: V785-0024
Trigger mode: 0
Integration Time (sec): 4.000000E-1
Scans to average: 1
Nonlinearity correction enabled: false
Boxcar width: 0
Storing dark spectrum: false
XAxis mode: Wavelengths
Number of Pixels in Spectrum: 1024
>>>>>Begin Spectral Data<<<<<
801.071	28116
801.214	27960
801.356	27728
801.499	27618
801.641	27526
801.783	27530
801.926	27587
802.068	27359
802.211	27427
802.353	27424
802.496	27336
802.638	27169
802.78	27260
802.923	27180
803.065	27009
803.208	27116
803.35	27142
803.492	27226
803.635	27302
803.777	27310
803.919	27572
804.061	27743
804.204	27408
804.346	27401
804.488	27374
804.63	27416
804.773	27195
804.915	27485
805.057	27412
805.199	27397
805.341	27507
805.483	27667
805.626	27599
805.768	27545
805.91	27595
806.052	27526
806.194	27580
806.336	27603
806.478	27701
806.62	27614
806.762	27671
806.904	27827
807.046	27987
807.188	27987
807.33	28070
807.472	27987
807.614	28021
807.756	27956
807.898	27846
808.04	27819
808.182	27827
808.324	27907
808.465	27861
808.607	28131
808.749	28097
808.891	28257
809.033	28310
809.174	28310
809.316	28207
809.458	28280
809.6	28093
809.741	28337
809.883	28405
810.025	28535
810.166	28443
810.308	28462
810.45	28436
810.591	28535
810.733	27968
810.875	28078
811.016	28078
811.158	28238
811.299	28207
811.441	28382
811.582	28447
811.724	28234
811.865	28196
812.007	28200
812.148	28207
812.29	28284
812.431	28325
812.573	28478
812.714	28573
812.855	28755
812.997	28786
813.138	28976
813.279	28706
813.421	28672
813.562	28759
813.703	28561
813.845	28523
813.986	28124
814.127	27991
814.268	27926
814.41	27991
814.551	27819
814.692	27914
814.833	27907
814.974	27945
815.115	27975
815.256	27728
815.397	27797
815.539	27854
815.68	27743
815.821	27603
815.962	27690
816.103	27614
816.244	27481
816.385	27599
816.526	27507
816.666	27348
816.807	27150
816.948	27317
817.089	27245
817.23	27032
817.371	27169
817.512	27180
817.653	27199
817.793	27108
817.934	27230
818.075	27131
818.216	27150
818.356	27169
818.497	26990
818.638	27032
818.778	26849
818.919	26883
819.06	26940
819.2	27180
819.341	27252
819.481	27169
819.622	27412
819.762	27572
819.903	27378
820.043	27561
820.184	27211
820.324	27241
820.465	27313
820.605	27302
820.746	27279
820.886	27199
821.026	27146
821.167	27298
821.307	27306
821.447	27123
821.588	27116
821.728	27017
821.868	26811
822.008	26697
822.149	26682
822.289	26648
822.429	26339
822.569	26259
822.709	26351
822.849	26122
822.99	26210
823.13	26183
823.27	26142
823.41	26027
823.55	25738
823.69	26183
823.83	26069
823.97	25818
824.11	25769
824.25	25651
824.389	25818
824.529	25803
824.669	25734
824.809	25894
824.949	25845
825.089	25814
825.228	25868
825.368	25651
825.508	25582
825.648	25670
825.787	25700
825.927	25582
826.067	25738
826.206	25586
826.346	25723
826.485	25689
826.625	25700
826.765	25822
826.904	25670
827.044	25419
827.183	25529
827.323	25301
827.462	25400
827.601	25400
827.741	25392
827.88	25422
828.02	25312
828.159	25373
828.298	25339
828.437	25460
828.577	25350
828.716	25457
828.855	25202
828.994	25042
829.134	25156
829.273	25126
829.412	25080
829.551	25015
829.69	25095
829.829	25190
829.968	25080
830.107	25255
830.246	25046
830.385	25053
830.524	25027
830.663	24962
830.802	24738
830.941	24601
831.08	24795
831.219	24829
831.357	24886
831.496	24867
831.635	24738
831.774	24566
831.913	24559
832.051	24654
832.19	24486
832.329	24551
832.467	24498
832.606	24365
832.744	24243
832.883	24498
833.022	24361
833.16	24403
833.299	24452
833.437	24376
833.576	24547
833.714	24350
833.852	24445
833.991	24627
834.129	24574
834.267	24498
834.406	24418
834.544	24566
834.682	24498
834.821	24311
834.959	24505
835.097	24327
835.235	24536
835.373	24536
835.511	24353
835.65	24338
835.788	24270
835.926	24129
836.064	24072
836.202	24045
836.34	24285
836.478	24395
836.615	24251
836.753	24308
836.891	24292
837.029	24197
837.167	24224
837.305	24174
837.443	24026
837.58	24034
837.718	24228
837.856	24174
837.993	24125
838.131	24045
838.269	23980
838.406	23950
838.544	23935
838.681	23866
838.819	23836
838.956	23452
839.094	23592
839.231	23554
839.369	23649
839.506	23942
839.643	23767
839.781	23630
839.918	23452
840.055	23535
840.193	23520
840.33	23505
840.467	23554
840.604	23687
840.742	23745
840.879	23368
841.016	23417
841.153	23364
841.29	23665
841.427	23524
841.564	23474
841.701	23497
841.838	23345
841.975	23459
842.112	23414
842.249	23273
842.385	23273
842.522	23452
842.659	23277
842.796	23197
842.933	23261
843.069	23102
843.206	23200
843.343	23269
843.479	23261
843.616	23341
843.752	23037
843.889	23105
844.025	23178
844.162	22877
844.298	23071
844.435	23014
844.571	22965
844.708	22984
844.844	23151
844.98	23185
845.117	23159
845.253	22953
845.389	22953
845.525	22892
845.661	22885
845.798	22843
845.934	22828
846.07	22622
846.206	22664
846.342	22889
846.478	22812
846.614	22402
846.75	22394
846.886	22489
847.022	22577
847.158	22634
847.294	22371
847.429	22436
847.565	22500
847.701	22748
847.837	22215
847.972	22200
848.108	22280
848.244	22196
848.379	22196
848.515	22032
848.65	21991
848.786	22051
848.921	21987
849.057	22192
849.192	22143
849.328	22181
849.463	22059
849.598	22082
849.734	21949
849.869	21960
850.004	21743
850.14	21876
850.275	21991
850.41	21751
850.545	21816
850.68	21736
850.815	21937
850.95	21762
851.085	21972
851.22	21903
851.355	21903
851.49	21747
851.625	21751
851.76	21812
851.895	21667
852.03	21732
852.165	21797
852.299	21846
852.434	21865
852.569	21983
852.703	21827
852.838	22013
852.973	22067
853.107	21991
853.242	21804
853.376	21766
853.511	21485
853.645	21595
853.78	21793
853.914	21679
854.048	21591
854.183	21492
854.317	21705
854.451	21838
854.585	21595
854.72	21641
854.854	21804
854.988	21553
855.122	21652
855.256	21606
855.39	21526
855.524	21728
855.658	21717
855.792	21618
855.926	21728
856.06	21694
856.194	21610
856.327	21667
856.461	21564
856.595	21675
856.729	21564
856.862	21846
856.996	21694
857.13	21622
857.263	21652
857.397	21755
857.53	21644
857.664	21728
857.797	21800
857.931	21774
858.064	21633
858.197	21812
858.331	21583
858.464	21625
858.597	21511
858.731	21694
858.864	21564
858.997	21625
859.13	21580
859.263	21591
859.396	21812
859.529	21606
859.662	21739
859.795	21618
859.928	21641
860.061	21789
860.194	21869
860.327	21671
860.46	21709
860.592	21732
860.725	21770
860.858	21797
860.99	21720
861.123	21720
861.256	21622
861.388	21671
861.521	22409
861.653	21519
861.786	21466
861.918	21564
862.05	21538
862.183	21629
862.315	21587
862.447	21770
862.58	21500
862.712	21374
862.844	21378
862.976	21450
863.108	21431
863.24	21751
863.372	21405
863.504	21469
863.636	21302
863.768	21260
863.9	21374
864.032	21317
864.164	21279
864.296	21287
864.428	21428
864.559	21378
864.691	21458
864.823	21412
864.954	21321
865.086	21169
865.217	21218
865.349	21123
865.48	21283
865.612	21291
865.743	21386
865.875	21237
866.006	21176
866.137	21260
866.269	21199
866.4	21214
866.531	21214
866.662	21119
866.793	21116
866.924	21245
867.055	21207
867.186	21188
867.317	21226
867.448	21081
867.579	21173
867.71	21024
867.841	21047
867.972	21150
868.103	21138
868.233	21329
868.364	21154
868.495	21256
868.625	21348
868.756	21538
868.886	21370
869.017	21317
869.147	21583
869.278	21519
869.408	21511
869.539	21370
869.669	21496
869.799	21492
869.929	21515
870.06	21561
870.19	21743
870.32	21789
870.45	21823
870.58	21915
870.71	21975
870.84	21994
870.97	21762
871.1	21797
871.23	22051
871.36	22044
871.489	21812
871.619	22059
871.749	21991
871.879	22181
872.008	22059
872.138	22124
872.267	21987
872.397	22006
872.526	21785
872.656	21808
872.785	21869
872.915	22086
873.044	22078
873.173	21876
873.303	22185
873.432	21949
873.561	22116
873.69	21972
873.819	22059
873.948	22059
874.077	22021
874.206	22025
874.335	22036
874.464	22204
874.593	22249
874.722	22322
874.851	22348
874.979	22261
875.108	22299
875.237	22082
875.365	22177
875.494	22257
875.623	22223
875.751	22333
875.88	22261
876.008	22363
876.136	22382
876.265	22672
876.393	22843
876.521	22736
876.65	22698
876.778	22748
876.906	22603
877.034	22615
877.162	22615
877.29	22653
877.418	22797
877.546	22603
877.674	22641
877.802	22683
877.93	22596
878.058	22538
878.185	22500
878.313	22584
878.441	22580
878.568	22462
878.696	22542
878.824	22577
878.951	22653
879.079	22755
879.206	22866
879.333	22774
879.461	22691
879.588	22820
879.715	22812
879.842	22889
879.97	22630
880.097	22337
880.224	22546
880.351	22557
880.478	22462
880.605	22413
880.732	22447
880.859	22683
880.986	22519
881.112	22474
881.239	22166
881.366	22025
881.493	22010
881.619	22029
881.746	22143
881.872	22006
881.999	21892
882.125	21911
882.252	21964
882.378	21953
882.505	22105
882.631	21854
882.757	21663
882.883	21831
883.01	21682
883.136	21644
883.262	21481
883.388	21580
883.514	21736
883.64	21759
883.766	21580
883.892	21564
884.018	21580
884.143	21633
884.269	21679
884.395	21443
884.52	21279
884.646	21321
884.772	21291
884.897	21207
885.023	21344
885.148	21405
885.274	21549
885.399	21447
885.524	21325
885.65	21397
885.775	21401
885.9	21298
886.025	21454
886.15	21325
886.275	21344
886.4	21195
886.525	21256
886.65	21176
886.775	21313
886.9	21283
887.025	21523
887.149	21329
887.274	21127
887.399	21112
887.523	21009
887.648	21123
887.773	21093
887.897	21123
888.021	21176
888.146	21093
888.27	21169
888.395	21214
888.519	21272
888.643	21058
888.767	21260
888.891	21062
889.015	20948
889.139	20967
889.263	20891
889.387	21013
889.511	21135
889.635	21081
889.759	20849
889.883	20880
890.006	20921
890.13	20925
890.254	20842
890.377	20830
890.501	20682
890.624	20625
890.748	20682
890.871	20537
890.995	20514
891.118	20408
891.241	20541
891.364	20499
891.488	20499
891.611	20571
891.734	20419
891.857	20450
891.98	20450
892.103	20450
892.226	20571
892.349	20385
892.471	20229
892.594	20457
892.717	20385
892.839	20396
892.962	20385
893.085	20457
893.207	20374
893.33	20278
893.452	20271
893.575	20408
893.697	20343
893.819	20522
893.941	20514
894.064	20503
894.186	20336
894.308	20290
894.43	20480
894.552	20442
894.674	20434
894.796	20168
894.918	20419
895.04	20328
895.161	20408
895.283	20499
895.405	20275
895.526	20484
895.648	20252
895.769	20347
895.891	20454
896.012	20473
896.134	20446
896.255	20259
896.376	20237
896.498	20332
896.619	20412
896.74	20301
896.861	20309
896.982	20636
897.103	20883
897.224	20606
897.345	20651
897.466	20507
897.587	20621
897.708	20602
897.828	20788
897.949	20469
898.07	20396
898.19	20347
898.311	20552
898.431	20476
898.552	20609
898.672	20613
898.792	20651
898.913	20629
899.033	20454
899.153	20415
899.273	20377
899.393	20294
899.513	20408
899.633	20290
899.753	20339
899.873	20202
899.993	20317
900.113	20206
900.232	20282
900.352	20256
900.472	20206
900.591	20145
900.711	20199
900.83	20077
900.95	20221
901.069	20168
901.189	20088
901.308	19784
901.427	19632
901.546	19670
901.665	19715
901.784	19670
901.904	19594
902.023	19453
902.141	19232
902.26	19095
902.379	19259
902.498	19213
902.617	19194
902.735	19179
902.854	19225
902.973	19031
903.091	18882
903.21	18916
903.328	18840
903.446	18707
903.565	18608
903.683	18604
903.801	18471
903.919	18612
904.038	18551
904.156	18517
904.274	18426
904.392	18372
904.51	18494
904.627	18448
904.745	18486
904.863	18426
904.981	18289
905.098	18095
905.216	18068
905.334	18057
905.451	18133
905.569	18026
905.686	18076
905.803	18019
905.921	17992
906.038	17904
906.155	17855
906.272	17718
906.389	17707
906.506	17657
906.623	17581
906.74	17634
906.857	17474
906.974	17562
907.091	17627
907.208	17672
907.324	17646
907.441	17547
907.557	17372
907.674	17334
907.79	17239
907.907	17223
908.023	17337
908.139	17349
908.256	17231
908.372	17143
908.488	17143
908.604	17102
908.72	16980
908.836	17003
908.952	17140
909.068	17064
909.184	17155
909.3	16995
909.415	17067
909.531	17041
909.647	16778
909.762	16782
909.878	16755
909.993	16885
910.108	16767
910.224	16771
910.339	16801
910.454	16523
910.57	16558
910.685	16546
910.8	16706
910.915	16679
911.03	16656
911.145	16386
911.259	16459
911.374	16268
911.489	16310
911.604	16211
911.718	15991
911.833	16109
911.947	15994
912.062	15926
912.176	16093
912.291	16105
912.405	16211
912.519	16284
912.633	16234
912.748	16192
912.862	15975
912.976	15972
913.09	15793
913.204	15911
913.318	15850
913.431	15998
913.545	15987
913.659	16010
913.772	15895
913.886	15625
914	15694
914.113	15823
914.226	15781
914.34	15739
914.453	15629
914.566	15713
914.68	15534
914.793	15530
914.906	15408
915.019	15222
915.132	15169
915.245	15306
915.358	15367
915.47	15302
915.583	15275
915.696	15291
915.809	15412
915.921	15424
916.034	15279
916.146	15097
916.259	15077
916.371	15321
916.483	15291
916.595	15089
916.708	15131
916.82	15230
916.932	15036
917.044	15066
917.156	15203
917.268	14933
917.38	14963
917.491	14944
917.603	14925
917.715	14937
917.826	15032
917.938	14895
918.049	14796
918.161	14933
918.272	15039
918.384	14944
918.495	14914
918.606	14754
918.717	14712
918.828	14743
918.939	14826
919.05	14640
919.161	14735
919.272	14511
919.383	14503
919.494	14792
919.604	14887
919.715	14678
919.826	14602
919.936	14670
920.047	14762
920.157	14693
920.267	14842
920.378	14659
920.488	14522
920.598	14887
920.708	14914
920.818	14792
920.928	14705
921.038	14883
921.148	14845
921.258	14556
921.368	14495
921.477	14358
921.587	14381
921.697	14180
921.806	14404
921.916	14237
922.025	14107
922.134	14103
922.244	14043
922.353	14058
922.462	13890
922.571	13868
922.68	13757
922.789	13575
922.898	13719
923.007	13636
923.116	13708
923.224	13685
923.333	13632
923.442	13556
923.55	13457
923.659	13552
923.767	13594
923.876	13320
923.984	13613
924.092	13453
924.201	13464
924.309	13312
924.417	13457
924.525	13316
924.633	13343
924.741	14214
924.849	13152
924.956	13297
925.064	13118
925.172	13065
925.279	13065
925.387	13080
925.494	13137
925.602	13149
925.709	13118
925.816	13000
925.924	13008
926.031	13145
926.138	12985
926.245	13031
926.352	13027
926.459	13129
926.566	13084
926.673	12909
926.779	12810
926.886	12829
926.993	12623
927.099	12646
927.206	12604
927.312	12589
927.419	12703
927.525	12574
927.631	12673
927.737	12509
927.843	12540
927.95	12433
928.056	12456
928.162	12467
928.267	12464
928.373	13179
928.479	12528
928.585	12315
928.69	12426
928.796	12467
928.901	12327
929.007	12171
929.112	12262
929.218	12281
929.323	12239
929.428	12220
929.533	12285
929.638	12163
929.743	12213
929.848	12194
929.953	12190
930.058	12038
930.163	11893
930.267	11942
930.372	12015
930.477	11821
930.581	11996
930.685	11973
930.79	11779
930.894	11729
930.998	11745
931.103	11893
931.207	11486
931.311	11482
931.415	11337
931.519	11189
931.623	11170
