Data from test_V78500241_2918.txt Node
Date: Fri Mar 25 16:02:00 CST 2022
User: usil
Spectrometer: V785-0024
Trigger mode: 0
Integration Time (sec): 4.000000E-1
Scans to average: 1
Nonlinearity correction enabled: false
Boxcar width: 0
Storing dark spectrum: false
XAxis mode: Wavelengths
Number of Pixels in Spectrum: 1024
>>>>>Begin Spectral Data<<<<<
801.071	28866
801.214	28759
801.356	28523
801.499	28641
801.641	28440
801.783	28508
801.926	28432
802.068	28276
802.211	28497
802.353	28390
802.496	28063
802.638	28101
802.78	28078
802.923	28097
803.065	28150
803.208	28109
803.35	28215
803.492	28333
803.635	28234
803.777	28200
803.919	28390
804.061	28653
804.204	28428
804.346	28348
804.488	28253
804.63	28325
804.773	28371
804.915	28508
805.057	28523
805.199	28375
805.341	28436
805.483	28550
805.626	28447
805.768	28451
805.91	28584
806.052	28656
806.194	28443
806.336	28577
806.478	28424
806.62	28626
806.762	28691
806.904	28782
807.046	29128
807.188	29022
807.33	29113
807.472	29121
807.614	29022
807.756	28885
807.898	28850
808.04	28786
808.182	28881
808.324	28968
808.465	28923
808.607	29071
808.749	29307
808.891	29284
809.033	29356
809.174	29174
809.316	29239
809.458	29246
809.6	29223
809.741	29421
809.883	29299
810.025	29551
810.166	29501
810.308	29512
810.45	29345
810.591	29326
810.733	29223
810.875	29208
811.016	29025
811.158	29208
811.299	29265
811.441	29368
811.582	29410
811.724	29159
811.865	29220
812.007	29269
812.148	29246
812.29	29284
812.431	29516
812.573	29668
812.714	29528
812.855	29794
812.997	29745
813.138	30114
813.279	29912
813.421	29847
813.562	29687
813.703	29486
813.845	29440
813.986	29246
814.127	29083
814.268	28961
814.41	29006
814.551	29022
814.692	28976
814.833	28972
814.974	28892
815.115	28968
815.256	28862
815.397	28900
815.539	28858
815.68	28790
815.821	28698
815.962	28763
816.103	28740
816.244	28519
816.385	28679
816.526	28565
816.666	28291
816.807	28230
816.948	28428
817.089	28310
817.23	28204
817.371	28219
817.512	28352
817.653	28272
817.793	28295
817.934	28272
818.075	28219
818.216	28284
818.356	28131
818.497	28128
818.638	28051
818.778	28040
818.919	28150
819.06	28128
819.2	28219
819.341	28371
819.481	28303
819.622	28519
819.762	28618
819.903	28405
820.043	28421
820.184	28508
820.324	28246
820.465	28497
820.605	28478
820.746	28375
820.886	28166
821.026	28280
821.167	28356
821.307	28394
821.447	28310
821.588	28131
821.728	28086
821.868	27983
822.008	27903
822.149	27937
822.289	27743
822.429	27576
822.569	27534
822.709	27393
822.849	27473
822.99	27332
823.13	27249
823.27	27272
823.41	27135
823.55	27051
823.69	27176
823.83	27096
823.97	27093
824.11	26914
824.25	26929
824.389	26960
824.529	26975
824.669	26998
824.809	27142
824.949	27036
825.089	26952
825.228	27039
825.368	26883
825.508	26781
825.648	26910
825.787	26948
825.927	27001
826.067	26819
826.206	26804
826.346	26883
826.485	26868
826.625	26800
826.765	26743
826.904	26906
827.044	26629
827.183	26499
827.323	26571
827.462	26526
827.601	26488
827.741	26556
827.88	26568
828.02	26396
828.159	26533
828.298	26552
828.437	26621
828.577	26488
828.716	26602
828.855	26492
828.994	26324
829.134	26229
829.273	26157
829.412	26195
829.551	26092
829.69	26225
829.829	26275
829.968	26282
830.107	26221
830.246	26153
830.385	26035
830.524	26103
830.663	26180
830.802	25913
830.941	25670
831.08	25807
831.219	25936
831.357	25947
831.496	26183
831.635	25814
831.774	25837
831.913	25696
832.051	25624
832.19	25605
832.329	25655
832.467	25529
832.606	25388
832.744	25468
832.883	25548
833.022	25346
833.16	25449
833.299	25597
833.437	25571
833.576	25529
833.714	25495
833.852	25556
833.991	25632
834.129	25704
834.267	25742
834.406	25761
834.544	25483
834.682	25620
834.821	25552
834.959	25658
835.097	25499
835.235	25609
835.373	25499
835.511	25575
835.65	25388
835.788	25430
835.926	25312
836.064	25217
836.202	25293
836.34	25449
836.478	25495
836.615	25419
836.753	25441
836.891	25324
837.029	25373
837.167	25289
837.305	25187
837.443	25240
837.58	25202
837.718	25301
837.856	25183
837.993	25126
838.131	25263
838.269	25129
838.406	25133
838.544	24985
838.681	24909
838.819	24749
838.956	24741
839.094	24639
839.231	24787
839.369	24966
839.506	24992
839.643	24856
839.781	24707
839.918	24719
840.055	24665
840.193	24551
840.33	24631
840.467	24521
840.604	24623
840.742	24829
840.879	24464
841.016	24483
841.153	24547
841.29	24700
841.427	24475
841.564	24467
841.701	24513
841.838	24604
841.975	24369
842.112	24369
842.249	24334
842.385	24281
842.522	24509
842.659	24502
842.796	24388
842.933	24380
843.069	24304
843.206	24205
843.343	24388
843.479	24365
843.616	24460
843.752	24095
843.889	24057
844.025	24239
844.162	24102
844.298	24220
844.435	24095
844.571	24022
844.708	24091
844.844	24194
844.98	24327
845.117	24197
845.253	24144
845.389	23992
845.525	24041
845.661	23958
845.798	23798
845.934	23927
846.07	23885
846.206	23828
846.342	23889
846.478	23809
846.614	23562
846.75	23455
846.886	23474
847.022	23703
847.158	23638
847.294	23592
847.429	23710
847.565	23539
847.701	23737
847.837	23326
847.972	23322
848.108	23360
848.244	23406
848.379	23239
848.515	23170
848.65	23181
848.786	23079
848.921	23189
849.057	23292
849.192	23318
849.328	23212
849.463	23223
849.598	23124
849.734	23094
849.869	22972
850.004	22923
850.14	22938
850.275	22889
850.41	22809
850.545	22965
850.68	22984
850.815	22896
850.95	22869
851.085	23102
851.22	23083
851.355	23025
851.49	22847
851.625	22778
851.76	22862
851.895	22759
852.03	22908
852.165	22938
852.299	22991
852.434	22923
852.569	23029
852.703	22847
852.838	22984
852.973	23018
853.107	22957
853.242	22957
853.376	22736
853.511	22649
853.645	22683
853.78	22835
853.914	22854
854.048	22607
854.183	22664
854.317	22809
854.451	22919
854.585	22797
854.72	22755
854.854	22858
854.988	22778
855.122	22599
855.256	22611
855.39	22774
855.524	22877
855.658	22828
855.792	22721
855.926	22649
856.06	22809
856.194	22763
856.327	22694
856.461	22618
856.595	22771
856.729	22759
856.862	22949
856.996	22828
857.13	22710
857.263	22790
857.397	22892
857.53	22839
857.664	22698
857.797	22812
857.931	22946
858.064	22713
858.197	22900
858.331	22782
858.464	22497
858.597	22752
858.731	22763
858.864	22607
858.997	22611
859.13	22763
859.263	22706
859.396	22793
859.529	22771
859.662	22637
859.795	22649
859.928	22835
860.061	22824
860.194	22919
860.327	22687
860.46	22801
860.592	22801
860.725	22911
860.858	22889
860.99	22847
861.123	22538
861.256	22656
861.388	22660
861.521	23410
861.653	22630
861.786	22535
861.918	22466
862.05	22516
862.183	22592
862.315	22721
862.447	22759
862.58	22653
862.712	22569
862.844	22474
862.976	22554
863.108	22504
863.24	22942
863.372	22394
863.504	22478
863.636	22516
863.768	22493
863.9	22341
864.032	22462
864.164	22356
864.296	22367
864.428	22542
864.559	22375
864.691	22527
864.823	22363
864.954	22318
865.086	22337
865.217	22230
865.349	22318
865.48	22284
865.612	22356
865.743	22443
865.875	22261
866.006	22173
866.137	22280
866.269	22291
866.4	22272
866.531	22181
866.662	22219
866.793	22291
866.924	22268
867.055	22257
867.186	22318
867.317	22253
867.448	22147
867.579	22242
867.71	22131
867.841	22192
867.972	22261
868.103	22291
868.233	22223
868.364	22261
868.495	22284
868.625	22424
868.756	22691
868.886	22443
869.017	22573
869.147	22440
869.278	22649
869.408	22402
869.539	22447
869.669	22641
869.799	22489
869.929	22611
870.06	22573
870.19	22698
870.32	22801
870.45	22896
870.58	22736
870.71	22927
870.84	22911
870.97	22889
871.1	22831
871.23	22957
871.36	23037
871.489	22961
871.619	23022
871.749	23098
871.879	23090
872.008	23143
872.138	23136
872.267	23170
872.397	22968
872.526	22934
872.656	22885
872.785	22980
872.915	23128
873.044	23227
873.173	23064
873.303	23109
873.432	23102
873.561	23143
873.69	23124
873.819	23147
873.948	23102
874.077	23075
874.206	23155
874.335	23067
874.464	23166
874.593	23204
874.722	23288
874.851	23292
874.979	23372
875.108	23429
875.237	23265
875.365	23231
875.494	23174
875.623	23341
875.751	23235
875.88	23296
876.008	23417
876.136	23414
876.265	23733
876.393	23756
876.521	23859
876.65	23752
876.778	23733
876.906	23665
877.034	23661
877.162	23722
877.29	23611
877.418	23752
877.546	23733
877.674	23581
877.802	23676
877.93	23661
878.058	23760
878.185	23471
878.313	23623
878.441	23531
878.568	23543
878.696	23600
878.824	23703
878.951	23653
879.079	23798
879.206	23992
879.333	23828
879.461	23703
879.588	23828
879.715	23828
879.842	23908
879.97	23760
880.097	23493
880.224	23395
880.351	23474
880.478	23486
880.605	23505
880.732	23452
880.859	23634
880.986	23497
881.112	23543
881.239	23280
881.366	23143
881.493	23094
881.619	22976
881.746	22991
881.872	22923
881.999	22999
882.125	22984
882.252	23041
882.378	22965
882.505	23121
882.631	22873
882.757	22713
882.883	22793
883.01	22656
883.136	22550
883.262	22672
883.388	22542
883.514	22691
883.64	22801
883.766	22675
883.892	22398
884.018	22379
884.143	22546
884.269	22812
884.395	22447
884.52	22268
884.646	22405
884.772	22337
884.897	22097
885.023	22185
885.148	22432
885.274	22428
885.399	22375
885.524	22379
885.65	22306
885.775	22337
885.9	22417
886.025	22348
886.15	22402
886.275	22318
886.4	22310
886.525	22253
886.65	22188
886.775	22185
886.9	22402
887.025	22489
887.149	22261
887.274	22105
887.399	22090
887.523	22078
887.648	21960
887.773	22032
887.897	22226
888.021	22162
888.146	22059
888.27	22074
888.395	22101
888.519	22166
888.643	22055
888.767	22120
888.891	22070
889.015	21934
889.139	21876
889.263	21937
889.387	22010
889.511	22101
889.635	22097
889.759	21892
889.883	21873
890.006	21861
890.13	21964
890.254	21789
890.377	21778
890.501	21561
890.624	21603
890.748	21679
890.871	21450
890.995	21321
891.118	21370
891.241	21454
891.364	21424
891.488	21519
891.611	21302
891.734	21447
891.857	21416
891.98	21351
892.103	21523
892.226	21443
892.349	21443
892.471	21321
892.594	21416
892.717	21344
892.839	21317
892.962	21355
893.085	21344
893.207	21275
893.33	21135
893.452	21207
893.575	21348
893.697	21245
893.819	21412
893.941	21542
894.064	21416
894.186	21203
894.308	21222
894.43	21397
894.552	21389
894.674	21325
894.796	21195
894.918	21287
895.04	21252
895.161	21317
895.283	21283
895.405	21116
895.526	21283
895.648	21180
895.769	21268
895.891	21313
896.012	21389
896.134	21256
896.255	21332
896.376	21199
896.498	21268
896.619	21348
896.74	21245
896.861	21298
896.982	21644
897.103	21652
897.224	21576
897.345	21519
897.466	21378
897.587	21443
897.708	21492
897.828	21469
897.949	21443
898.07	21340
898.19	21420
898.311	21523
898.431	21397
898.552	21500
898.672	21515
898.792	21439
898.913	21386
899.033	21431
899.153	21313
899.273	21226
899.393	21199
899.513	21340
899.633	21207
899.753	21233
899.873	21165
899.993	21096
900.113	21074
900.232	21211
900.352	21116
900.472	20960
900.591	20998
900.711	21017
900.83	20834
900.95	20998
901.069	21028
901.189	20739
901.308	20655
901.427	20499
901.546	20545
901.665	20587
901.784	20560
901.904	20343
902.023	20290
902.141	20138
902.26	20031
902.379	20206
902.498	20069
902.617	20081
902.735	20039
902.854	20046
902.973	19849
903.091	19731
903.21	19632
903.328	19723
903.446	19651
903.565	19552
903.683	19502
903.801	19346
903.919	19365
904.038	19415
904.156	19225
904.274	19346
904.392	19251
904.51	19160
904.627	19282
904.745	19247
904.863	19270
904.981	19000
905.098	18863
905.216	18989
905.334	18962
905.451	19004
905.569	18943
905.686	18814
905.803	18852
905.921	18696
906.038	18833
906.155	18779
906.272	18658
906.389	18582
906.506	18467
906.623	18414
906.74	18346
906.857	18285
906.974	18334
907.091	18380
907.208	18559
907.324	18456
907.441	18292
907.557	18209
907.674	18125
907.79	18068
907.907	18087
908.023	18079
908.139	18216
908.256	18133
908.372	18110
908.488	17973
908.604	17889
908.72	17851
908.836	17855
908.952	17802
909.068	17939
909.184	17912
909.3	17790
909.415	17836
909.531	17802
909.647	17562
909.762	17532
909.878	17459
909.993	17596
910.108	17577
910.224	17391
910.339	17642
910.454	17356
910.57	17387
910.685	17299
910.8	17524
910.915	17463
911.03	17292
911.145	17155
911.259	17083
911.374	17174
911.489	17003
911.604	17010
911.718	16896
911.833	16911
911.947	16752
912.062	16809
912.176	16900
912.291	16847
912.405	16729
912.519	17045
912.633	17075
912.748	16930
912.862	16801
912.976	16622
913.09	16641
913.204	16546
913.318	16679
913.431	16721
913.545	16752
913.659	16748
913.772	16607
913.886	16523
914	16519
914.113	16478
914.226	16451
914.34	16440
914.453	16318
914.566	16466
914.68	16295
914.793	16265
914.906	16055
915.019	16086
915.132	15987
915.245	15975
915.358	16105
915.47	16139
915.583	16059
915.696	16071
915.809	16143
915.921	16071
916.034	15956
916.146	15941
916.259	15850
916.371	16029
916.483	15934
916.595	15812
916.708	15831
916.82	15804
916.932	15705
917.044	15781
917.156	15865
917.268	15641
917.38	15641
917.491	15637
917.603	15671
917.715	15717
917.826	15770
917.938	15561
918.049	15485
918.161	15526
918.272	15739
918.384	15618
918.495	15614
918.606	15405
918.717	15355
918.828	15336
918.939	15439
919.05	15241
919.161	15351
919.272	15123
919.383	15226
919.494	15351
919.604	15564
919.715	15340
919.826	15192
919.936	15298
920.047	15382
920.157	15458
920.267	15526
920.378	15332
920.488	15302
920.598	15458
920.708	15587
920.818	15454
920.928	15477
921.038	15663
921.148	15549
921.258	15268
921.368	15154
921.477	15093
921.587	15028
921.697	14849
921.806	15062
921.916	14921
922.025	14796
922.134	14571
922.244	14693
922.353	14655
922.462	14621
922.571	14533
922.68	14374
922.789	14351
922.898	14248
923.007	14309
923.116	14347
923.224	14366
923.333	14202
923.442	14092
923.55	14107
923.659	14195
923.767	14206
923.876	14050
923.984	14221
924.092	14043
924.201	14088
924.309	13993
924.417	14054
924.525	13864
924.633	14027
924.741	14956
924.849	13750
924.956	13959
925.064	13742
925.172	13605
925.279	13601
925.387	13780
925.494	13700
925.602	13742
925.709	13731
925.816	13578
925.924	13628
926.031	13693
926.138	13616
926.245	13685
926.352	13480
926.459	13658
926.566	13700
926.673	13590
926.779	13384
926.886	13518
926.993	13316
927.099	13274
927.206	13190
927.312	13152
927.419	13206
927.525	13244
927.631	13236
927.737	13072
927.843	13008
927.95	12981
928.056	13080
928.162	13103
928.267	13034
928.373	13662
928.479	13088
928.585	12779
928.69	12958
928.796	13015
928.901	12852
929.007	12768
929.112	12905
929.218	12821
929.323	12791
929.428	12840
929.533	12798
929.638	12730
929.743	12726
929.848	12726
929.953	12639
930.058	12642
930.163	12338
930.267	12407
930.372	12532
930.477	12388
930.581	12585
930.685	12407
930.79	12289
930.894	12285
930.998	12327
931.103	12391
931.207	12022
931.311	11996
931.415	11828
931.519	11665
931.623	11608
