Data from test_V78500241_3679.txt Node
Date: Fri Mar 25 16:07:17 CST 2022
User: usil
Spectrometer: V785-0024
Trigger mode: 0
Integration Time (sec): 4.000000E-1
Scans to average: 1
Nonlinearity correction enabled: false
Boxcar width: 0
Storing dark spectrum: false
XAxis mode: Wavelengths
Number of Pixels in Spectrum: 1024
>>>>>Begin Spectral Data<<<<<
801.071	28162
801.214	27960
801.356	27876
801.499	27800
801.641	27633
801.783	27652
801.926	27800
802.068	27720
802.211	27504
802.353	27633
802.496	27397
802.638	27313
802.78	27310
802.923	27298
803.065	27188
803.208	27291
803.35	27302
803.492	27435
803.635	27622
803.777	27458
803.919	27629
804.061	27926
804.204	27504
804.346	27435
804.488	27378
804.63	27435
804.773	27568
804.915	27618
805.057	27595
805.199	27500
805.341	27523
805.483	27667
805.626	27618
805.768	27523
805.91	27660
806.052	27709
806.194	27663
806.336	27838
806.478	27599
806.62	27652
806.762	27789
806.904	27953
807.046	28211
807.188	28150
807.33	28200
807.472	28090
807.614	27930
807.756	28032
807.898	27953
808.04	27911
808.182	27854
808.324	28036
808.465	28029
808.607	28169
808.749	28337
808.891	28550
809.033	28356
809.174	28356
809.316	28417
809.458	28443
809.6	28268
809.741	28382
809.883	28497
810.025	28546
810.166	28546
810.308	28634
810.45	28478
810.591	28470
810.733	28519
810.875	28352
811.016	28287
811.158	28128
811.299	28230
811.441	28504
811.582	28519
811.724	28348
811.865	28291
812.007	28253
812.148	28284
812.29	28447
812.431	28531
812.573	28569
812.714	28752
812.855	28763
812.997	28999
813.138	28972
813.279	29018
813.421	28877
813.562	28736
813.703	28519
813.845	28516
813.986	28150
814.127	28219
814.268	28025
814.41	27979
814.551	28021
814.692	28124
814.833	27960
814.974	27880
815.115	28051
815.256	27941
815.397	27831
815.539	27899
815.68	27766
815.821	27781
815.962	27732
816.103	27736
816.244	27675
816.385	27500
816.526	27523
816.666	27275
816.807	27157
816.948	27405
817.089	27447
817.23	27317
817.371	27279
817.512	27382
817.653	27340
817.793	27192
817.934	27203
818.075	27268
818.216	27283
818.356	27195
818.497	27203
818.638	27089
818.778	27112
818.919	27150
819.06	27081
819.2	27207
819.341	27355
819.481	27466
819.622	27549
819.762	27751
819.903	27427
820.043	27504
820.184	27367
820.324	27332
820.465	27424
820.605	27370
820.746	27435
820.886	27279
821.026	27378
821.167	27351
821.307	27496
821.447	27355
821.588	27161
821.728	27154
821.868	27024
822.008	26807
822.149	26720
822.289	26773
822.429	26674
822.569	26427
822.709	26355
822.849	26275
822.99	26218
823.13	26370
823.27	26122
823.41	26107
823.55	25955
823.69	26020
823.83	25974
823.97	26081
824.11	25898
824.25	25986
824.389	26043
824.529	25959
824.669	25963
824.809	26008
824.949	26005
825.089	26043
825.228	25860
825.368	25791
825.508	25841
825.648	25731
825.787	25803
825.927	25947
826.067	25871
826.206	25807
826.346	25909
826.485	25947
826.625	25791
826.765	25921
826.904	25833
827.044	25563
827.183	25525
827.323	25529
827.462	25464
827.601	25556
827.741	25415
827.88	25575
828.02	25403
828.159	25582
828.298	25552
828.437	25502
828.577	25460
828.716	25601
828.855	25502
828.994	25190
829.134	25206
829.273	25274
829.412	25175
829.551	25072
829.69	25278
829.829	25228
829.968	25358
830.107	25415
830.246	25293
830.385	25213
830.524	25141
830.663	24970
830.802	24981
830.941	24779
831.08	24875
831.219	24920
831.357	24951
831.496	24989
831.635	24703
831.774	24768
831.913	24791
832.051	24601
832.19	24566
832.329	24642
832.467	24536
832.606	24437
832.744	24437
832.883	24426
833.022	24475
833.16	24407
833.299	24505
833.437	24612
833.576	24490
833.714	24574
833.852	24620
833.991	24551
834.129	24779
834.267	24654
834.406	24711
834.544	24479
834.682	24597
834.821	24486
834.959	24719
835.097	24498
835.235	24544
835.373	24486
835.511	24513
835.65	24372
835.788	24410
835.926	24277
836.064	24209
836.202	24308
836.34	24388
836.478	24399
836.615	24232
836.753	24323
836.891	24502
837.029	24357
837.167	24266
837.305	24262
837.443	24243
837.58	24254
837.718	24292
837.856	24174
837.993	24140
838.131	24258
838.269	23958
838.406	24251
838.544	24079
838.681	23885
838.819	23908
838.956	23638
839.094	23676
839.231	23722
839.369	23798
839.506	24155
839.643	23824
839.781	23630
839.918	23619
840.055	23680
840.193	23668
840.33	23585
840.467	23611
840.604	23581
840.742	23863
840.879	23421
841.016	23577
841.153	23516
841.29	23570
841.427	23573
841.564	23627
841.701	23668
841.838	23589
841.975	23436
842.112	23440
842.249	23455
842.385	23364
842.522	23623
842.659	23425
842.796	23474
842.933	23421
843.069	23356
843.206	23288
843.343	23414
843.479	23353
843.616	23414
843.752	23303
843.889	23079
844.025	23318
844.162	22949
844.298	23242
844.435	23044
844.571	22984
844.708	23166
844.844	23326
844.98	23212
845.117	23265
845.253	23033
845.389	23037
845.525	23075
845.661	22923
845.798	22801
845.934	22790
846.07	22866
846.206	22942
846.342	22995
846.478	22972
846.614	22584
846.75	22512
846.886	22569
847.022	22656
847.158	22668
847.294	22664
847.429	22519
847.565	22565
847.701	22786
847.837	22447
847.972	22131
848.108	22440
848.244	22402
848.379	22287
848.515	22196
848.65	22109
848.786	22215
848.921	22166
849.057	22405
849.192	22322
849.328	22257
849.463	22154
849.598	22109
849.734	22002
849.869	22006
850.004	21930
850.14	21979
850.275	21915
850.41	21907
850.545	21876
850.68	21880
850.815	21953
850.95	22040
851.085	22093
851.22	22116
851.355	22021
851.49	21926
851.625	21888
851.76	21987
851.895	21838
852.03	21797
852.165	22067
852.299	22006
852.434	22059
852.569	22021
852.703	22051
852.838	22055
852.973	22078
853.107	22025
853.242	21949
853.376	21770
853.511	21530
853.645	21762
853.78	21850
853.914	21800
854.048	21709
854.183	21762
854.317	21781
854.451	22101
854.585	21663
854.72	21823
854.854	21816
854.988	21610
855.122	21671
855.256	21698
855.39	21819
855.524	21846
855.658	21823
855.792	21720
855.926	21682
856.06	21831
856.194	21903
856.327	21724
856.461	21759
856.595	21660
856.729	21816
856.862	21797
856.996	21739
857.13	21778
857.263	21918
857.397	21918
857.53	21812
857.664	21781
857.797	21915
857.931	21831
858.064	21827
858.197	21899
858.331	21759
858.464	21724
858.597	21591
858.731	21625
858.864	21743
858.997	21759
859.13	21778
859.263	21800
859.396	21797
859.529	21759
859.662	21755
859.795	21644
859.928	21770
860.061	21838
860.194	21975
860.327	21747
860.46	21808
860.592	21949
860.725	21941
860.858	21846
860.99	21713
861.123	21652
861.256	21667
861.388	21698
861.521	22436
861.653	21679
861.786	21583
861.918	21671
862.05	21675
862.183	21709
862.315	21732
862.447	21759
862.58	21736
862.712	21496
862.844	21504
862.976	21606
863.108	21603
863.24	21979
863.372	21363
863.504	21485
863.636	21599
863.768	21614
863.9	21496
864.032	21435
864.164	21420
864.296	21519
864.428	21606
864.559	21694
864.691	21583
864.823	21545
864.954	21466
865.086	21458
865.217	21435
865.349	21325
865.48	21359
865.612	21325
865.743	21507
865.875	21264
866.006	21287
866.137	21393
866.269	21367
866.4	21408
866.531	21150
866.662	21336
866.793	21291
866.924	21317
867.055	21325
867.186	21313
867.317	21321
867.448	21237
867.579	21161
867.71	21165
867.841	21245
867.972	21431
868.103	21351
868.233	21397
868.364	21351
868.495	21431
868.625	21610
868.756	21705
868.886	21428
869.017	21553
869.147	21629
869.278	21755
869.408	21591
869.539	21564
869.669	21720
869.799	21675
869.929	21739
870.06	21766
870.19	21823
870.32	21785
870.45	21739
870.58	21918
870.71	22048
870.84	22036
870.97	21903
871.1	21991
871.23	22120
871.36	22188
871.489	22131
871.619	22082
871.749	22021
871.879	22150
872.008	22287
872.138	22185
872.267	22082
872.397	22128
872.526	22006
872.656	21930
872.785	21975
872.915	22185
873.044	22185
873.173	22276
873.303	22242
873.432	22200
873.561	22257
873.69	22306
873.819	22135
873.948	22234
874.077	22341
874.206	22078
874.335	22116
874.464	22325
874.593	22306
874.722	22428
874.851	22508
874.979	22413
875.108	22341
875.237	22333
875.365	22211
875.494	22440
875.623	22394
875.751	22447
875.88	22417
876.008	22523
876.136	22508
876.265	22812
876.393	22927
876.521	22850
876.65	22934
876.778	22782
876.906	22850
877.034	22790
877.162	22782
877.29	22634
877.418	22752
877.546	22790
877.674	22763
877.802	22755
877.93	22828
878.058	22752
878.185	22603
878.313	22725
878.441	22649
878.568	22599
878.696	22706
878.824	22744
878.951	22877
879.079	22953
879.206	22984
879.333	22942
879.461	22900
879.588	22805
879.715	22980
879.842	23086
879.97	22767
880.097	22592
880.224	22527
880.351	22478
880.478	22615
880.605	22569
880.732	22645
880.859	22911
880.986	22580
881.112	22596
881.239	22363
881.366	22379
881.493	22234
881.619	22207
881.746	22185
881.872	22188
881.999	22048
882.125	22105
882.252	22314
882.378	22139
882.505	22223
882.631	21953
882.757	21812
882.883	21854
883.01	21876
883.136	21694
883.262	21694
883.388	21675
883.514	21732
883.64	21827
883.766	21675
883.892	21587
884.018	21614
884.143	21823
884.269	21774
884.395	21469
884.52	21408
884.646	21416
884.772	21447
884.897	21329
885.023	21393
885.148	21545
885.274	21728
885.399	21660
885.524	21488
885.65	21477
885.775	21519
885.9	21492
886.025	21580
886.15	21610
886.275	21450
886.4	21340
886.525	21473
886.65	21237
886.775	21454
886.9	21485
887.025	21686
887.149	21481
887.274	21317
887.399	21241
887.523	21214
887.648	21256
887.773	21062
887.897	21230
888.021	21264
888.146	21043
888.27	21272
888.395	21393
888.519	21252
888.643	21252
888.767	21230
888.891	21233
889.015	21077
889.139	21135
889.263	21017
889.387	21157
889.511	21275
889.635	21203
889.759	20944
889.883	21043
890.006	21032
890.13	21039
890.254	20971
890.377	20891
890.501	20834
890.624	20815
890.748	20804
890.871	20727
890.995	20613
891.118	20495
891.241	20590
891.364	20568
891.488	20625
891.611	20518
891.734	20602
891.857	20746
891.98	20686
892.103	20712
892.226	20499
892.349	20457
892.471	20328
892.594	20568
892.717	20415
892.839	20518
892.962	20609
893.085	20530
893.207	20507
893.33	20351
893.452	20400
893.575	20526
893.697	20419
893.819	20598
893.941	20731
894.064	20598
894.186	20503
894.308	20438
894.43	20503
894.552	20625
894.674	20655
894.796	20355
894.918	20473
895.04	20457
895.161	20549
895.283	20488
895.405	20499
895.526	20526
895.648	20518
895.769	20590
895.891	20564
896.012	20564
896.134	20454
896.255	20476
896.376	20385
896.498	20476
896.619	20507
896.74	20492
896.861	20488
896.982	20762
897.103	20944
897.224	20598
897.345	20792
897.466	20625
897.587	20670
897.708	20762
897.828	20743
897.949	20533
898.07	20552
898.19	20644
898.311	20754
898.431	20739
898.552	20617
898.672	20800
898.792	20739
898.913	20712
899.033	20579
899.153	20549
899.273	20423
899.393	20431
899.513	20358
899.633	20446
899.753	20503
899.873	20400
899.993	20362
900.113	20370
900.232	20446
900.352	20362
900.472	20267
900.591	20206
900.711	20244
900.83	20202
900.95	20256
901.069	20206
901.189	20043
901.308	19875
901.427	19799
901.546	19814
901.665	19852
901.784	19833
901.904	19639
902.023	19586
902.141	19407
902.26	19301
902.379	19510
902.498	19278
902.617	19190
902.735	19293
902.854	19282
902.973	19198
903.091	19038
903.21	18947
903.328	18909
903.446	18882
903.565	18848
903.683	18776
903.801	18661
903.919	18639
904.038	18711
904.156	18483
904.274	18604
904.392	18502
904.51	18589
904.627	18528
904.745	18506
904.863	18616
904.981	18266
905.098	18129
905.216	18262
905.334	18235
905.451	18201
905.569	18148
905.686	18194
905.803	18163
905.921	18095
906.038	18087
906.155	17954
906.272	17927
906.389	17901
906.506	17767
906.623	17756
906.74	17760
906.857	17573
906.974	17714
907.091	17748
907.208	17847
907.324	17767
907.441	17562
907.557	17509
907.674	17410
907.79	17391
907.907	17356
908.023	17459
908.139	17356
908.256	17436
908.372	17227
908.488	17337
908.604	17216
908.72	17045
908.836	17166
908.952	17075
909.068	17223
909.184	17220
909.3	17231
909.415	17193
909.531	17147
909.647	16972
909.762	16946
909.878	16862
909.993	16999
910.108	16835
910.224	16790
910.339	16771
910.454	16713
910.57	16668
910.685	16630
910.8	16736
910.915	16885
911.03	16691
911.145	16497
911.259	16470
911.374	16599
911.489	16329
911.604	16386
911.718	16158
911.833	16211
911.947	16112
912.062	16101
912.176	16234
912.291	16226
912.405	16261
912.519	16394
912.633	16325
912.748	16246
912.862	16249
912.976	16048
913.09	16006
913.204	15972
913.318	15991
913.431	16215
913.545	16082
913.659	16223
913.772	16025
913.886	15907
914	15842
914.113	15884
914.226	16002
914.34	15945
914.453	15789
914.566	15911
914.68	15732
914.793	15698
914.906	15485
915.019	15439
915.132	15401
915.245	15462
915.358	15542
915.47	15450
915.583	15530
915.696	15507
915.809	15663
915.921	15572
916.034	15329
916.146	15382
916.259	15313
916.371	15431
916.483	15428
916.595	15252
916.708	15214
916.82	15211
916.932	15192
917.044	15287
917.156	15264
917.268	15058
917.38	15100
917.491	15161
917.603	15157
917.715	15184
917.826	15188
917.938	14933
918.049	14796
918.161	14971
918.272	15161
918.384	15131
918.495	15051
918.606	14845
918.717	14807
918.828	14804
918.939	14891
919.05	14758
919.161	14792
919.272	14564
919.383	14720
919.494	14819
919.604	15062
919.715	14937
919.826	14739
919.936	14651
920.047	14857
920.157	14788
920.267	15013
920.378	14819
920.488	14739
920.598	14948
920.708	14990
920.818	14925
920.928	14933
921.038	15135
921.148	15100
921.258	14686
921.368	14686
921.477	14590
921.587	14594
921.697	14396
921.806	14484
921.916	14400
922.025	14214
922.134	14210
922.244	14187
922.353	14267
922.462	14081
922.571	14027
922.68	13852
922.789	13738
922.898	13830
923.007	13799
923.116	13833
923.224	13738
923.333	13742
923.442	13738
923.55	13616
923.659	13746
923.767	13727
923.876	13499
923.984	13704
924.092	13556
924.201	13571
924.309	13502
924.417	13533
924.525	13422
924.633	13445
924.741	14351
924.849	13297
924.956	13365
925.064	13190
925.172	13133
925.279	13107
925.387	13187
925.494	13175
925.602	13381
925.709	13327
925.816	13149
925.924	13183
926.031	13213
926.138	13110
926.245	13228
926.352	13095
926.459	13088
926.566	13213
926.673	13137
926.779	12966
926.886	12894
926.993	12825
927.099	12768
927.206	12764
927.312	12719
927.419	12833
927.525	12753
927.631	12688
927.737	12753
927.843	12642
927.95	12448
928.056	12555
928.162	12593
928.267	12760
928.373	13320
928.479	12650
928.585	12479
928.69	12502
928.796	12620
928.901	12475
929.007	12277
929.112	12483
929.218	12429
929.323	12342
929.428	12437
929.533	12395
929.638	12216
929.743	12232
929.848	12338
929.953	12262
930.058	12003
930.163	12026
930.267	12060
930.372	12167
930.477	11950
930.581	12098
930.685	11992
930.79	11893
930.894	11882
930.998	11760
931.103	11942
931.207	11627
931.311	11501
931.415	11478
931.519	11334
931.623	11254
