Data from test_V78500241_2104.txt Node
Date: Fri Mar 25 15:56:22 CST 2022
User: usil
Spectrometer: V785-0024
Trigger mode: 0
Integration Time (sec): 4.000000E-1
Scans to average: 1
Nonlinearity correction enabled: false
Boxcar width: 0
Storing dark spectrum: false
XAxis mode: Wavelengths
Number of Pixels in Spectrum: 1024
>>>>>Begin Spectral Data<<<<<
801.071	28919
801.214	28904
801.356	28626
801.499	28637
801.641	28653
801.783	28470
801.926	28519
802.068	28557
802.211	28577
802.353	28318
802.496	28303
802.638	28299
802.78	28135
802.923	28093
803.065	28169
803.208	28280
803.35	28242
803.492	28352
803.635	28478
803.777	28382
803.919	28512
804.061	28733
804.204	28542
804.346	28390
804.488	28291
804.63	28531
804.773	28329
804.915	28767
805.057	28797
805.199	28413
805.341	28516
805.483	28603
805.626	28603
805.768	28504
805.91	28557
806.052	28668
806.194	28630
806.336	28691
806.478	28683
806.62	28710
806.762	28786
806.904	29037
807.046	29022
807.188	28976
807.33	29220
807.472	29117
807.614	29025
807.756	29029
807.898	28881
808.04	28877
808.182	29044
808.324	28995
808.465	29166
808.607	29181
808.749	29383
808.891	29383
809.033	29459
809.174	29395
809.316	29334
809.458	29216
809.6	29455
809.741	29528
809.883	29528
810.025	29558
810.166	29672
810.308	29608
810.45	29486
810.591	29516
810.733	29501
810.875	29410
811.016	29303
811.158	29254
811.299	29440
811.441	29562
811.582	29341
811.724	29402
811.865	29280
812.007	29330
812.148	29326
812.29	29455
812.431	29665
812.573	29786
812.714	29840
812.855	29862
812.997	29802
813.138	30079
813.279	30079
813.421	30026
813.562	29729
813.703	29687
813.845	29509
813.986	29330
814.127	29109
814.268	29029
814.41	29162
814.551	29018
814.692	29117
814.833	28984
814.974	28972
815.115	29067
815.256	29010
815.397	28820
815.539	29041
815.68	28965
815.821	28744
815.962	28881
816.103	28828
816.244	28736
816.385	28626
816.526	28634
816.666	28352
816.807	28356
816.948	28352
817.089	28603
817.23	28451
817.371	28405
817.512	28291
817.653	28382
817.793	28322
817.934	28436
818.075	28276
818.216	28348
818.356	28348
818.497	28310
818.638	28070
818.778	28124
818.919	28135
819.06	28143
819.2	28291
819.341	28287
819.481	28478
819.622	28611
819.762	28797
819.903	28645
820.043	28656
820.184	28626
820.324	28474
820.465	28428
820.605	28584
820.746	28546
820.886	28485
821.026	28538
821.167	28489
821.307	28645
821.447	28596
821.588	28230
821.728	28124
821.868	28044
822.008	27739
822.149	27797
822.289	27759
822.429	27656
822.569	27492
822.709	27500
822.849	27294
822.99	27408
823.13	27351
823.27	27131
823.41	27150
823.55	27017
823.69	27199
823.83	27302
823.97	27249
824.11	27039
824.25	27020
824.389	26986
824.529	27138
824.669	27005
824.809	27188
824.949	27093
825.089	27066
825.228	27207
825.368	26899
825.508	27093
825.648	26925
825.787	26868
825.927	27112
826.067	26872
826.206	26902
826.346	26994
826.485	26876
826.625	26823
826.765	27077
826.904	26971
827.044	26712
827.183	26701
827.323	26613
827.462	26826
827.601	26636
827.741	26590
827.88	26686
828.02	26606
828.159	26533
828.298	26686
828.437	26701
828.577	26488
828.716	26533
828.855	26522
828.994	26415
829.134	26324
829.273	26343
829.412	26328
829.551	26309
829.69	26415
829.829	26339
829.968	26492
830.107	26320
830.246	26294
830.385	26263
830.524	26240
830.663	26161
830.802	26092
830.941	25928
831.08	25864
831.219	25966
831.357	25966
831.496	26119
831.635	25925
831.774	26005
831.913	25830
832.051	25715
832.19	25753
832.329	25700
832.467	25651
832.606	25666
832.744	25525
832.883	25510
833.022	25624
833.16	25628
833.299	25666
833.437	25518
833.576	25723
833.714	25696
833.852	25655
833.991	25837
834.129	25742
834.267	25708
834.406	25628
834.544	25662
834.682	25753
834.821	25662
834.959	25769
835.097	25616
835.235	25685
835.373	25643
835.511	25731
835.65	25521
835.788	25521
835.926	25327
836.064	25263
836.202	25308
836.34	25453
836.478	25419
836.615	25441
836.753	25453
836.891	25392
837.029	25350
837.167	25324
837.305	25396
837.443	25392
837.58	25403
837.718	25354
837.856	25259
837.993	25320
838.131	25316
838.269	25110
838.406	25324
838.544	25061
838.681	24924
838.819	24928
838.956	24753
839.094	24791
839.231	24726
839.369	24909
839.506	25118
839.643	25057
839.781	24806
839.918	24749
840.055	24719
840.193	24779
840.33	24749
840.467	24654
840.604	24730
840.742	24829
840.879	24574
841.016	24525
841.153	24433
841.29	24703
841.427	24623
841.564	24661
841.701	24616
841.838	24616
841.975	24429
842.112	24593
842.249	24505
842.385	24498
842.522	24749
842.659	24319
842.796	24395
842.933	24410
843.069	24323
843.206	24308
843.343	24582
843.479	24357
843.616	24418
843.752	24308
843.889	24201
844.025	24376
844.162	24148
844.298	24247
844.435	24110
844.571	24155
844.708	24186
844.844	24464
844.98	24285
845.117	24308
845.253	24121
845.389	24076
845.525	24110
845.661	24072
845.798	23847
845.934	24018
846.07	23855
846.206	23958
846.342	24030
846.478	23927
846.614	23729
846.75	23596
846.886	23589
847.022	23836
847.158	23657
847.294	23779
847.429	23653
847.565	23581
847.701	23771
847.837	23398
847.972	23284
848.108	23471
848.244	23402
848.379	23273
848.515	23303
848.65	23200
848.786	23193
848.921	23288
849.057	23288
849.192	23414
849.328	23273
849.463	23269
849.598	23261
849.734	23060
849.869	23242
850.004	22949
850.14	22949
850.275	22965
850.41	22923
850.545	22995
850.68	22999
850.815	23117
850.95	23048
851.085	23117
851.22	23083
851.355	22953
851.49	22999
851.625	22976
851.76	22953
851.895	22942
852.03	23018
852.165	22972
852.299	22927
852.434	23075
852.569	23033
852.703	22900
852.838	23037
852.973	23064
853.107	23181
853.242	23067
853.376	22900
853.511	22710
853.645	22816
853.78	22999
853.914	22896
854.048	22767
854.183	22713
854.317	22866
854.451	22976
854.585	22820
854.72	22740
854.854	22877
854.988	22729
855.122	22828
855.256	22713
855.39	22733
855.524	23006
855.658	22759
855.792	22854
855.926	22778
856.06	22889
856.194	22824
856.327	22839
856.461	22778
856.595	22847
856.729	22774
856.862	22847
856.996	22797
857.13	23006
857.263	22881
857.397	22866
857.53	22854
857.664	22801
857.797	22847
857.931	22911
858.064	22771
858.197	22923
858.331	22786
858.464	22649
858.597	22694
858.731	22828
858.864	22767
858.997	22839
859.13	22862
859.263	22911
859.396	22938
859.529	22877
859.662	22694
859.795	22710
859.928	22790
860.061	22965
860.194	23025
860.327	22877
860.46	22873
860.592	23010
860.725	23014
860.858	22984
860.99	22820
861.123	22797
861.256	22786
861.388	22923
861.521	23627
861.653	22748
861.786	22580
861.918	22611
862.05	22664
862.183	22801
862.315	22771
862.447	22816
862.58	22668
862.712	22402
862.844	22531
862.976	22546
863.108	22656
863.24	22892
863.372	22413
863.504	22485
863.636	22455
863.768	22584
863.9	22489
864.032	22421
864.164	22447
864.296	22481
864.428	22577
864.559	22447
864.691	22504
864.823	22470
864.954	22462
865.086	22455
865.217	22455
865.349	22348
865.48	22367
865.612	22318
865.743	22508
865.875	22382
866.006	22284
866.137	22341
866.269	22333
866.4	22390
866.531	22382
866.662	22341
866.793	22234
866.924	22192
867.055	22310
867.186	22424
867.317	22272
867.448	22055
867.579	22188
867.71	22348
867.841	22230
867.972	22295
868.103	22344
868.233	22318
868.364	22234
868.495	22398
868.625	22523
868.756	22691
868.886	22577
869.017	22603
869.147	22622
869.278	22675
869.408	22675
869.539	22508
869.669	22691
869.799	22592
869.929	22828
870.06	22599
870.19	22961
870.32	22873
870.45	22858
870.58	22824
870.71	22999
870.84	22934
870.97	22843
871.1	23044
871.23	23136
871.36	23128
871.489	22965
871.619	23128
871.749	23113
871.879	23094
872.008	23269
872.138	23105
872.267	23147
872.397	23052
872.526	22896
872.656	23037
872.785	22965
872.915	23124
873.044	23246
873.173	23261
873.303	23151
873.432	23231
873.561	23269
873.69	23200
873.819	23185
873.948	23307
874.077	23143
874.206	23193
874.335	23189
874.464	23204
874.593	23440
874.722	23379
874.851	23315
874.979	23471
875.108	23387
875.237	23334
875.365	23216
875.494	23269
875.623	23452
875.751	23296
875.88	23326
876.008	23493
876.136	23539
876.265	23764
876.393	23832
876.521	24003
876.65	23695
876.778	23775
876.906	23680
877.034	23657
877.162	23737
877.29	23668
877.418	23767
877.546	23653
877.674	23771
877.802	23817
877.93	23630
878.058	23604
878.185	23707
878.313	23611
878.441	23627
878.568	23459
878.696	23585
878.824	23703
878.951	23722
879.079	23923
879.206	23954
879.333	23866
879.461	23665
879.588	23863
879.715	23775
879.842	23946
879.97	23687
880.097	23509
880.224	23474
880.351	23592
880.478	23501
880.605	23387
880.732	23433
880.859	23695
880.986	23627
881.112	23585
881.239	23356
881.366	23250
881.493	23166
881.619	23189
881.746	23174
881.872	23170
881.999	23003
882.125	23102
882.252	23113
882.378	23014
882.505	23083
882.631	22987
882.757	22843
882.883	22782
883.01	22820
883.136	22637
883.262	22660
883.388	22599
883.514	22774
883.64	22839
883.766	22641
883.892	22443
884.018	22565
884.143	22710
884.269	22831
884.395	22459
884.52	22485
884.646	22649
884.772	22318
884.897	22322
885.023	22474
885.148	22360
885.274	22440
885.399	22504
885.524	22386
885.65	22436
885.775	22398
885.9	22428
886.025	22424
886.15	22599
886.275	22417
886.4	22367
886.525	22341
886.65	22261
886.775	22257
886.9	22428
887.025	22611
887.149	22360
887.274	22147
887.399	22268
887.523	22116
887.648	22196
887.773	22025
887.897	22249
888.021	22150
888.146	22105
888.27	22154
888.395	22291
888.519	22257
888.643	22093
888.767	22207
888.891	22044
889.015	21915
889.139	22067
889.263	21998
889.387	22101
889.511	22086
889.635	22120
889.759	21907
889.883	22010
890.006	21899
890.13	22044
890.254	21732
890.377	21812
890.501	21633
890.624	21652
890.748	21781
890.871	21671
890.995	21469
891.118	21431
891.241	21530
891.364	21519
891.488	21591
891.611	21477
891.734	21538
891.857	21538
891.98	21511
892.103	21473
892.226	21545
892.349	21435
892.471	21310
892.594	21401
892.717	21504
892.839	21359
892.962	21481
893.085	21351
893.207	21313
893.33	21329
893.452	21321
893.575	21401
893.697	21264
893.819	21492
893.941	21549
894.064	21496
894.186	21370
894.308	21245
894.43	21481
894.552	21481
894.674	21481
894.796	21348
894.918	21237
895.04	21245
895.161	21405
895.283	21310
895.405	21256
895.526	21222
895.648	21321
895.769	21401
895.891	21435
896.012	21363
896.134	21298
896.255	21401
896.376	21416
896.498	21325
896.619	21363
896.74	21416
896.861	21443
896.982	21667
897.103	21835
897.224	21564
897.345	21511
897.466	21587
897.587	21534
897.708	21656
897.828	21686
897.949	21515
898.07	21283
898.19	21511
898.311	21618
898.431	21355
898.552	21583
898.672	21595
898.792	21637
898.913	21507
899.033	21458
899.153	21382
899.273	21230
899.393	21355
899.513	21249
899.633	21218
899.753	21283
899.873	21249
899.993	21195
900.113	21161
900.232	21245
900.352	21161
900.472	21165
900.591	21093
900.711	21066
900.83	21108
900.95	21055
901.069	21100
901.189	20948
901.308	20686
901.427	20587
901.546	20560
901.665	20678
901.784	20613
901.904	20503
902.023	20370
902.141	20233
902.26	20164
902.379	20248
902.498	20145
902.617	19925
902.735	20031
902.854	20077
902.973	20001
903.091	19803
903.21	19727
903.328	19746
903.446	19746
903.565	19540
903.683	19533
903.801	19407
903.919	19567
904.038	19464
904.156	19381
904.274	19419
904.392	19312
904.51	19259
904.627	19251
904.745	19285
904.863	19384
904.981	19034
905.098	19031
905.216	19004
905.334	19004
905.451	18962
905.569	18886
905.686	19015
905.803	18951
905.921	18692
906.038	18734
906.155	18852
906.272	18654
906.389	18646
906.506	18570
906.623	18414
906.74	18532
906.857	18300
906.974	18509
907.091	18498
907.208	18665
907.324	18483
907.441	18376
907.557	18224
907.674	18167
907.79	18197
907.907	18140
908.023	18311
908.139	18270
908.256	18095
908.372	18201
908.488	18125
908.604	18034
908.72	17859
908.836	17912
908.952	17866
909.068	18015
909.184	18053
909.3	17870
909.415	17942
909.531	17889
909.647	17707
909.762	17539
909.878	17573
909.993	17608
910.108	17627
910.224	17551
910.339	17543
910.454	17444
910.57	17474
910.685	17318
910.8	17642
910.915	17630
911.03	17429
911.145	17284
911.259	17174
911.374	17162
911.489	17132
911.604	17124
911.718	16938
911.833	16934
911.947	16850
912.062	16759
912.176	16866
912.291	16877
912.405	16858
912.519	17086
912.633	17117
912.748	16923
912.862	16767
912.976	16748
913.09	16626
913.204	16733
913.318	16672
913.431	16793
913.545	16763
913.659	16721
913.772	16637
913.886	16519
914	16550
914.113	16630
914.226	16592
914.34	16656
914.453	16310
914.566	16504
914.68	16424
914.793	16337
914.906	16120
915.019	16090
915.132	16116
915.245	15975
915.358	16082
915.47	15994
915.583	15975
915.696	16021
915.809	16223
915.921	16173
916.034	16002
916.146	15975
916.259	15827
916.371	15983
916.483	16021
916.595	15907
916.708	15888
916.82	15907
916.932	15816
917.044	15922
917.156	15804
917.268	15667
917.38	15675
917.491	15728
917.603	15663
917.715	15675
917.826	15717
917.938	15618
918.049	15538
918.161	15739
918.272	15739
918.384	15774
918.495	15576
918.606	15473
918.717	15389
918.828	15530
918.939	15382
919.05	15283
919.161	15382
919.272	15245
919.383	15306
919.494	15405
919.604	15648
919.715	15359
919.826	15279
919.936	15386
920.047	15515
920.157	15416
920.267	15576
920.378	15355
920.488	15317
920.598	15667
920.708	15637
920.818	15526
920.928	15542
921.038	15591
921.148	15584
921.258	15321
921.368	15230
921.477	15184
921.587	15058
921.697	14868
921.806	15161
921.916	14914
922.025	14811
922.134	14705
922.244	14651
922.353	14765
922.462	14533
922.571	14610
922.68	14385
922.789	14381
922.898	14499
923.007	14267
923.116	14495
923.224	14389
923.333	14332
923.442	14183
923.55	14107
923.659	14298
923.767	14271
923.876	14096
923.984	14252
924.092	14081
924.201	14161
924.309	14084
924.417	14092
924.525	14020
924.633	14077
924.741	14693
924.849	13784
924.956	13974
925.064	13849
925.172	13757
925.279	13670
925.387	13845
925.494	13769
925.602	13928
925.709	13761
925.816	13552
925.924	13647
926.031	13822
926.138	13624
926.245	13708
926.352	13559
926.459	13658
926.566	13795
926.673	13594
926.779	13529
926.886	13453
926.993	13282
927.099	13274
927.206	13145
927.312	13217
927.419	13255
927.525	13324
927.631	13278
927.737	13190
927.843	12973
927.95	12981
928.056	13091
928.162	13099
928.267	13114
928.373	13677
928.479	13217
928.585	12844
928.69	12913
928.796	13057
928.901	12894
929.007	12764
929.112	12810
929.218	12962
929.323	12779
929.428	12798
929.533	12977
929.638	12692
929.743	12662
929.848	12726
929.953	12715
930.058	12585
930.163	12448
930.267	12437
930.372	12585
930.477	12388
930.581	12631
930.685	12509
930.79	12376
930.894	12369
930.998	12296
931.103	12490
931.207	12076
931.311	11977
931.415	11859
931.519	11767
931.623	11695
