Data from test_V78500241_709.txt Node
Date: Fri Mar 25 15:46:42 CST 2022
User: usil
Spectrometer: V785-0024
Trigger mode: 0
Integration Time (sec): 4.000000E-1
Scans to average: 1
Nonlinearity correction enabled: false
Boxcar width: 0
Storing dark spectrum: false
XAxis mode: Wavelengths
Number of Pixels in Spectrum: 1024
>>>>>Begin Spectral Data<<<<<
801.071	28048
801.214	27994
801.356	27835
801.499	27698
801.641	27663
801.783	27629
801.926	27587
802.068	27625
802.211	27450
802.353	27443
802.496	27393
802.638	27241
802.78	27154
802.923	27203
803.065	27218
803.208	27249
803.35	27180
803.492	27378
803.635	27458
803.777	27321
803.919	27523
804.061	27663
804.204	27435
804.346	27443
804.488	27317
804.63	27344
804.773	27393
804.915	27477
805.057	27675
805.199	27488
805.341	27496
805.483	27675
805.626	27496
805.768	27462
805.91	27530
806.052	27663
806.194	27507
806.336	27671
806.478	27652
806.62	27599
806.762	27759
806.904	27937
807.046	28135
807.188	27991
807.33	27922
807.472	28101
807.614	27941
807.756	27968
807.898	27884
808.04	27838
808.182	27895
808.324	27812
808.465	27941
808.607	28169
808.749	28204
808.891	28246
809.033	28367
809.174	28401
809.316	28246
809.458	28246
809.6	28188
809.741	28322
809.883	28455
810.025	28630
810.166	28634
810.308	28611
810.45	28390
810.591	28466
810.733	28314
810.875	28173
811.016	28109
811.158	28219
811.299	28489
811.441	28542
811.582	28466
811.724	28215
811.865	28230
812.007	28173
812.148	28139
812.29	28188
812.431	28394
812.573	28618
812.714	28691
812.855	28729
812.997	28748
813.138	28946
813.279	28828
813.421	28752
813.562	28683
813.703	28618
813.845	28523
813.986	28196
814.127	28135
814.268	28055
814.41	27918
814.551	27850
814.692	28002
814.833	27907
814.974	27846
815.115	27926
815.256	27907
815.397	27880
815.539	27747
815.68	27762
815.821	27641
815.962	27739
816.103	27698
816.244	27526
816.385	27755
816.526	27591
816.666	27310
816.807	27237
816.948	27492
817.089	27294
817.23	27268
817.371	27374
817.512	27188
817.653	27165
817.793	27211
817.934	27192
818.075	27233
818.216	27272
818.356	27218
818.497	27256
818.638	27127
818.778	27055
818.919	27058
819.06	27036
819.2	27032
819.341	27302
819.481	27131
819.622	27348
819.762	27587
819.903	27458
820.043	27416
820.184	27245
820.324	27363
820.465	27386
820.605	27302
820.746	27405
820.886	27207
821.026	27222
821.167	27378
821.307	27329
821.447	27275
821.588	27195
821.728	26963
821.868	26902
822.008	26716
822.149	26724
822.289	26667
822.429	26492
822.569	26385
822.709	26522
822.849	26282
822.99	26225
823.13	26199
823.27	26046
823.41	25974
823.55	25947
823.69	26107
823.83	26122
823.97	26058
824.11	25795
824.25	25807
824.389	26020
824.529	25898
824.669	26069
824.809	25955
824.949	26122
825.089	25830
825.228	25894
825.368	25715
825.508	25799
825.648	25757
825.787	25788
825.927	25917
826.067	25689
826.206	25658
826.346	25852
826.485	25643
826.625	25772
826.765	25674
826.904	25879
827.044	25407
827.183	25419
827.323	25411
827.462	25487
827.601	25552
827.741	25430
827.88	25510
828.02	25358
828.159	25457
828.298	25403
828.437	25518
828.577	25449
828.716	25396
828.855	25392
828.994	25065
829.134	25122
829.273	25076
829.412	25110
829.551	25088
829.69	25244
829.829	25266
829.968	25209
830.107	25171
830.246	25034
830.385	25042
830.524	25042
830.663	24867
830.802	24924
830.941	24726
831.08	24741
831.219	24916
831.357	24840
831.496	25080
831.635	24741
831.774	24574
831.913	24559
832.051	24604
832.19	24330
832.329	24460
832.467	24365
832.606	24327
832.744	24342
832.883	24369
833.022	24479
833.16	24388
833.299	24403
833.437	24574
833.576	24521
833.714	24460
833.852	24547
833.991	24563
834.129	24597
834.267	24578
834.406	24532
834.544	24623
834.682	24502
834.821	24505
834.959	24509
835.097	24391
835.235	24479
835.373	24273
835.511	24486
835.65	24270
835.788	24429
835.926	24136
836.064	24095
836.202	24148
836.34	24216
836.478	24426
836.615	24239
836.753	24281
836.891	24475
837.029	24342
837.167	24133
837.305	24308
837.443	24228
837.58	24174
837.718	24171
837.856	24270
837.993	24030
838.131	24034
838.269	24117
838.406	23980
838.544	23988
838.681	23680
838.819	23775
838.956	23691
839.094	23627
839.231	23596
839.369	23802
839.506	24026
839.643	23969
839.781	23554
839.918	23524
840.055	23585
840.193	23497
840.33	23402
840.467	23604
840.604	23653
840.742	23615
840.879	23471
841.016	23589
841.153	23387
841.29	23589
841.427	23566
841.564	23600
841.701	23490
841.838	23440
841.975	23341
842.112	23467
842.249	23223
842.385	23261
842.522	23463
842.659	23334
842.796	23159
842.933	23105
843.069	23200
843.206	23265
843.343	23330
843.479	23246
843.616	23345
843.752	23098
843.889	23140
844.025	23254
844.162	23090
844.298	23143
844.435	23079
844.571	23003
844.708	23143
844.844	23216
844.98	23155
845.117	23197
845.253	22999
845.389	22946
845.525	22900
845.661	22896
845.798	22767
845.934	22809
846.07	22748
846.206	22679
846.342	22900
846.478	22736
846.614	22607
846.75	22436
846.886	22493
847.022	22634
847.158	22634
847.294	22615
847.429	22466
847.565	22535
847.701	22786
847.837	22284
847.972	22166
848.108	22363
848.244	22318
848.379	22124
848.515	22120
848.65	22143
848.786	22109
848.921	22097
849.057	22268
849.192	22177
849.328	22112
849.463	22150
849.598	22010
849.734	21949
849.869	21964
850.004	21892
850.14	21873
850.275	21827
850.41	21846
850.545	21705
850.68	21812
850.815	21755
850.95	21949
851.085	22010
851.22	22010
851.355	21895
851.49	21835
851.625	21827
851.76	21945
851.895	21785
852.03	21827
852.165	21854
852.299	21987
852.434	21926
852.569	21922
852.703	21850
852.838	21915
852.973	21975
853.107	21884
853.242	21781
853.376	21778
853.511	21496
853.645	21561
853.78	21724
853.914	21622
854.048	21720
854.183	21599
854.317	21663
854.451	21831
854.585	21572
854.72	21622
854.854	21797
854.988	21515
855.122	21694
855.256	21622
855.39	21523
855.524	21705
855.658	21717
855.792	21629
855.926	21770
856.06	21732
856.194	21583
856.327	21686
856.461	21610
856.595	21625
856.729	21686
856.862	21831
856.996	21671
857.13	21789
857.263	21835
857.397	21770
857.53	21690
857.664	21816
857.797	21622
857.931	21800
858.064	21568
858.197	21781
858.331	21564
858.464	21660
858.597	21595
858.731	21644
858.864	21591
858.997	21564
859.13	21587
859.263	21679
859.396	21564
859.529	21720
859.662	21759
859.795	21587
859.928	21656
860.061	21766
860.194	21911
860.327	21591
860.46	21633
860.592	21770
860.725	21842
860.858	21789
860.99	21705
861.123	21576
861.256	21770
861.388	21766
861.521	22322
861.653	21492
861.786	21454
861.918	21454
862.05	21561
862.183	21705
862.315	21648
862.447	21755
862.58	21622
862.712	21443
862.844	21447
862.976	21450
863.108	21416
863.24	21922
863.372	21420
863.504	21348
863.636	21405
863.768	21428
863.9	21458
864.032	21241
864.164	21161
864.296	21450
864.428	21420
864.559	21523
864.691	21462
864.823	21329
864.954	21313
865.086	21386
865.217	21214
865.349	21226
865.48	21218
865.612	21233
865.743	21405
865.875	21294
866.006	21256
866.137	21230
866.269	21287
866.4	21336
866.531	21176
866.662	21214
866.793	21283
866.924	21272
867.055	21218
867.186	21176
867.317	21214
867.448	21241
867.579	21176
867.71	21051
867.841	21138
867.972	21207
868.103	21077
868.233	21252
868.364	21260
868.495	21431
868.625	21393
868.756	21591
868.886	21393
869.017	21496
869.147	21530
869.278	21576
869.408	21428
869.539	21447
869.669	21568
869.799	21504
869.929	21564
870.06	21431
870.19	21720
870.32	21770
870.45	21762
870.58	21838
870.71	21953
870.84	21930
870.97	22025
871.1	21835
871.23	21998
871.36	21953
871.489	21835
871.619	21964
871.749	22112
871.879	22215
872.008	22154
872.138	21949
872.267	22070
872.397	21793
872.526	21857
872.656	21922
872.785	21960
872.915	22032
873.044	22150
873.173	22025
873.303	22097
873.432	22147
873.561	22109
873.69	22162
873.819	22021
873.948	22185
874.077	22124
874.206	22051
874.335	22070
874.464	22158
874.593	22337
874.722	22238
874.851	22299
874.979	22272
875.108	22276
875.237	22173
875.365	22120
875.494	22291
875.623	22360
875.751	22249
875.88	22287
876.008	22451
876.136	22462
876.265	22736
876.393	22812
876.521	22664
876.65	22755
876.778	22603
876.906	22702
877.034	22607
877.162	22565
877.29	22565
877.418	22561
877.546	22630
877.674	22694
877.802	22611
877.93	22588
878.058	22538
878.185	22630
878.313	22542
878.441	22626
878.568	22478
878.696	22516
878.824	22622
878.951	22771
879.079	22759
879.206	22881
879.333	22847
879.461	22721
879.588	22744
879.715	22850
879.842	22976
879.97	22672
880.097	22432
880.224	22329
880.351	22485
880.478	22523
880.605	22421
880.732	22443
880.859	22672
880.986	22443
881.112	22538
881.239	22371
881.366	22173
881.493	22147
881.619	21975
881.746	22090
881.872	21949
881.999	22006
882.125	21899
882.252	21983
882.378	21960
882.505	22215
882.631	21922
882.757	21739
882.883	21762
883.01	21644
883.136	21732
883.262	21572
883.388	21466
883.514	21648
883.64	21641
883.766	21633
883.892	21466
884.018	21507
884.143	21667
884.269	21759
884.395	21389
884.52	21211
884.646	21351
884.772	21283
884.897	21294
885.023	21310
885.148	21439
885.274	21519
885.399	21485
885.524	21443
885.65	21439
885.775	21291
885.9	21317
886.025	21443
886.15	21355
886.275	21329
886.4	21252
886.525	21317
886.65	21268
886.775	21176
886.9	21382
887.025	21591
887.149	21340
887.274	21119
887.399	21055
887.523	21085
887.648	21039
887.773	21085
887.897	21218
888.021	21131
888.146	21051
888.27	21077
888.395	21252
888.519	21169
888.643	21062
888.767	21169
888.891	21096
889.015	20960
889.139	21096
889.263	20921
889.387	21096
889.511	21104
889.635	21135
889.759	20899
889.883	20899
890.006	20921
890.13	20998
890.254	20807
890.377	20777
890.501	20522
890.624	20629
890.748	20712
890.871	20575
890.995	20598
891.118	20434
891.241	20533
891.364	20484
891.488	20503
891.611	20328
891.734	20507
891.857	20617
891.98	20438
892.103	20469
892.226	20499
892.349	20480
892.471	20347
892.594	20476
892.717	20507
892.839	20446
892.962	20431
893.085	20461
893.207	20377
893.33	20267
893.452	20256
893.575	20446
893.697	20404
893.819	20446
893.941	20522
894.064	20480
894.186	20244
894.308	20282
894.43	20465
894.552	20507
894.674	20434
894.796	20275
894.918	20286
895.04	20366
895.161	20522
895.283	20450
895.405	20412
895.526	20362
895.648	20332
895.769	20298
895.891	20336
896.012	20385
896.134	20514
896.255	20351
896.376	20282
896.498	20374
896.619	20438
896.74	20351
896.861	20389
896.982	20777
897.103	20838
897.224	20640
897.345	20609
897.466	20617
897.587	20579
897.708	20743
897.828	20590
897.949	20560
898.07	20408
898.19	20446
898.311	20568
898.431	20503
898.552	20514
898.672	20716
898.792	20705
898.913	20571
899.033	20415
899.153	20423
899.273	20164
899.393	20336
899.513	20396
899.633	20370
899.753	20355
899.873	20271
899.993	20370
900.113	20389
900.232	20309
900.352	20138
900.472	20142
900.591	20065
900.711	20237
900.83	20096
900.95	20248
901.069	20145
901.189	19963
901.308	19814
901.427	19700
901.546	19734
901.665	19670
901.784	19807
901.904	19533
902.023	19460
902.141	19388
902.26	19278
902.379	19350
902.498	19228
902.617	19164
902.735	19194
902.854	19175
902.973	19183
903.091	18844
903.21	18894
903.328	18798
903.446	18802
903.565	18544
903.683	18719
903.801	18616
903.919	18612
904.038	18635
904.156	18410
904.274	18582
904.392	18410
904.51	18475
904.627	18452
904.745	18464
904.863	18399
904.981	18285
905.098	18129
905.216	18098
905.334	18125
905.451	18091
905.569	18049
905.686	18125
905.803	18110
905.921	17912
906.038	18102
906.155	18003
906.272	17752
906.389	17847
906.506	17615
906.623	17668
906.74	17668
906.857	17486
906.974	17535
907.091	17733
907.208	17866
907.324	17585
907.441	17467
907.557	17311
907.674	17307
907.79	17349
907.907	17311
908.023	17307
908.139	17368
908.256	17322
908.372	17250
908.488	17204
908.604	17159
908.72	17128
908.836	17083
908.952	17006
909.068	17010
909.184	17113
909.3	17041
909.415	17056
909.531	17102
909.647	16820
909.762	16843
909.878	16710
909.993	16797
910.108	16637
910.224	16778
910.339	16698
910.454	16683
910.57	16637
910.685	16531
910.8	16687
910.915	16717
911.03	16497
911.145	16337
911.259	16318
911.374	16390
911.489	16257
911.604	16325
911.718	16154
911.833	16071
911.947	16074
912.062	15892
912.176	16166
912.291	16063
912.405	16059
912.519	16272
912.633	16295
912.748	16128
912.862	16169
912.976	15937
913.09	15823
913.204	15857
913.318	15918
913.431	16093
913.545	15907
913.659	16021
913.772	15842
913.886	15774
914	15705
914.113	15667
914.226	15800
914.34	15751
914.453	15610
914.566	15709
914.68	15614
914.793	15485
914.906	15431
915.019	15313
915.132	15237
915.245	15218
915.358	15294
915.47	15264
915.583	15336
915.696	15294
915.809	15450
915.921	15374
916.034	15207
916.146	15264
916.259	15211
916.371	15302
916.483	15199
916.595	15222
916.708	15207
916.82	15135
916.932	15116
917.044	15207
917.156	15070
917.268	14975
917.38	15032
917.491	14971
917.603	15001
917.715	14960
917.826	15062
917.938	14845
918.049	14857
918.161	14921
918.272	14982
918.384	14982
918.495	14861
918.606	14727
918.717	14659
918.828	14701
918.939	14644
919.05	14560
919.161	14644
919.272	14571
919.383	14461
919.494	14629
919.604	14963
919.715	14651
919.826	14663
919.936	14746
920.047	14682
920.157	14735
920.267	14895
920.378	14731
920.488	14579
920.598	14830
920.708	15058
920.818	14849
920.928	14781
921.038	15066
921.148	14883
921.258	14670
921.368	14499
921.477	14355
921.587	14431
921.697	14336
921.806	14415
921.916	14343
922.025	14149
922.134	14046
922.244	14016
922.353	14054
922.462	13970
922.571	13959
922.68	13772
922.789	13712
922.898	13738
923.007	13651
923.116	13731
923.224	13700
923.333	13590
923.442	13529
923.55	13533
923.659	13582
923.767	13540
923.876	13506
923.984	13563
924.092	13365
924.201	13537
924.309	13476
924.417	13556
924.525	13358
924.633	13373
924.741	14313
924.849	13175
924.956	13346
925.064	13179
925.172	13080
925.279	13084
925.387	13137
925.494	13126
925.602	13270
925.709	13084
925.816	13126
925.924	13053
926.031	13171
926.138	12996
926.245	13107
926.352	13027
926.459	13065
926.566	13065
926.673	13065
926.779	12973
926.886	12856
926.993	12745
927.099	12730
927.206	12627
927.312	12703
927.419	12840
927.525	12585
927.631	12749
927.737	12513
927.843	12601
927.95	12509
928.056	12570
928.162	12528
928.267	12528
928.373	13209
928.479	12601
928.585	12304
928.69	12460
928.796	12422
928.901	12418
929.007	12167
929.112	12376
929.218	12232
929.323	12273
929.428	12235
929.533	12365
929.638	12224
929.743	12209
929.848	12319
929.953	12216
930.058	12129
930.163	11946
930.267	11969
930.372	12038
930.477	11927
930.581	12129
930.685	11923
930.79	11836
930.894	11824
930.998	11805
931.103	11980
931.207	11619
931.311	11429
931.415	11391
931.519	11185
931.623	11220
