Data from test_V78500241_502.txt Node
Date: Fri Mar 25 15:45:16 CST 2022
User: usil
Spectrometer: V785-0024
Trigger mode: 0
Integration Time (sec): 4.000000E-1
Scans to average: 1
Nonlinearity correction enabled: false
Boxcar width: 0
Storing dark spectrum: false
XAxis mode: Wavelengths
Number of Pixels in Spectrum: 1024
>>>>>Begin Spectral Data<<<<<
801.071	26785
801.214	26701
801.356	26625
801.499	26533
801.641	26530
801.783	26393
801.926	26412
802.068	26446
802.211	26267
802.353	26168
802.496	25978
802.638	25989
802.78	26024
802.923	26005
803.065	25921
803.208	25997
803.35	25906
803.492	26081
803.635	26107
803.777	25909
803.919	26153
804.061	26450
804.204	26043
804.346	26020
804.488	25928
804.63	26046
804.773	26054
804.915	26058
805.057	26237
805.199	25909
805.341	26206
805.483	26180
805.626	26096
805.768	26103
805.91	26164
806.052	26210
806.194	26119
806.336	26393
806.478	26183
806.62	26218
806.762	26248
806.904	26457
807.046	26667
807.188	26613
807.33	26541
807.472	26686
807.614	26385
807.756	26431
807.898	26476
808.04	26301
808.182	26400
808.324	26450
808.465	26446
808.607	26579
808.749	26785
808.891	26686
809.033	26815
809.174	27009
809.316	26868
809.458	26743
809.6	26743
809.741	26948
809.883	26982
810.025	26998
810.166	26979
810.308	27119
810.45	27009
810.591	26960
810.733	26800
810.875	26674
811.016	26663
811.158	26667
811.299	26944
811.441	27032
811.582	26899
811.724	26773
811.865	26651
812.007	26613
812.148	26648
812.29	26731
812.431	27013
812.573	27070
812.714	27214
812.855	27222
812.997	27378
813.138	27466
813.279	27431
813.421	27412
813.562	27161
813.703	27142
813.845	27062
813.986	26785
814.127	26358
814.268	26332
814.41	26503
814.551	26278
814.692	26465
814.833	26351
814.974	26415
815.115	26336
815.256	26290
815.397	26305
815.539	26275
815.68	26259
815.821	26092
815.962	26161
816.103	26259
816.244	26001
816.385	25921
816.526	25989
816.666	25738
816.807	25620
816.948	25734
817.089	25811
817.23	25582
817.371	25674
817.512	25628
817.653	25746
817.793	25594
817.934	25670
818.075	25677
818.216	25742
818.356	25628
818.497	25586
818.638	25438
818.778	25274
818.919	25358
819.06	25339
819.2	25464
819.341	25605
819.481	25658
819.622	25715
819.762	25909
819.903	25784
820.043	25784
820.184	25655
820.324	25712
820.465	25784
820.605	25605
820.746	25715
820.886	25521
821.026	25799
821.167	25681
821.307	25822
821.447	25632
821.588	25525
821.728	25441
821.868	25251
822.008	25126
822.149	25114
822.289	24981
822.429	24856
822.569	24741
822.709	24620
822.849	24642
822.99	24521
823.13	24646
823.27	24407
823.41	24391
823.55	24315
823.69	24448
823.83	24407
823.97	24323
824.11	24235
824.25	24205
824.389	24220
824.529	24262
824.669	24232
824.809	24330
824.949	24372
825.089	24327
825.228	24342
825.368	24087
825.508	24121
825.648	24159
825.787	24015
825.927	24144
826.067	23958
826.206	24057
826.346	24106
826.485	24076
826.625	24045
826.765	24095
826.904	24178
827.044	23771
827.183	23855
827.323	23680
827.462	23836
827.601	23779
827.741	23695
827.88	23737
828.02	23722
828.159	23554
828.298	23729
828.437	23764
828.577	23600
828.716	23920
828.855	23657
828.994	23604
829.134	23459
829.273	23387
829.412	23383
829.551	23337
829.69	23455
829.829	23524
829.968	23581
830.107	23505
830.246	23585
830.385	23414
830.524	23330
830.663	23311
830.802	23124
830.941	23174
831.08	23033
831.219	23147
831.357	23075
831.496	23231
831.635	23079
831.774	23025
831.913	22930
832.051	22839
832.19	22869
832.329	22881
832.467	22763
832.606	22713
832.744	22702
832.883	22656
833.022	22721
833.16	22786
833.299	22649
833.437	22774
833.576	22809
833.714	22831
833.852	22858
833.991	22927
834.129	22797
834.267	22771
834.406	22725
834.544	22862
834.682	22755
834.821	22771
834.959	22866
835.097	22763
835.235	22854
835.373	22801
835.511	22782
835.65	22508
835.788	22569
835.926	22596
836.064	22432
836.202	22531
836.34	22683
836.478	22790
836.615	22580
836.753	22588
836.891	22774
837.029	22683
837.167	22561
837.305	22527
837.443	22531
837.58	22466
837.718	22668
837.856	22459
837.993	22409
838.131	22508
838.269	22413
838.406	22291
838.544	22207
838.681	22128
838.819	22204
838.956	21953
839.094	22032
839.231	22017
839.369	22169
839.506	22257
839.643	22162
839.781	22044
839.918	21968
840.055	21930
840.193	21941
840.33	21876
840.467	22006
840.604	21922
840.742	22150
840.879	21846
841.016	21816
841.153	21770
841.29	21975
841.427	21861
841.564	21880
841.701	21831
841.838	21720
841.975	21823
842.112	21838
842.249	21656
842.385	21694
842.522	21854
842.659	21713
842.796	21789
842.933	21671
843.069	21728
843.206	21572
843.343	21637
843.479	21633
843.616	21595
843.752	21405
843.889	21439
844.025	21405
844.162	21439
844.298	21401
844.435	21389
844.571	21374
844.708	21424
844.844	21618
844.98	21439
845.117	21382
845.253	21378
845.389	21199
845.525	21355
845.661	21298
845.798	21211
845.934	21165
846.07	21077
846.206	21214
846.342	21332
846.478	21146
846.614	20956
846.75	20838
846.886	20853
847.022	20941
847.158	20960
847.294	20902
847.429	20998
847.565	20963
847.701	21207
847.837	20549
847.972	20670
848.108	20693
848.244	20663
848.379	20499
848.515	20450
848.65	20541
848.786	20625
848.921	20442
849.057	20697
849.192	20503
849.328	20590
849.463	20438
849.598	20408
849.734	20362
849.869	20324
850.004	20381
850.14	20282
850.275	20278
850.41	20244
850.545	20237
850.68	20145
850.815	20221
850.95	20290
851.085	20454
851.22	20324
851.355	20347
851.49	20103
851.625	20256
851.76	20259
851.895	20210
852.03	20168
852.165	20237
852.299	20301
852.434	20336
852.569	20278
852.703	20244
852.838	20339
852.973	20320
853.107	20389
853.242	20164
853.376	20233
853.511	19974
853.645	19974
853.78	20237
853.914	20176
854.048	19917
854.183	20157
854.317	20096
854.451	20271
854.585	20084
854.72	20024
854.854	20221
854.988	20020
855.122	20050
855.256	19959
855.39	20027
855.524	20088
855.658	20161
855.792	20073
855.926	20050
856.06	20142
856.194	20301
856.327	20065
856.461	20111
856.595	20058
856.729	19989
856.862	20161
856.996	20168
857.13	20084
857.263	20233
857.397	20259
857.53	20024
857.664	20142
857.797	20157
857.931	20168
858.064	20122
858.197	20180
858.331	20100
858.464	19986
858.597	20005
858.731	20088
858.864	19982
858.997	20020
859.13	20096
859.263	20161
859.396	20142
859.529	19947
859.662	19967
859.795	20024
859.928	20058
860.061	20195
860.194	20256
860.327	20259
860.46	20100
860.592	20210
860.725	20122
860.858	20096
860.99	20031
861.123	20069
861.256	19936
861.388	20084
861.521	20640
861.653	19993
861.786	19959
861.918	19928
862.05	19993
862.183	20024
862.315	20020
862.447	20069
862.58	20069
862.712	19845
862.844	19776
862.976	19898
863.108	19879
863.24	20317
863.372	19776
863.504	19871
863.636	19837
863.768	19833
863.9	19651
864.032	19791
864.164	19734
864.296	19845
864.428	19940
864.559	19856
864.691	19902
864.823	19837
864.954	19852
865.086	19731
865.217	19780
865.349	19590
865.48	19727
865.612	19753
865.743	19875
865.875	19689
866.006	19643
866.137	19639
866.269	19670
866.4	19609
866.531	19655
866.662	19514
866.793	19708
866.924	19655
867.055	19590
867.186	19700
867.317	19575
867.448	19643
867.579	19613
867.71	19537
867.841	19567
867.972	19677
868.103	19563
868.233	19708
868.364	19658
868.495	19700
868.625	19845
868.756	20035
868.886	19856
869.017	19970
869.147	19997
869.278	20043
869.408	19860
869.539	19883
869.669	20005
869.799	19898
869.929	20008
870.06	20081
870.19	20206
870.32	20271
870.45	20271
870.58	20195
870.71	20328
870.84	20385
870.97	20282
871.1	20282
871.23	20450
871.36	20450
871.489	20499
871.619	20492
871.749	20465
871.879	20659
872.008	20674
872.138	20442
872.267	20362
872.397	20400
872.526	20324
872.656	20309
872.785	20393
872.915	20613
873.044	20682
873.173	20488
873.303	20598
873.432	20579
873.561	20663
873.69	20488
873.819	20431
873.948	20636
874.077	20590
874.206	20412
874.335	20640
874.464	20560
874.593	20792
874.722	20800
874.851	20788
874.979	20663
875.108	20785
875.237	20864
875.365	20663
875.494	20785
875.623	20864
875.751	20636
875.88	20830
876.008	20861
876.136	20956
876.265	21211
876.393	21359
876.521	21222
876.65	21306
876.778	21211
876.906	21226
877.034	21173
877.162	21256
877.29	21096
877.418	21104
877.546	21077
877.674	21249
877.802	21123
877.93	21116
878.058	21154
878.185	21013
878.313	20986
878.441	21203
878.568	20933
878.696	21093
878.824	21142
878.951	21165
879.079	21317
879.206	21393
879.333	21260
879.461	21218
879.588	21405
879.715	21264
879.842	21450
879.97	21287
880.097	20826
880.224	20914
880.351	20986
880.478	20994
880.605	20845
880.732	20819
880.859	21165
880.986	20918
881.112	21009
881.239	20845
881.366	20746
881.493	20571
881.619	20533
881.746	20598
881.872	20602
881.999	20552
882.125	20518
882.252	20651
882.378	20568
882.505	20606
882.631	20434
882.757	20377
882.883	20457
883.01	20370
883.136	20290
883.262	20199
883.388	20024
883.514	20199
883.64	20305
883.766	20161
883.892	20065
884.018	20024
884.143	20172
884.269	20309
884.395	20111
884.52	19921
884.646	19841
884.772	19887
884.897	19799
885.023	19849
885.148	20073
885.274	20107
885.399	20073
885.524	19936
885.65	19932
885.775	19883
885.9	19818
886.025	19955
886.15	20001
886.275	19917
886.4	19909
886.525	19852
886.65	19841
886.775	19769
886.9	20092
887.025	20039
887.149	19784
887.274	19708
887.399	19616
887.523	19700
887.648	19750
887.773	19514
887.897	19841
888.021	19559
888.146	19620
888.27	19791
888.395	19887
888.519	19731
888.643	19655
888.767	19780
888.891	19666
889.015	19521
889.139	19548
889.263	19460
889.387	19590
889.511	19666
889.635	19601
889.759	19514
889.883	19419
890.006	19609
890.13	19457
890.254	19521
890.377	19388
890.501	19297
890.624	19236
890.748	19251
890.871	19141
890.995	19118
891.118	19099
891.241	19019
891.364	19164
891.488	19236
891.611	19137
891.734	19129
891.857	19228
891.98	18996
892.103	19168
892.226	19156
892.349	19137
892.471	18954
892.594	18973
892.717	19065
892.839	18966
892.962	19110
893.085	19065
893.207	19027
893.33	18932
893.452	18970
893.575	19031
893.697	19008
893.819	19198
893.941	19282
894.064	19137
894.186	18996
894.308	18954
894.43	19084
894.552	19179
894.674	19145
894.796	18920
894.918	19042
895.04	19019
895.161	19065
895.283	19095
895.405	18890
895.526	19122
895.648	18939
895.769	18943
895.891	19091
896.012	19118
896.134	19145
896.255	19152
896.376	19053
896.498	19053
896.619	18970
896.74	19080
896.861	19088
896.982	19343
897.103	19518
897.224	19369
897.345	19304
897.466	19301
897.587	19304
897.708	19480
897.828	19384
897.949	19282
898.07	19129
898.19	19236
898.311	19411
898.431	19236
898.552	19335
898.672	19358
898.792	19388
898.913	19285
899.033	19225
899.153	19046
899.273	19008
899.393	19114
899.513	19171
899.633	19114
899.753	19072
899.873	19080
899.993	19034
900.113	19194
900.232	19129
900.352	18966
900.472	18920
900.591	18848
900.711	18973
900.83	18772
900.95	18905
901.069	19000
901.189	18779
901.308	18456
901.427	18369
901.546	18525
901.665	18494
901.784	18547
901.904	18254
902.023	18273
902.141	18110
902.26	18083
902.379	18095
902.498	17942
902.617	17958
902.735	17916
902.854	17927
902.973	17977
903.091	17676
903.21	17653
903.328	17718
903.446	17627
903.565	17535
903.683	17520
903.801	17265
903.919	17444
904.038	17429
904.156	17303
904.274	17235
904.392	17178
904.51	17265
904.627	17235
904.745	17299
904.863	17349
904.981	17067
905.098	16923
905.216	16965
905.334	16968
905.451	16987
905.569	16908
905.686	16885
905.803	16896
905.921	16763
906.038	16820
906.155	16771
906.272	16664
906.389	16721
906.506	16459
906.623	16474
906.74	16512
906.857	16356
906.974	16432
907.091	16447
907.208	16531
907.324	16558
907.441	16417
907.557	16333
907.674	16185
907.79	16135
907.907	16154
908.023	16242
908.139	16333
908.256	16150
908.372	16051
908.488	16162
908.604	15918
908.72	15873
908.836	15903
908.952	15895
909.068	15911
909.184	15915
909.3	15934
909.415	15960
909.531	15956
909.647	15675
909.762	15622
909.878	15679
909.993	15599
910.108	15568
910.224	15538
910.339	15648
910.454	15481
910.57	15367
910.685	15317
910.8	15606
910.915	15591
911.03	15515
911.145	15294
911.259	15211
911.374	15188
911.489	15195
911.604	15017
911.718	15001
911.833	15104
911.947	14941
912.062	14891
912.176	15039
912.291	15009
912.405	15097
912.519	15252
912.633	15226
912.748	15085
912.862	14956
912.976	14845
913.09	14693
913.204	14815
913.318	14895
913.431	14902
913.545	14902
913.659	14887
913.772	14819
913.886	14735
914	14743
914.113	14678
914.226	14739
914.34	14648
914.453	14541
914.566	14705
914.68	14655
914.793	14530
914.906	14301
915.019	14324
915.132	14252
915.245	14259
915.358	14370
915.47	14240
915.583	14233
915.696	14240
915.809	14362
915.921	14366
916.034	14202
916.146	14252
916.259	14244
916.371	14267
916.483	14278
916.595	14046
916.708	14115
916.82	14123
916.932	14096
917.044	14073
917.156	14077
917.268	13944
917.38	13967
917.491	13883
917.603	13944
917.715	13982
917.826	14046
917.938	13944
918.049	13909
918.161	13955
918.272	13967
918.384	14016
918.495	13890
918.606	13811
918.717	13731
918.828	13818
918.939	13807
919.05	13632
919.161	13624
919.272	13514
919.383	13651
919.494	13757
919.604	13925
919.715	13655
919.826	13693
919.936	13742
920.047	13765
920.157	13628
920.267	13868
920.378	13734
920.488	13727
920.598	13799
920.708	14043
920.818	13856
920.928	13830
921.038	14043
921.148	14054
921.258	13734
921.368	13597
921.477	13567
921.587	13449
921.697	13350
921.806	13373
921.916	13282
922.025	13156
922.134	13198
922.244	13012
922.353	13198
922.462	13061
922.571	12954
922.68	12810
922.789	12806
922.898	12722
923.007	12711
923.116	12681
923.224	12722
923.333	12700
923.442	12639
923.55	12597
923.659	12665
923.767	12684
923.876	12582
923.984	12688
924.092	12559
924.201	12483
924.309	12574
924.417	12559
924.525	12376
924.633	12521
924.741	13183
924.849	12289
924.956	12506
925.064	12258
925.172	12152
925.279	12273
925.387	12327
925.494	12285
925.602	12369
925.709	12266
925.816	12133
925.924	12205
926.031	12243
926.138	12194
926.245	12281
926.352	12205
926.459	12178
926.566	12292
926.673	12098
926.779	11958
926.886	12053
926.993	11874
927.099	11813
927.206	11828
927.312	11817
927.419	11824
927.525	11783
927.631	11843
927.737	11748
927.843	11665
927.95	11566
928.056	11577
928.162	11634
928.267	11668
928.373	12258
928.479	11733
928.585	11520
928.69	11551
928.796	11649
928.901	11505
929.007	11478
929.112	11493
929.218	11482
929.323	11493
929.428	11368
929.533	11497
929.638	11421
929.743	11414
929.848	11372
929.953	11379
930.058	11254
930.163	11102
930.267	11094
930.372	11296
930.477	11045
930.581	11326
930.685	11201
930.79	10995
930.894	10991
930.998	10938
931.103	11045
931.207	10786
931.311	10672
931.415	10592
931.519	10493
931.623	10466
