Data from test_V78500241_2283.txt Node
Date: Fri Mar 25 15:57:36 CST 2022
User: usil
Spectrometer: V785-0024
Trigger mode: 0
Integration Time (sec): 4.000000E-1
Scans to average: 1
Nonlinearity correction enabled: false
Boxcar width: 0
Storing dark spectrum: false
XAxis mode: Wavelengths
Number of Pixels in Spectrum: 1024
>>>>>Begin Spectral Data<<<<<
801.071	28949
801.214	28999
801.356	28972
801.499	28755
801.641	28679
801.783	28664
801.926	28691
802.068	28725
802.211	28546
802.353	28679
802.496	28329
802.638	28470
802.78	28371
802.923	28382
803.065	28325
803.208	28223
803.35	28337
803.492	28656
803.635	28645
803.777	28497
803.919	28519
804.061	29003
804.204	28748
804.346	28500
804.488	28561
804.63	28592
804.773	28504
804.915	28782
805.057	28763
805.199	28599
805.341	28771
805.483	28797
805.626	28752
805.768	28759
805.91	28710
806.052	28946
806.194	28820
806.336	28942
806.478	28820
806.62	28896
806.762	28957
806.904	29109
807.046	29250
807.188	29174
807.33	29261
807.472	29239
807.614	29277
807.756	29280
807.898	29113
808.04	29056
808.182	29029
808.324	29189
808.465	29143
808.607	29383
808.749	29402
808.891	29615
809.033	29615
809.174	29463
809.316	29520
809.458	29463
809.6	29539
809.741	29471
809.883	29630
810.025	29741
810.166	29771
810.308	29764
810.45	29843
810.591	29794
810.733	29638
810.875	29520
811.016	29395
811.158	29497
811.299	29581
811.441	29623
811.582	29794
811.724	29516
811.865	29505
812.007	29566
812.148	29570
812.29	29642
812.431	29729
812.573	29939
812.714	29897
812.855	30087
812.997	30186
813.138	30289
813.279	30148
813.421	29969
813.562	29958
813.703	29836
813.845	29798
813.986	29585
814.127	29398
814.268	29159
814.41	29280
814.551	29254
814.692	29246
814.833	29181
814.974	29284
815.115	29204
815.256	29086
815.397	29052
815.539	29193
815.68	29124
815.821	29014
815.962	29060
816.103	29117
816.244	28862
816.385	28892
816.526	28896
816.666	28740
816.807	28561
816.948	28565
817.089	28778
817.23	28694
817.371	28493
817.512	28630
817.653	28421
817.793	28599
817.934	28550
818.075	28535
818.216	28725
818.356	28607
818.497	28379
818.638	28268
818.778	28424
818.919	28367
819.06	28447
819.2	28535
819.341	28717
819.481	28611
819.622	28824
819.762	28843
819.903	28812
820.043	28839
820.184	28816
820.324	28698
820.465	28683
820.605	28843
820.746	28797
820.886	28569
821.026	28763
821.167	28569
821.307	28653
821.447	28656
821.588	28500
821.728	28318
821.868	28253
822.008	28158
822.149	28063
822.289	28086
822.429	27819
822.569	27762
822.709	27797
822.849	27511
822.99	27564
823.13	27622
823.27	27504
823.41	27321
823.55	27310
823.69	27538
823.83	27416
823.97	27302
824.11	27237
824.25	27173
824.389	27161
824.529	27351
824.669	27135
824.809	27329
824.949	27302
825.089	27386
825.228	27260
825.368	27131
825.508	27047
825.648	27332
825.787	27096
825.927	27252
826.067	27161
826.206	27150
826.346	27230
826.485	27245
826.625	27188
826.765	27131
826.904	27176
827.044	26906
827.183	26849
827.323	26701
827.462	26944
827.601	26845
827.741	26845
827.88	26826
828.02	26861
828.159	26750
828.298	26804
828.437	26906
828.577	26678
828.716	26864
828.855	26785
828.994	26568
829.134	26545
829.273	26632
829.412	26480
829.551	26575
829.69	26533
829.829	26457
829.968	26648
830.107	26579
830.246	26552
830.385	26518
830.524	26419
830.663	26336
830.802	26229
830.941	26115
831.08	26294
831.219	26096
831.357	26221
831.496	26434
831.635	26065
831.774	26100
831.913	26096
832.051	25856
832.19	25765
832.329	25852
832.467	25887
832.606	25776
832.744	25746
832.883	25807
833.022	25727
833.16	25830
833.299	25788
833.437	25849
833.576	25871
833.714	25826
833.852	26043
833.991	25921
834.129	25925
834.267	25856
834.406	25852
834.544	25887
834.682	25811
834.821	25868
834.959	26008
835.097	25719
835.235	25925
835.373	25864
835.511	25811
835.65	25704
835.788	25643
835.926	25544
836.064	25575
836.202	25468
836.34	25704
836.478	25616
836.615	25605
836.753	25586
836.891	25616
837.029	25765
837.167	25586
837.305	25407
837.443	25559
837.58	25578
837.718	25499
837.856	25586
837.993	25487
838.131	25582
838.269	25411
838.406	25422
838.544	25301
838.681	25171
838.819	25148
838.956	24932
839.094	24951
839.231	24966
839.369	25110
839.506	25274
839.643	25213
839.781	24863
839.918	24928
840.055	25057
840.193	25004
840.33	24954
840.467	24844
840.604	24973
840.742	25164
840.879	24802
841.016	24749
841.153	24772
841.29	24871
841.427	24772
841.564	24707
841.701	24833
841.838	24741
841.975	24627
842.112	24867
842.249	24700
842.385	24604
842.522	24783
842.659	24791
842.796	24578
842.933	24525
843.069	24612
843.206	24589
843.343	24658
843.479	24597
843.616	24517
843.752	24315
843.889	24361
844.025	24429
844.162	24407
844.298	24422
844.435	24369
844.571	24471
844.708	24448
844.844	24460
844.98	24555
845.117	24536
845.253	24296
845.389	24273
845.525	24289
845.661	24163
845.798	24163
845.934	24102
846.07	24018
846.206	24140
846.342	24190
846.478	23897
846.614	23779
846.75	23821
846.886	23843
847.022	23748
847.158	23824
847.294	23908
847.429	23843
847.565	23684
847.701	24060
847.837	23520
847.972	23577
848.108	23604
848.244	23547
848.379	23509
848.515	23425
848.65	23421
848.786	23474
848.921	23482
849.057	23592
849.192	23611
849.328	23425
849.463	23474
849.598	23414
849.734	23296
849.869	23296
850.004	23151
850.14	23102
850.275	23189
850.41	23105
850.545	23170
850.68	23155
850.815	23204
850.95	23079
851.085	23296
851.22	23208
851.355	23197
851.49	23200
851.625	23140
851.76	23109
851.895	23181
852.03	23052
852.165	23170
852.299	23223
852.434	23273
852.569	23109
852.703	23197
852.838	23299
852.973	23208
853.107	23364
853.242	23181
853.376	22968
853.511	22896
853.645	23010
853.78	23121
853.914	23018
854.048	22976
854.183	23025
854.317	23022
854.451	23239
854.585	22980
854.72	23064
854.854	23025
854.988	22824
855.122	23018
855.256	22889
855.39	22961
855.524	23117
855.658	23029
855.792	23067
855.926	22949
856.06	22911
856.194	23079
856.327	22972
856.461	22809
856.595	22976
856.729	22991
856.862	23197
856.996	23079
857.13	22965
857.263	23208
857.397	23128
857.53	23018
857.664	23052
857.797	23102
857.931	23136
858.064	23056
858.197	23060
858.331	22999
858.464	23067
858.597	22782
858.731	22961
858.864	22771
858.997	23094
859.13	22984
859.263	23056
859.396	23006
859.529	22965
859.662	23014
859.795	22881
859.928	22987
860.061	23128
860.194	23140
860.327	23170
860.46	23018
860.592	23048
860.725	23143
860.858	23132
860.99	22923
861.123	22953
861.256	22900
861.388	22908
861.521	23615
861.653	22797
861.786	22793
861.918	22831
862.05	22820
862.183	22869
862.315	22896
862.447	22995
862.58	22877
862.712	22767
862.844	22660
862.976	22744
863.108	22733
863.24	23174
863.372	22615
863.504	22649
863.636	22618
863.768	22782
863.9	22607
864.032	22618
864.164	22618
864.296	22790
864.428	22812
864.559	22786
864.691	22850
864.823	22812
864.954	22634
865.086	22569
865.217	22573
865.349	22573
865.48	22523
865.612	22535
865.743	22596
865.875	22637
866.006	22455
866.137	22573
866.269	22687
866.4	22550
866.531	22512
866.662	22466
866.793	22519
866.924	22550
867.055	22470
867.186	22462
867.317	22348
867.448	22337
867.579	22535
867.71	22306
867.841	22363
867.972	22546
868.103	22516
868.233	22550
868.364	22428
868.495	22497
868.625	22649
868.756	22812
868.886	22744
869.017	22710
869.147	22717
869.278	22949
869.408	22675
869.539	22675
869.669	22858
869.799	22774
869.929	22801
870.06	22869
870.19	23041
870.32	22881
870.45	22980
870.58	22999
870.71	23227
870.84	23181
870.97	23086
871.1	23200
871.23	23204
871.36	23376
871.489	23235
871.619	23223
871.749	23269
871.879	23448
872.008	23429
872.138	23391
872.267	23250
872.397	23197
872.526	23064
872.656	23185
872.785	23181
872.915	23235
873.044	23376
873.173	23212
873.303	23589
873.432	23440
873.561	23497
873.69	23284
873.819	23288
873.948	23528
874.077	23341
874.206	23318
874.335	23391
874.464	23425
874.593	23623
874.722	23528
874.851	23566
874.979	23486
875.108	23589
875.237	23410
875.365	23280
875.494	23493
875.623	23478
875.751	23551
875.88	23539
876.008	23672
876.136	23794
876.265	23889
876.393	24072
876.521	23977
876.65	24026
876.778	23912
876.906	23866
877.034	23863
877.162	23870
877.29	23813
877.418	23878
877.546	23893
877.674	23843
877.802	23973
877.93	23840
878.058	23809
878.185	23672
878.313	23771
878.441	23832
878.568	23611
878.696	23897
878.824	23901
878.951	23946
879.079	23984
879.206	24125
879.333	23958
879.461	23893
879.588	24022
879.715	24057
879.842	24171
879.97	23927
880.097	23699
880.224	23741
880.351	23821
880.478	23722
880.605	23634
880.732	23695
880.859	23950
880.986	23627
881.112	23646
881.239	23543
881.366	23543
881.493	23376
881.619	23345
881.746	23178
881.872	23288
881.999	23121
882.125	23223
882.252	23227
882.378	23376
882.505	23307
882.631	23143
882.757	23014
882.883	22850
883.01	22843
883.136	22934
883.262	22774
883.388	22599
883.514	22835
883.64	22957
883.766	22816
883.892	22675
884.018	22687
884.143	22915
884.269	22942
884.395	22641
884.52	22538
884.646	22630
884.772	22542
884.897	22424
885.023	22443
885.148	22588
885.274	22740
885.399	22618
885.524	22523
885.65	22432
885.775	22630
885.9	22436
886.025	22588
886.15	22736
886.275	22554
886.4	22325
886.525	22474
886.65	22405
886.775	22466
886.9	22702
887.025	22725
887.149	22535
887.274	22204
887.399	22402
887.523	22306
887.648	22185
887.773	22055
887.897	22421
888.021	22386
888.146	22025
888.27	22417
888.395	22390
888.519	22413
888.643	22310
888.767	22310
888.891	22230
889.015	22116
889.139	22246
889.263	22048
889.387	22238
889.511	22276
889.635	22074
889.759	21956
889.883	22036
890.006	22032
890.13	22223
890.254	22166
890.377	21869
890.501	21804
890.624	21789
890.748	21800
890.871	21713
890.995	21526
891.118	21595
891.241	21618
891.364	21656
891.488	21778
891.611	21641
891.734	21667
891.857	21747
891.98	21545
892.103	21580
892.226	21606
892.349	21591
892.471	21412
892.594	21439
892.717	21572
892.839	21473
892.962	21443
893.085	21580
893.207	21561
893.33	21466
893.452	21351
893.575	21538
893.697	21466
893.819	21610
893.941	21660
894.064	21622
894.186	21466
894.308	21504
894.43	21618
894.552	21686
894.674	21694
894.796	21420
894.918	21504
895.04	21507
895.161	21473
895.283	21538
895.405	21355
895.526	21466
895.648	21397
895.769	21542
895.891	21500
896.012	21587
896.134	21576
896.255	21481
896.376	21393
896.498	21469
896.619	21450
896.74	21492
896.861	21481
896.982	21766
897.103	21880
897.224	21739
897.345	21663
897.466	21583
897.587	21709
897.708	21732
897.828	21656
897.949	21629
898.07	21473
898.19	21538
898.311	21633
898.431	21633
898.552	21587
898.672	21667
898.792	21717
898.913	21785
899.033	21576
899.153	21401
899.273	21397
899.393	21344
899.513	21500
899.633	21393
899.753	21450
899.873	21348
899.993	21374
900.113	21272
900.232	21325
900.352	21264
900.472	21112
900.591	21024
900.711	21192
900.83	21161
900.95	21294
901.069	21272
901.189	21047
901.308	20823
901.427	20609
901.546	20727
901.665	20834
901.784	20739
901.904	20545
902.023	20530
902.141	20233
902.26	20221
902.379	20336
902.498	20225
902.617	20161
902.735	20248
902.854	20119
902.973	20046
903.091	19909
903.21	19799
903.328	19845
903.446	19723
903.565	19708
903.683	19624
903.801	19540
903.919	19605
904.038	19670
904.156	19377
904.274	19441
904.392	19449
904.51	19457
904.627	19346
904.745	19483
904.863	19483
904.981	19285
905.098	19107
905.216	19141
905.334	19091
905.451	19133
905.569	19091
905.686	19137
905.803	19023
905.921	18939
906.038	18882
906.155	18878
906.272	18856
906.389	18791
906.506	18566
906.623	18661
906.74	18646
906.857	18433
906.974	18517
907.091	18631
907.208	18658
907.324	18612
907.441	18475
907.557	18346
907.674	18330
907.79	18304
907.907	18182
908.023	18395
908.139	18350
908.256	18235
908.372	18258
908.488	18224
908.604	18144
908.72	17965
908.836	18034
908.952	17984
909.068	18022
909.184	18087
909.3	17984
909.415	18083
909.531	18083
909.647	17741
909.762	17718
909.878	17653
909.993	17699
910.108	17600
910.224	17638
910.339	17710
910.454	17592
910.57	17520
910.685	17448
910.8	17596
910.915	17581
911.03	17471
911.145	17200
911.259	17288
911.374	17208
911.489	17239
911.604	17242
911.718	17067
911.833	17010
911.947	16831
912.062	16873
912.176	17048
912.291	17018
912.405	16927
912.519	17208
912.633	17227
912.748	16980
912.862	16984
912.976	16869
913.09	16713
913.204	16828
913.318	16862
913.431	16908
913.545	16904
913.659	16850
913.772	16805
913.886	16672
914	16649
914.113	16675
914.226	16660
914.34	16740
914.453	16611
914.566	16611
914.68	16519
914.793	16474
914.906	16291
915.019	16139
915.132	16287
915.245	16257
915.358	16192
915.47	16253
915.583	16177
915.696	16192
915.809	16295
915.921	16325
916.034	16078
916.146	16090
916.259	16013
916.371	16181
916.483	16139
916.595	16036
916.708	15922
916.82	15922
916.932	15926
917.044	15907
917.156	15861
917.268	15793
917.38	15762
917.491	15751
917.603	15747
917.715	15797
917.826	15842
917.938	15709
918.049	15660
918.161	15717
918.272	15846
918.384	15804
918.495	15663
918.606	15561
918.717	15458
918.828	15644
918.939	15549
919.05	15416
919.161	15485
919.272	15344
919.383	15359
919.494	15500
919.604	15698
919.715	15507
919.826	15351
919.936	15469
920.047	15523
920.157	15462
920.267	15568
920.378	15507
920.488	15462
920.598	15603
920.708	15736
920.818	15709
920.928	15599
921.038	15694
921.148	15633
921.258	15386
921.368	15268
921.477	15260
921.587	15211
921.697	15077
921.806	15264
921.916	14975
922.025	14876
922.134	14796
922.244	14746
922.353	14872
922.462	14754
922.571	14587
922.68	14454
922.789	14484
922.898	14438
923.007	14343
923.116	14473
923.224	14385
923.333	14309
923.442	14351
923.55	14214
923.659	14324
923.767	14351
923.876	14248
923.984	14225
924.092	14240
924.201	14176
924.309	14142
924.417	14202
924.525	14164
924.633	14123
924.741	15100
924.849	13902
924.956	14050
925.064	13807
925.172	13757
925.279	13921
925.387	13883
925.494	13791
925.602	13849
925.709	13795
925.816	13742
925.924	13818
926.031	13811
926.138	13681
926.245	13776
926.352	13609
926.459	13799
926.566	13776
926.673	13700
926.779	13571
926.886	13472
926.993	13415
927.099	13331
927.206	13289
927.312	13316
927.419	13316
927.525	13369
927.631	13415
927.737	13244
927.843	13187
927.95	13107
928.056	13152
928.162	13160
928.267	13270
928.373	13845
928.479	13213
928.585	13008
928.69	13122
928.796	13198
928.901	12985
929.007	12840
929.112	13023
929.218	12935
929.323	12844
929.428	12863
929.533	12928
929.638	12726
929.743	12924
929.848	12829
929.953	12821
930.058	12650
930.163	12555
930.267	12486
930.372	12544
930.477	12471
930.581	12681
930.685	12639
930.79	12414
930.894	12361
930.998	12372
931.103	12513
931.207	12072
931.311	12091
931.415	12003
931.519	11821
931.623	11760
