Data from test_V78500241_2854.txt Node
Date: Fri Mar 25 16:01:34 CST 2022
User: usil
Spectrometer: V785-0024
Trigger mode: 0
Integration Time (sec): 4.000000E-1
Scans to average: 1
Nonlinearity correction enabled: false
Boxcar width: 0
Storing dark spectrum: false
XAxis mode: Wavelengths
Number of Pixels in Spectrum: 1024
>>>>>Begin Spectral Data<<<<<
801.071	29037
801.214	29029
801.356	28953
801.499	28748
801.641	28390
801.783	28577
801.926	28778
802.068	28569
802.211	28519
802.353	28538
802.496	28348
802.638	28238
802.78	28230
802.923	28363
803.065	28257
803.208	28287
803.35	28204
803.492	28508
803.635	28573
803.777	28303
803.919	28554
804.061	28877
804.204	28649
804.346	28504
804.488	28352
804.63	28554
804.773	28474
804.915	28653
805.057	28713
805.199	28523
805.341	28573
805.483	28710
805.626	28862
805.768	28637
805.91	28733
806.052	28706
806.194	28592
806.336	28828
806.478	28596
806.62	28744
806.762	28885
806.904	29132
807.046	29166
807.188	29143
807.33	29349
807.472	29121
807.614	29128
807.756	29124
807.898	28995
808.04	29044
808.182	29048
808.324	29025
808.465	29041
808.607	29220
808.749	29334
808.891	29573
809.033	29581
809.174	29634
809.316	29372
809.458	29402
809.6	29395
809.741	29516
809.883	29539
810.025	29668
810.166	29745
810.308	29737
810.45	29501
810.591	29531
810.733	29417
810.875	29406
811.016	29429
811.158	29223
811.299	29444
811.441	29592
811.582	29668
811.724	29478
811.865	29474
812.007	29474
812.148	29421
812.29	29554
812.431	29630
812.573	29874
812.714	29840
812.855	30030
812.997	30083
813.138	30064
813.279	29996
813.421	30076
813.562	29741
813.703	29741
813.845	29608
813.986	29375
814.127	29315
814.268	29155
814.41	29349
814.551	29124
814.692	29193
814.833	29090
814.974	29178
815.115	29174
815.256	29006
815.397	28995
815.539	29094
815.68	28927
815.821	28885
815.962	28934
816.103	29018
816.244	28729
816.385	28683
816.526	28854
816.666	28588
816.807	28440
816.948	28356
817.089	28459
817.23	28478
817.371	28481
817.512	28504
817.653	28580
817.793	28390
817.934	28436
818.075	28519
818.216	28440
818.356	28401
818.497	28249
818.638	28207
818.778	28238
818.919	28246
819.06	28291
819.2	28519
819.341	28455
819.481	28390
819.622	28672
819.762	28927
819.903	28687
820.043	28561
820.184	28626
820.324	28436
820.465	28767
820.605	28531
820.746	28531
820.886	28432
821.026	28535
821.167	28466
821.307	28531
821.447	28546
821.588	28428
821.728	28318
821.868	28128
822.008	27884
822.149	27903
822.289	27926
822.429	27762
822.569	27603
822.709	27633
822.849	27454
822.99	27378
823.13	27389
823.27	27447
823.41	27336
823.55	27214
823.69	27302
823.83	27283
823.97	27351
824.11	27127
824.25	27100
824.389	27272
824.529	27203
824.669	27104
824.809	27150
824.949	27165
825.089	27264
825.228	27249
825.368	26975
825.508	27051
825.648	26956
825.787	27070
825.927	27142
826.067	26902
826.206	26952
826.346	27207
826.485	27085
826.625	27051
826.765	27169
826.904	27089
827.044	26754
827.183	26724
827.323	26727
827.462	26815
827.601	26762
827.741	26796
827.88	26606
828.02	26609
828.159	26716
828.298	26769
828.437	26849
828.577	26731
828.716	26887
828.855	26659
828.994	26415
829.134	26533
829.273	26514
829.412	26587
829.551	26453
829.69	26362
829.829	26415
829.968	26465
830.107	26518
830.246	26221
830.385	26225
830.524	26233
830.663	26187
830.802	26092
830.941	25978
831.08	25921
831.219	25978
831.357	26077
831.496	26202
831.635	26008
831.774	25951
831.913	25822
832.051	25803
832.19	25788
832.329	25826
832.467	25750
832.606	25635
832.744	25677
832.883	25734
833.022	25499
833.16	25689
833.299	25624
833.437	25674
833.576	25731
833.714	25734
833.852	25776
833.991	25772
834.129	25776
834.267	25753
834.406	25677
834.544	25822
834.682	25742
834.821	25818
834.959	25928
835.097	25635
835.235	25727
835.373	25647
835.511	25704
835.65	25635
835.788	25666
835.926	25369
836.064	25198
836.202	25510
836.34	25544
836.478	25552
836.615	25548
836.753	25491
836.891	25746
837.029	25525
837.167	25495
837.305	25426
837.443	25518
837.58	25430
837.718	25514
837.856	25388
837.993	25194
838.131	25316
838.269	25282
838.406	25373
838.544	25053
838.681	24935
838.819	25034
838.956	24840
839.094	24795
839.231	24871
839.369	25008
839.506	25202
839.643	25053
839.781	24840
839.918	24711
840.055	24757
840.193	24700
840.33	24787
840.467	24730
840.604	24840
840.742	24992
840.879	24620
841.016	24627
841.153	24509
841.29	24871
841.427	24764
841.564	24696
841.701	24749
841.838	24741
841.975	24616
842.112	24623
842.249	24547
842.385	24525
842.522	24760
842.659	24521
842.796	24570
842.933	24467
843.069	24544
843.206	24437
843.343	24509
843.479	24551
843.616	24479
843.752	24323
843.889	24315
844.025	24346
844.162	24266
844.298	24350
844.435	24247
844.571	24247
844.708	24251
844.844	24422
844.98	24528
845.117	24422
845.253	24273
845.389	24136
845.525	24015
845.661	24114
845.798	24011
845.934	24129
846.07	23908
846.206	24072
846.342	24178
846.478	23961
846.614	23790
846.75	23741
846.886	23722
847.022	23859
847.158	23790
847.294	23771
847.429	23775
847.565	23668
847.701	23988
847.837	23570
847.972	23372
848.108	23455
848.244	23516
848.379	23311
848.515	23208
848.65	23292
848.786	23490
848.921	23341
849.057	23288
849.192	23227
849.328	23364
849.463	23383
849.598	23140
849.734	23143
849.869	23208
850.004	23170
850.14	23132
850.275	22995
850.41	22915
850.545	22995
850.68	22999
850.815	23121
850.95	22946
851.085	23204
851.22	23223
851.355	23181
851.49	23102
851.625	22980
851.76	23056
851.895	22831
852.03	23006
852.165	23014
852.299	23250
852.434	23223
852.569	22987
852.703	23102
852.838	23075
852.973	23105
853.107	23121
853.242	22976
853.376	22866
853.511	22778
853.645	22755
853.78	23052
853.914	22968
854.048	22850
854.183	22869
854.317	22972
854.451	23121
854.585	22790
854.72	22873
854.854	22965
854.988	22858
855.122	22850
855.256	22710
855.39	22930
855.524	22987
855.658	22919
855.792	22892
855.926	22790
856.06	22862
856.194	22854
856.327	22885
856.461	22771
856.595	22908
856.729	22790
856.862	23014
856.996	22877
857.13	22972
857.263	22980
857.397	22896
857.53	22843
857.664	22942
857.797	22984
857.931	23029
858.064	22942
858.197	22942
858.331	22934
858.464	22801
858.597	22797
858.731	22885
858.864	22774
858.997	22812
859.13	22873
859.263	22904
859.396	22915
859.529	22843
859.662	22812
859.795	22854
859.928	22862
860.061	23113
860.194	23162
860.327	22968
860.46	22892
860.592	22881
860.725	23200
860.858	22927
860.99	22873
861.123	22904
861.256	22843
861.388	22805
861.521	23429
861.653	22618
861.786	22733
861.918	22805
862.05	22934
862.183	22862
862.315	22850
862.447	22919
862.58	22744
862.712	22637
862.844	22504
862.976	22615
863.108	22725
863.24	22915
863.372	22599
863.504	22584
863.636	22565
863.768	22584
863.9	22580
864.032	22489
864.164	22436
864.296	22645
864.428	22729
864.559	22660
864.691	22641
864.823	22618
864.954	22569
865.086	22481
865.217	22500
865.349	22337
865.48	22394
865.612	22466
865.743	22626
865.875	22466
866.006	22459
866.137	22550
866.269	22440
866.4	22390
866.531	22409
866.662	22280
866.793	22360
866.924	22466
867.055	22371
867.186	22303
867.317	22447
867.448	22375
867.579	22367
867.71	22211
867.841	22287
867.972	22382
868.103	22261
868.233	22318
868.364	22402
868.495	22421
868.625	22611
868.756	22774
868.886	22607
869.017	22615
869.147	22615
869.278	22763
869.408	22607
869.539	22592
869.669	22656
869.799	22656
869.929	22767
870.06	22622
870.19	22843
870.32	22839
870.45	22915
870.58	23006
870.71	23155
870.84	23022
870.97	22911
871.1	23044
871.23	23220
871.36	23261
871.489	23048
871.619	23246
871.749	23075
871.879	23326
872.008	23288
872.138	23322
872.267	23364
872.397	22980
872.526	23109
872.656	23090
872.785	23086
872.915	23105
873.044	23414
873.173	23239
873.303	23220
873.432	23326
873.561	23345
873.69	23280
873.819	23246
873.948	23478
874.077	23258
874.206	23155
874.335	23246
874.464	23440
874.593	23436
874.722	23391
874.851	23448
874.979	23337
875.108	23562
875.237	23467
875.365	23315
875.494	23356
875.623	23471
875.751	23543
875.88	23627
876.008	23543
876.136	23657
876.265	23836
876.393	24011
876.521	23855
876.65	23984
876.778	23988
876.906	23695
877.034	23790
877.162	23752
877.29	23813
877.418	23779
877.546	23687
877.674	23760
877.802	23809
877.93	23847
878.058	23748
878.185	23570
878.313	23802
878.441	23687
878.568	23604
878.696	23779
878.824	23794
878.951	23870
879.079	23935
879.206	24041
879.333	23980
879.461	23840
879.588	23847
879.715	24015
879.842	23931
879.97	23817
880.097	23570
880.224	23581
880.351	23573
880.478	23600
880.605	23535
880.732	23524
880.859	23786
880.986	23547
881.112	23524
881.239	23414
881.366	23292
881.493	23261
881.619	23216
881.746	23037
881.872	23132
881.999	23200
882.125	23151
882.252	23132
882.378	23128
882.505	23170
882.631	23056
882.757	22774
882.883	22915
883.01	22854
883.136	22869
883.262	22694
883.388	22740
883.514	22915
883.64	22957
883.766	22797
883.892	22538
884.018	22672
884.143	22778
884.269	22801
884.395	22455
884.52	22497
884.646	22459
884.772	22352
884.897	22402
885.023	22485
885.148	22466
885.274	22561
885.399	22641
885.524	22538
885.65	22485
885.775	22516
885.9	22402
886.025	22538
886.15	22542
886.275	22371
886.4	22287
886.525	22417
886.65	22371
886.775	22318
886.9	22554
887.025	22577
887.149	22367
887.274	22314
887.399	22367
887.523	22082
887.648	22040
887.773	22150
887.897	22234
888.021	22261
888.146	22154
888.27	22329
888.395	22303
888.519	22337
888.643	22204
888.767	22272
888.891	22154
889.015	21945
889.139	22086
889.263	21991
889.387	22055
889.511	22284
889.635	22177
889.759	21915
889.883	22074
890.006	21987
890.13	22029
890.254	21819
890.377	21819
890.501	21785
890.624	21713
890.748	21637
890.871	21667
890.995	21568
891.118	21648
891.241	21667
891.364	21545
891.488	21717
891.611	21568
891.734	21500
891.857	21526
891.98	21443
892.103	21648
892.226	21496
892.349	21412
892.471	21279
892.594	21500
892.717	21447
892.839	21443
892.962	21439
893.085	21405
893.207	21348
893.33	21275
893.452	21367
893.575	21519
893.697	21344
893.819	21443
893.941	21557
894.064	21595
894.186	21302
894.308	21306
894.43	21519
894.552	21614
894.674	21462
894.796	21260
894.918	21431
895.04	21291
895.161	21530
895.283	21469
895.405	21321
895.526	21389
895.648	21408
895.769	21374
895.891	21359
896.012	21515
896.134	21370
896.255	21321
896.376	21329
896.498	21389
896.619	21458
896.74	21504
896.861	21504
896.982	21686
897.103	21838
897.224	21724
897.345	21663
897.466	21401
897.587	21648
897.708	21622
897.828	21618
897.949	21564
898.07	21405
898.19	21542
898.311	21652
898.431	21557
898.552	21591
898.672	21644
898.792	21534
898.913	21675
899.033	21439
899.153	21382
899.273	21367
899.393	21275
899.513	21348
899.633	21329
899.753	21279
899.873	21260
899.993	21321
900.113	21283
900.232	21207
900.352	21100
900.472	21081
900.591	21074
900.711	21051
900.83	21009
900.95	21077
901.069	21245
901.189	20872
901.308	20697
901.427	20758
901.546	20594
901.665	20743
901.784	20636
901.904	20541
902.023	20465
902.141	20145
902.26	20191
902.379	20149
902.498	20138
902.617	20115
902.735	20199
902.854	20046
902.973	20103
903.091	19826
903.21	19704
903.328	19746
903.446	19719
903.565	19632
903.683	19567
903.801	19441
903.919	19567
904.038	19502
904.156	19365
904.274	19480
904.392	19377
904.51	19377
904.627	19274
904.745	19441
904.863	19381
904.981	19046
905.098	18977
905.216	19057
905.334	19133
905.451	19053
905.569	18958
905.686	19008
905.803	19034
905.921	18856
906.038	18802
906.155	18711
906.272	18661
906.389	18722
906.506	18604
906.623	18544
906.74	18456
906.857	18490
906.974	18509
907.091	18540
907.208	18563
907.324	18528
907.441	18395
907.557	18216
907.674	18266
907.79	18277
907.907	18163
908.023	18209
908.139	18220
908.256	18224
908.372	18140
908.488	18121
908.604	17977
908.72	17847
908.836	18007
908.952	17889
909.068	17920
909.184	18011
909.3	17942
909.415	17988
909.531	17885
909.647	17646
909.762	17710
909.878	17619
909.993	17608
910.108	17627
910.224	17608
910.339	17554
910.454	17551
910.57	17452
910.685	17284
910.8	17687
910.915	17581
911.03	17429
911.145	17322
911.259	17235
911.374	17242
911.489	17124
911.604	17048
911.718	16911
911.833	17071
911.947	16889
912.062	16828
912.176	17006
912.291	16972
912.405	16942
912.519	17124
912.633	17193
912.748	17006
912.862	16877
912.976	16683
913.09	16664
913.204	16584
913.318	16763
913.431	16771
913.545	16801
913.659	16862
913.772	16710
913.886	16588
914	16516
914.113	16626
914.226	16653
914.34	16596
914.453	16409
914.566	16561
914.68	16459
914.793	16379
914.906	16246
915.019	16204
915.132	16112
915.245	16097
915.358	16188
915.47	16071
915.583	16021
915.696	16036
915.809	16287
915.921	16226
916.034	16032
916.146	16063
916.259	16017
916.371	16078
916.483	16154
916.595	15922
916.708	15865
916.82	15918
916.932	15880
917.044	15994
917.156	15812
917.268	15694
917.38	15831
917.491	15713
917.603	15709
917.715	15751
917.826	15778
917.938	15580
918.049	15557
918.161	15682
918.272	15717
918.384	15766
918.495	15705
918.606	15496
918.717	15386
918.828	15500
918.939	15511
919.05	15439
919.161	15431
919.272	15287
919.383	15317
919.494	15458
919.604	15656
919.715	15408
919.826	15359
919.936	15389
920.047	15564
920.157	15488
920.267	15564
920.378	15420
920.488	15317
920.598	15542
920.708	15747
920.818	15481
920.928	15561
921.038	15690
921.148	15637
921.258	15348
921.368	15287
921.477	15100
921.587	15028
921.697	14948
921.806	15116
921.916	15039
922.025	14796
922.134	14735
922.244	14632
922.353	14804
922.462	14716
922.571	14522
922.68	14358
922.789	14385
922.898	14438
923.007	14320
923.116	14400
923.224	14389
923.333	14434
923.442	14298
923.55	14199
923.659	14248
923.767	14309
923.876	14218
923.984	14256
924.092	14050
924.201	14107
924.309	14187
924.417	14020
924.525	14008
924.633	14035
924.741	14933
924.849	13791
924.956	13925
925.064	13780
925.172	13685
925.279	13818
925.387	13811
925.494	13708
925.602	13795
925.709	13868
925.816	13639
925.924	13674
926.031	13791
926.138	13639
926.245	13636
926.352	13597
926.459	13693
926.566	13788
926.673	13582
926.779	13483
926.886	13491
926.993	13358
927.099	13358
927.206	13244
927.312	13324
927.419	13255
927.525	13206
927.631	13293
927.737	13145
927.843	13114
927.95	13015
928.056	13046
928.162	13129
928.267	13133
928.373	13689
928.479	13099
928.585	12962
928.69	13038
928.796	13065
928.901	12947
929.007	12798
929.112	12901
929.218	12932
929.323	12833
929.428	12844
929.533	12913
929.638	12798
929.743	12692
929.848	12783
929.953	12722
930.058	12601
930.163	12547
930.267	12544
930.372	12608
930.477	12407
930.581	12662
930.685	12601
930.79	12361
930.894	12414
930.998	12369
931.103	12460
931.207	12125
931.311	12045
931.415	11897
931.519	11733
931.623	11653
