Data from test_V78500241_478.txt Node
Date: Fri Mar 25 15:45:06 CST 2022
User: usil
Spectrometer: V785-0024
Trigger mode: 0
Integration Time (sec): 4.000000E-1
Scans to average: 1
Nonlinearity correction enabled: false
Boxcar width: 0
Storing dark spectrum: false
XAxis mode: Wavelengths
Number of Pixels in Spectrum: 1024
>>>>>Begin Spectral Data<<<<<
801.071	27641
801.214	27625
801.356	27351
801.499	27310
801.641	27211
801.783	27329
801.926	27351
802.068	27207
802.211	27199
802.353	27013
802.496	26887
802.638	26849
802.78	26857
802.923	26902
803.065	26705
803.208	26788
803.35	26845
803.492	26979
803.635	27009
803.777	26914
803.919	26906
804.061	27211
804.204	27089
804.346	26895
804.488	26773
804.63	26960
804.773	26838
804.915	27089
805.057	27074
805.199	27039
805.341	26910
805.483	27108
805.626	27093
805.768	26880
805.91	27203
806.052	27150
806.194	27032
806.336	27321
806.478	27275
806.62	27077
806.762	27329
806.904	27340
807.046	27568
807.188	27679
807.33	27549
807.472	27675
807.614	27515
807.756	27462
807.898	27389
808.04	27431
808.182	27306
808.324	27641
808.465	27469
808.607	27435
808.749	27770
808.891	27873
809.033	27911
809.174	27728
809.316	27808
809.458	27842
809.6	27812
809.741	27835
809.883	27937
810.025	28074
810.166	28078
810.308	28097
810.45	28124
810.591	27865
810.733	27789
810.875	27751
811.016	27663
811.158	27728
811.299	27789
811.441	28021
811.582	27880
811.724	27675
811.865	27743
812.007	27831
812.148	27728
812.29	27671
812.431	28051
812.573	28158
812.714	28158
812.855	28329
812.997	28382
813.138	28478
813.279	28390
813.421	28432
813.562	28314
813.703	28154
813.845	27926
813.986	27713
814.127	27485
814.268	27329
814.41	27427
814.551	27302
814.692	27606
814.833	27435
814.974	27393
815.115	27408
815.256	27302
815.397	27408
815.539	27348
815.68	27252
815.821	27089
815.962	27268
816.103	27135
816.244	27192
816.385	26887
816.526	26994
816.666	26872
816.807	26609
816.948	26807
817.089	26853
817.23	26800
817.371	26750
817.512	26678
817.653	26678
817.793	26667
817.934	26762
818.075	26746
818.216	26644
818.356	26765
818.497	26609
818.638	26419
818.778	26347
818.919	26358
819.06	26541
819.2	26659
819.341	26609
819.481	26526
819.622	26746
819.762	27047
819.903	26921
820.043	26868
820.184	26716
820.324	26758
820.465	26712
820.605	26819
820.746	26724
820.886	26651
821.026	26746
821.167	26800
821.307	26819
821.447	26785
821.588	26590
821.728	26503
821.868	26214
822.008	26282
822.149	26248
822.289	26142
822.429	25997
822.569	25875
822.709	25837
822.849	25613
822.99	25685
823.13	25601
823.27	25590
823.41	25518
823.55	25346
823.69	25392
823.83	25529
823.97	25472
824.11	25324
824.25	25263
824.389	25278
824.529	25343
824.669	25187
824.809	25483
824.949	25278
825.089	25430
825.228	25312
825.368	25084
825.508	25034
825.648	25110
825.787	25263
825.927	25312
826.067	25050
826.206	25168
826.346	25240
826.485	25308
826.625	25110
826.765	25209
826.904	25152
827.044	24856
827.183	24913
827.323	24810
827.462	24867
827.601	24890
827.741	24814
827.88	24806
828.02	24817
828.159	24833
828.298	24924
828.437	24897
828.577	24840
828.716	24829
828.855	24738
828.994	24578
829.134	24578
829.273	24555
829.412	24620
829.551	24563
829.69	24563
829.829	24452
829.968	24749
830.107	24612
830.246	24616
830.385	24395
830.524	24525
830.663	24292
830.802	24285
830.941	24182
831.08	23961
831.219	24300
831.357	24205
831.496	24315
831.635	24190
831.774	24038
831.913	24087
832.051	23980
832.19	23920
832.329	23992
832.467	23843
832.606	23718
832.744	23619
832.883	23775
833.022	23908
833.16	23889
833.299	23775
833.437	23878
833.576	23980
833.714	23920
833.852	23870
833.991	23977
834.129	23874
834.267	23942
834.406	23866
834.544	23999
834.682	23969
834.821	23794
834.959	23950
835.097	23882
835.235	23920
835.373	23855
835.511	23832
835.65	23821
835.788	23684
835.926	23703
836.064	23539
836.202	23486
836.34	23741
836.478	23665
836.615	23687
836.753	23840
836.891	23828
837.029	23756
837.167	23646
837.305	23604
837.443	23672
837.58	23585
837.718	23710
837.856	23627
837.993	23379
838.131	23509
838.269	23455
838.406	23410
838.544	23208
838.681	23269
838.819	23193
838.956	23155
839.094	23003
839.231	22999
839.369	23315
839.506	23330
839.643	23269
839.781	23014
839.918	22930
840.055	23140
840.193	22949
840.33	22881
840.467	22911
840.604	22972
840.742	23288
840.879	22854
841.016	22946
841.153	22953
841.29	23121
841.427	22797
841.564	23010
841.701	22919
841.838	22896
841.975	22824
842.112	22866
842.249	22656
842.385	22763
842.522	22763
842.659	22790
842.796	22672
842.933	22653
843.069	22683
843.206	22672
843.343	22809
843.479	22653
843.616	22577
843.752	22470
843.889	22447
844.025	22687
844.162	22371
844.298	22577
844.435	22451
844.571	22322
844.708	22462
844.844	22538
844.98	22508
845.117	22599
845.253	22478
845.389	22337
845.525	22295
845.661	22287
845.798	22162
845.934	22257
846.07	22211
846.206	22306
846.342	22341
846.478	22188
846.614	22074
846.75	21922
846.886	21979
847.022	21880
847.158	21994
847.294	21876
847.429	21823
847.565	21861
847.701	22093
847.837	21694
847.972	21618
848.108	21785
848.244	21728
848.379	21477
848.515	21587
848.65	21447
848.786	21458
848.921	21633
849.057	21774
849.192	21633
849.328	21481
849.463	21515
849.598	21545
849.734	21325
849.869	21355
850.004	21188
850.14	21325
850.275	21252
850.41	21180
850.545	21340
850.68	21241
850.815	21340
850.95	21233
851.085	21496
851.22	21344
851.355	21370
851.49	21378
851.625	21268
851.76	21344
851.895	21119
852.03	21081
852.165	21245
852.299	21340
852.434	21382
852.569	21184
852.703	21279
852.838	21321
852.973	21401
853.107	21374
853.242	21188
853.376	21089
853.511	20994
853.645	21066
853.78	21104
853.914	21070
854.048	21096
854.183	21058
854.317	21184
854.451	21291
854.585	21188
854.72	21020
854.854	21161
854.988	21005
855.122	21066
855.256	20941
855.39	20979
855.524	21043
855.658	21108
855.792	21085
855.926	21135
856.06	21085
856.194	21230
856.327	21119
856.461	21096
856.595	20967
856.729	21154
856.862	21222
856.996	21199
857.13	21241
857.263	21237
857.397	21150
857.53	21119
857.664	21188
857.797	21119
857.931	21203
858.064	21222
858.197	21230
858.331	21028
858.464	21066
858.597	20899
858.731	21009
858.864	20994
858.997	21017
859.13	21028
859.263	21252
859.396	21146
859.529	21131
859.662	21062
859.795	21104
859.928	21195
860.061	21207
860.194	21329
860.327	21233
860.46	20998
860.592	21077
860.725	21252
860.858	21214
860.99	21283
861.123	21032
861.256	21036
861.388	21154
861.521	21641
861.653	21039
861.786	20845
861.918	20914
862.05	21058
862.183	21039
862.315	21013
862.447	20979
862.58	20960
862.712	20765
862.844	20735
862.976	20941
863.108	20754
863.24	21283
863.372	20724
863.504	20792
863.636	20819
863.768	20845
863.9	20724
864.032	20655
864.164	20800
864.296	20887
864.428	20895
864.559	20845
864.691	20861
864.823	20823
864.954	20838
865.086	20693
865.217	20868
865.349	20640
865.48	20689
865.612	20667
865.743	20864
865.875	20785
866.006	20678
866.137	20678
866.269	20788
866.4	20724
866.531	20655
866.662	20568
866.793	20533
866.924	20609
867.055	20792
867.186	20629
867.317	20636
867.448	20495
867.579	20568
867.71	20526
867.841	20575
867.972	20659
868.103	20670
868.233	20644
868.364	20663
868.495	20716
868.625	20804
868.756	20979
868.886	20906
869.017	20925
869.147	21028
869.278	20994
869.408	20990
869.539	20929
869.669	20937
869.799	20982
869.929	21070
870.06	21108
870.19	21230
870.32	21116
870.45	21222
870.58	21268
870.71	21321
870.84	21424
870.97	21298
871.1	21382
871.23	21370
871.36	21534
871.489	21332
871.619	21386
871.749	21428
871.879	21485
872.008	21557
872.138	21557
872.267	21618
872.397	21393
872.526	21218
872.656	21233
872.785	21374
872.915	21473
873.044	21500
873.173	21507
873.303	21496
873.432	21454
873.561	21526
873.69	21519
873.819	21526
873.948	21561
874.077	21614
874.206	21462
874.335	21488
874.464	21530
874.593	21614
874.722	21686
874.851	21663
874.979	21804
875.108	21705
875.237	21667
875.365	21583
875.494	21823
875.623	21705
875.751	21599
875.88	21736
876.008	21778
876.136	21838
876.265	22158
876.393	22257
876.521	22299
876.65	22333
876.778	22185
876.906	22090
877.034	22055
877.162	22124
877.29	22036
877.418	22070
877.546	22070
877.674	22086
877.802	22063
877.93	22105
878.058	22070
878.185	21888
878.313	21987
878.441	22059
878.568	21968
878.696	21892
878.824	22101
878.951	22093
879.079	22341
879.206	22276
879.333	22261
879.461	22074
879.588	22116
879.715	22223
879.842	22371
879.97	22120
880.097	21861
880.224	21835
880.351	21994
880.478	21880
880.605	21865
880.732	22021
880.859	22055
880.986	21953
881.112	21800
881.239	21694
881.366	21595
881.493	21492
881.619	21530
881.746	21511
881.872	21511
881.999	21351
882.125	21382
882.252	21530
882.378	21443
882.505	21648
882.631	21348
882.757	21207
882.883	21203
883.01	21180
883.136	21245
883.262	21119
883.388	21028
883.514	21104
883.64	21249
883.766	21157
883.892	21017
884.018	20948
884.143	21116
884.269	21165
884.395	20979
884.52	20902
884.646	20708
884.772	20735
884.897	20705
885.023	20773
885.148	20883
885.274	20914
885.399	20952
885.524	20906
885.65	20830
885.775	20842
885.9	20845
886.025	20872
886.15	20842
886.275	20826
886.4	20781
886.525	20727
886.65	20826
886.775	20739
886.9	20883
887.025	21116
887.149	20811
887.274	20678
887.399	20579
887.523	20609
887.648	20492
887.773	20419
887.897	20670
888.021	20697
888.146	20507
888.27	20651
888.395	20587
888.519	20663
888.643	20648
888.767	20613
888.891	20454
889.015	20404
889.139	20419
889.263	20419
889.387	20609
889.511	20651
889.635	20522
889.759	20419
889.883	20484
890.006	20530
890.13	20606
890.254	20351
890.377	20256
890.501	20164
890.624	20202
890.748	20218
890.871	20046
890.995	19887
891.118	19849
891.241	19928
891.364	20024
891.488	20111
891.611	20005
891.734	19940
891.857	19997
891.98	20073
892.103	20100
892.226	19947
892.349	20012
892.471	19742
892.594	19955
892.717	19879
892.839	19925
892.962	19978
893.085	19982
893.207	19879
893.33	19841
893.452	19769
893.575	19875
893.697	19944
893.819	20039
893.941	20145
894.064	19997
894.186	19693
894.308	19761
894.43	19932
894.552	20012
894.674	19879
894.796	19830
894.918	19883
895.04	19818
895.161	19963
895.283	19936
895.405	19811
895.526	19982
895.648	19928
895.769	19875
895.891	20001
896.012	19993
896.134	19951
896.255	19982
896.376	19864
896.498	19894
896.619	19986
896.74	19845
896.861	19986
896.982	20225
897.103	20385
897.224	20225
897.345	20119
897.466	20073
897.587	20164
897.708	20305
897.828	20271
897.949	20168
898.07	19963
898.19	20081
898.311	20218
898.431	20065
898.552	20100
898.672	20130
898.792	20153
898.913	20180
899.033	20001
899.153	19940
899.273	19852
899.393	20001
899.513	20016
899.633	19890
899.753	19944
899.873	19795
899.993	19963
900.113	19860
900.232	19913
900.352	19761
900.472	19776
900.591	19651
900.711	19746
900.83	19647
900.95	19753
901.069	19723
901.189	19674
901.308	19320
901.427	19339
901.546	19274
901.665	19198
901.784	19362
901.904	19266
902.023	19137
902.141	18935
902.26	18905
902.379	18924
902.498	18726
902.617	18856
902.735	18829
902.854	18837
902.973	18650
903.091	18395
903.21	18422
903.328	18403
903.446	18338
903.565	18304
903.683	18296
903.801	18148
903.919	18308
904.038	18178
904.156	18114
904.274	18015
904.392	17950
904.51	18030
904.627	17999
904.745	18083
904.863	18030
904.981	17707
905.098	17775
905.216	17748
905.334	17794
905.451	17752
905.569	17665
905.686	17741
905.803	17615
905.921	17463
906.038	17558
906.155	17539
906.272	17322
906.389	17402
906.506	17193
906.623	17364
906.74	17235
906.857	17162
906.974	17117
907.091	17303
907.208	17269
907.324	17265
907.441	17105
907.557	17090
907.674	16934
907.79	16889
907.907	16828
908.023	16919
908.139	16923
908.256	16847
908.372	16889
908.488	16816
908.604	16755
908.72	16675
908.836	16672
908.952	16763
909.068	16748
909.184	16767
909.3	16767
909.415	16721
909.531	16824
909.647	16478
909.762	16436
909.878	16348
909.993	16421
910.108	16409
910.224	16371
910.339	16398
910.454	16322
910.57	16196
910.685	16105
910.8	16390
910.915	16287
911.03	16071
911.145	16013
911.259	15915
911.374	16021
911.489	15918
911.604	15892
911.718	15709
911.833	15694
911.947	15614
912.062	15618
912.176	15797
912.291	15789
912.405	15736
912.519	16013
912.633	15888
912.748	15785
912.862	15682
912.976	15545
913.09	15443
913.204	15507
913.318	15595
913.431	15641
913.545	15576
913.659	15606
913.772	15477
913.886	15332
914	15294
914.113	15344
914.226	15435
914.34	15420
914.453	15169
914.566	15367
914.68	15245
914.793	15222
914.906	15028
915.019	14967
915.132	14929
915.245	14948
915.358	15017
915.47	14944
915.583	14933
915.696	14952
915.809	15051
915.921	15028
916.034	14941
916.146	14857
916.259	14834
916.371	14906
916.483	14823
916.595	14800
916.708	14804
916.82	14758
916.932	14777
917.044	14746
917.156	14712
917.268	14716
917.38	14621
917.491	14659
917.603	14693
917.715	14651
917.826	14629
917.938	14484
918.049	14476
918.161	14549
918.272	14739
918.384	14705
918.495	14537
918.606	14434
918.717	14370
918.828	14419
918.939	14492
919.05	14263
919.161	14412
919.272	14183
919.383	14161
919.494	14465
919.604	14560
919.715	14366
919.826	14317
919.936	14415
920.047	14461
920.157	14419
920.267	14473
920.378	14396
920.488	14275
920.598	14480
920.708	14674
920.818	14484
920.928	14454
921.038	14705
921.148	14629
921.258	14313
921.368	14123
921.477	14096
921.587	14088
921.697	13986
921.806	14043
921.916	13871
922.025	13776
922.134	13818
922.244	13696
922.353	13742
922.462	13525
922.571	13655
922.68	13445
922.789	13396
922.898	13487
923.007	13301
923.116	13381
923.224	13381
923.333	13327
923.442	13270
923.55	13149
923.659	13194
923.767	13339
923.876	13187
923.984	13236
924.092	13107
924.201	13187
924.309	13190
924.417	13183
924.525	13160
924.633	13072
924.741	13860
924.849	12852
924.956	12939
925.064	12810
925.172	12726
925.279	12741
925.387	12787
925.494	12844
925.602	12954
925.709	12798
925.816	12734
925.924	12722
926.031	12764
926.138	12738
926.245	12779
926.352	12684
926.459	12859
926.566	12825
926.673	12639
926.779	12578
926.886	12551
926.993	12483
927.099	12418
927.206	12372
927.312	12311
927.419	12338
927.525	12426
927.631	12479
927.737	12228
927.843	12235
927.95	12114
928.056	12155
928.162	12171
928.267	12300
928.373	12856
928.479	12296
928.585	12064
928.69	12114
928.796	12133
928.901	12106
929.007	12022
929.112	12038
929.218	12133
929.323	11908
929.428	11939
929.533	12034
929.638	11901
929.743	11866
929.848	11965
929.953	11874
930.058	11771
930.163	11573
930.267	11604
930.372	11737
930.477	11608
930.581	11794
930.685	11699
930.79	11551
930.894	11539
930.998	11486
931.103	11657
931.207	11299
931.311	11136
931.415	11136
931.519	10896
931.623	10934
