Data from test_V78500241_1624.txt Node
Date: Fri Mar 25 15:53:03 CST 2022
User: usil
Spectrometer: V785-0024
Trigger mode: 0
Integration Time (sec): 4.000000E-1
Scans to average: 1
Nonlinearity correction enabled: false
Boxcar width: 0
Storing dark spectrum: false
XAxis mode: Wavelengths
Number of Pixels in Spectrum: 1024
>>>>>Begin Spectral Data<<<<<
801.071	28253
801.214	28166
801.356	28036
801.499	27926
801.641	27819
801.783	27907
801.926	27888
802.068	27930
802.211	27728
802.353	27686
802.496	27500
802.638	27576
802.78	27591
802.923	27458
803.065	27454
803.208	27382
803.35	27599
803.492	27705
803.635	27747
803.777	27751
803.919	27781
804.061	28013
804.204	27857
804.346	27690
804.488	27675
804.63	27705
804.773	27705
804.915	27789
805.057	27797
805.199	27861
805.341	27842
805.483	27937
805.626	28025
805.768	27869
805.91	27994
806.052	27964
806.194	27899
806.336	28109
806.478	28029
806.62	27922
806.762	28124
806.904	28124
807.046	28394
807.188	28265
807.33	28474
807.472	28394
807.614	28329
807.756	28382
807.898	28249
808.04	28211
808.182	28109
808.324	28196
808.465	28261
808.607	28417
808.749	28554
808.891	28729
809.033	28767
809.174	28698
809.316	28504
809.458	28713
809.6	28470
809.741	28767
809.883	28725
810.025	28797
810.166	28946
810.308	28915
810.45	28767
810.591	28869
810.733	28500
810.875	28440
811.016	28394
811.158	28493
811.299	28774
811.441	28763
811.582	28854
811.724	28561
811.865	28626
812.007	28569
812.148	28451
812.29	28679
812.431	28630
812.573	28919
812.714	29079
812.855	29041
812.997	29098
813.138	29307
813.279	29216
813.421	29090
813.562	29003
813.703	28919
813.845	28774
813.986	28577
814.127	28367
814.268	28276
814.41	28344
814.551	28246
814.692	28249
814.833	28246
814.974	28276
815.115	28318
815.256	28215
815.397	28207
815.539	28143
815.68	28109
815.821	27937
815.962	28181
816.103	28143
816.244	27865
816.385	27838
816.526	27835
816.666	27686
816.807	27603
816.948	27625
817.089	27682
817.23	27606
817.371	27679
817.512	27652
817.653	27591
817.793	27477
817.934	27401
818.075	27618
818.216	27724
818.356	27526
818.497	27572
818.638	27291
818.778	27310
818.919	27359
819.06	27340
819.2	27473
819.341	27488
819.481	27523
819.622	27778
819.762	28017
819.903	27854
820.043	27770
820.184	27686
820.324	27766
820.465	27838
820.605	27690
820.746	27561
820.886	27481
821.026	27641
821.167	27526
821.307	27766
821.447	27641
821.588	27633
821.728	27450
821.868	27203
822.008	27096
822.149	27180
822.289	27104
822.429	26724
822.569	26868
822.709	26701
822.849	26670
822.99	26648
823.13	26473
823.27	26473
823.41	26469
823.55	26377
823.69	26469
823.83	26347
823.97	26389
824.11	26267
824.25	26149
824.389	26248
824.529	26294
824.669	26153
824.809	26412
824.949	26271
825.089	26229
825.228	26187
825.368	26119
825.508	26187
825.648	26065
825.787	26183
825.927	26161
826.067	25989
826.206	26119
826.346	26122
826.485	26214
826.625	25978
826.765	26278
826.904	26081
827.044	25883
827.183	25887
827.323	25803
827.462	25890
827.601	25845
827.741	25769
827.88	25833
828.02	25616
828.159	25734
828.298	25913
828.437	25814
828.577	25685
828.716	25795
828.855	25799
828.994	25438
829.134	25525
829.273	25479
829.412	25400
829.551	25320
829.69	25499
829.829	25655
829.968	25483
830.107	25476
830.246	25559
830.385	25582
830.524	25369
830.663	25293
830.802	25091
830.941	25187
831.08	25031
831.219	25179
831.357	25129
831.496	25320
831.635	25278
831.774	24992
831.913	25027
832.051	24981
832.19	24867
832.329	24920
832.467	24810
832.606	24673
832.744	24844
832.883	24757
833.022	24802
833.16	24719
833.299	24707
833.437	24726
833.576	24783
833.714	24730
833.852	24947
833.991	24783
834.129	25042
834.267	24840
834.406	24760
834.544	24916
834.682	24894
834.821	24760
834.959	25012
835.097	24669
835.235	24730
835.373	24852
835.511	24894
835.65	24726
835.788	24722
835.926	24608
836.064	24471
836.202	24582
836.34	24745
836.478	24791
836.615	24665
836.753	24669
836.891	24703
837.029	24646
837.167	24593
837.305	24479
837.443	24521
837.58	24486
837.718	24620
837.856	24593
837.993	24464
838.131	24448
838.269	24346
838.406	24315
838.544	24311
838.681	24224
838.819	24194
838.956	23961
839.094	24018
839.231	24079
839.369	24178
839.506	24369
839.643	24232
839.781	24076
839.918	23809
840.055	24003
840.193	23847
840.33	23714
840.467	23859
840.604	23893
840.742	24254
840.879	23737
841.016	23847
841.153	23779
841.29	24026
841.427	23912
841.564	23920
841.701	23729
841.838	23726
841.975	23703
842.112	23623
842.249	23623
842.385	23722
842.522	23767
842.659	23722
842.796	23653
842.933	23600
843.069	23642
843.206	23638
843.343	23592
843.479	23619
843.616	23570
843.752	23448
843.889	23417
844.025	23512
844.162	23368
844.298	23512
844.435	23356
844.571	23395
844.708	23535
844.844	23482
844.98	23497
845.117	23539
845.253	23395
845.389	23318
845.525	23235
845.661	23181
845.798	23121
845.934	23140
846.07	23079
846.206	23318
846.342	23246
846.478	23113
846.614	22854
846.75	22854
846.886	22816
847.022	22896
847.158	22873
847.294	22904
847.429	22816
847.565	22858
847.701	23102
847.837	22660
847.972	22538
848.108	22660
848.244	22733
848.379	22474
848.515	22611
848.65	22428
848.786	22596
848.921	22455
849.057	22557
849.192	22519
849.328	22497
849.463	22508
849.598	22390
849.734	22413
849.869	22303
850.004	22238
850.14	22261
850.275	22291
850.41	22074
850.545	22109
850.68	22177
850.815	22306
850.95	22284
851.085	22432
851.22	22280
851.355	22344
851.49	22223
851.625	22116
851.76	22200
851.895	22078
852.03	22105
852.165	22211
852.299	22238
852.434	22268
852.569	22215
852.703	22185
852.838	22188
852.973	22356
853.107	22261
853.242	22166
853.376	22029
853.511	21899
853.645	22006
853.78	22086
853.914	22147
854.048	21869
854.183	22017
854.317	22067
854.451	22177
854.585	22063
854.72	22002
854.854	22219
854.988	21937
855.122	22093
855.256	21960
855.39	22135
855.524	22120
855.658	22135
855.792	22006
855.926	21953
856.06	22143
856.194	22090
856.327	22017
856.461	21892
856.595	22048
856.729	21930
856.862	22242
856.996	22006
857.13	22105
857.263	22082
857.397	22074
857.53	21926
857.664	22090
857.797	22169
857.931	22109
858.064	21994
858.197	22082
858.331	22090
858.464	21979
858.597	21926
858.731	21960
858.864	21998
858.997	21998
859.13	22006
859.263	22086
859.396	22040
859.529	21880
859.662	21968
859.795	21945
859.928	21994
860.061	22166
860.194	22192
860.327	22139
860.46	22070
860.592	22143
860.725	22177
860.858	22303
860.99	22097
861.123	22017
861.256	21975
861.388	22044
861.521	22786
861.653	22021
861.786	21785
861.918	21724
862.05	21880
862.183	22017
862.315	21998
862.447	22044
862.58	21972
862.712	21766
862.844	21656
862.976	21892
863.108	21755
863.24	22040
863.372	21675
863.504	21785
863.636	21717
863.768	21888
863.9	21778
864.032	21599
864.164	21526
864.296	21804
864.428	21751
864.559	21838
864.691	21865
864.823	21778
864.954	21759
865.086	21865
865.217	21599
865.349	21618
865.48	21713
865.612	21747
865.743	21857
865.875	21686
866.006	21675
866.137	21648
866.269	21580
866.4	21660
866.531	21629
866.662	21557
866.793	21587
866.924	21580
867.055	21766
867.186	21622
867.317	21458
867.448	21359
867.579	21511
867.71	21507
867.841	21450
867.972	21595
868.103	21603
868.233	21580
868.364	21637
868.495	21709
868.625	21724
868.756	21930
868.886	21743
869.017	21838
869.147	21816
869.278	22006
869.408	21713
869.539	21850
869.669	21759
869.799	21819
869.929	21899
870.06	22021
870.19	22204
870.32	22143
870.45	22185
870.58	22200
870.71	22280
870.84	22257
870.97	22135
871.1	22131
871.23	22504
871.36	22295
871.489	22314
871.619	22337
871.749	22417
871.879	22402
872.008	22630
872.138	22379
872.267	22268
872.397	22246
872.526	22299
872.656	22185
872.785	22234
872.915	22421
873.044	22379
873.173	22474
873.303	22550
873.432	22371
873.561	22504
873.69	22409
873.819	22314
873.948	22523
874.077	22371
874.206	22421
874.335	22352
874.464	22561
874.593	22698
874.722	22618
874.851	22615
874.979	22778
875.108	22626
875.237	22634
875.365	22557
875.494	22683
875.623	22679
875.751	22603
875.88	22660
876.008	22721
876.136	22892
876.265	23029
876.393	23178
876.521	23113
876.65	23010
876.778	23022
876.906	22999
877.034	22869
877.162	23025
877.29	22908
877.418	22949
877.546	23037
877.674	23086
877.802	23029
877.93	22927
878.058	22911
878.185	22790
878.313	22885
878.441	22965
878.568	22805
878.696	22915
878.824	22881
878.951	22984
879.079	23197
879.206	23208
879.333	22984
879.461	22946
879.588	23025
879.715	23227
879.842	23265
879.97	23006
880.097	22839
880.224	22816
880.351	22828
880.478	22843
880.605	22755
880.732	22774
880.859	23006
880.986	22820
881.112	22683
881.239	22622
881.366	22641
881.493	22478
881.619	22348
881.746	22394
881.872	22436
881.999	22352
882.125	22306
882.252	22409
882.378	22394
882.505	22390
882.631	22230
882.757	22032
882.883	22196
883.01	22036
883.136	22021
883.262	21983
883.388	21804
883.514	21994
883.64	22112
883.766	22032
883.892	21751
884.018	21903
884.143	21979
884.269	22120
884.395	21762
884.52	21808
884.646	21641
884.772	21698
884.897	21568
885.023	21698
885.148	21694
885.274	21781
885.399	21850
885.524	21690
885.65	21682
885.775	21633
885.9	21667
886.025	21770
886.15	21827
886.275	21713
886.4	21564
886.525	21827
886.65	21618
886.775	21564
886.9	21759
887.025	21854
887.149	21694
887.274	21431
887.399	21408
887.523	21408
887.648	21363
887.773	21428
887.897	21633
888.021	21481
888.146	21294
888.27	21682
888.395	21481
888.519	21507
888.643	21382
888.767	21428
888.891	21481
889.015	21203
889.139	21359
889.263	21268
889.387	21329
889.511	21420
889.635	21447
889.759	21348
889.883	21226
890.006	21104
890.13	21325
890.254	21135
890.377	21138
890.501	20986
890.624	20895
890.748	21138
890.871	20982
890.995	20891
891.118	20678
891.241	20701
891.364	20880
891.488	20899
891.611	20636
891.734	20788
891.857	20857
891.98	20720
892.103	20754
892.226	20727
892.349	20739
892.471	20674
892.594	20819
892.717	20682
892.839	20598
892.962	20705
893.085	20861
893.207	20587
893.33	20613
893.452	20511
893.575	20773
893.697	20686
893.819	20777
893.941	20788
894.064	20712
894.186	20609
894.308	20526
894.43	20731
894.552	20697
894.674	20804
894.796	20552
894.918	20712
895.04	20625
895.161	20750
895.283	20800
895.405	20632
895.526	20697
895.648	20564
895.769	20678
895.891	20712
896.012	20773
896.134	20644
896.255	20617
896.376	20556
896.498	20648
896.619	20617
896.74	20777
896.861	20712
896.982	20963
897.103	21127
897.224	20948
897.345	20834
897.466	20754
897.587	20906
897.708	20876
897.828	20963
897.949	20811
898.07	20807
898.19	20792
898.311	20979
898.431	20895
898.552	20902
898.672	20941
898.792	20925
898.913	20872
899.033	20842
899.153	20701
899.273	20476
899.393	20727
899.513	20697
899.633	20537
899.753	20701
899.873	20522
899.993	20564
900.113	20552
900.232	20621
900.352	20484
900.472	20454
900.591	20282
900.711	20560
900.83	20362
900.95	20537
901.069	20480
901.189	20191
901.308	20035
901.427	19989
901.546	20058
901.665	19940
901.784	20145
901.904	19807
902.023	19677
902.141	19613
902.26	19540
902.379	19495
902.498	19590
902.617	19403
902.735	19434
902.854	19449
902.973	19274
903.091	19183
903.21	19046
903.328	19126
903.446	19019
903.565	18886
903.683	18973
903.801	18833
903.919	18859
904.038	18920
904.156	18715
904.274	18810
904.392	18730
904.51	18681
904.627	18688
904.745	18795
904.863	18779
904.981	18467
905.098	18391
905.216	18380
905.334	18410
905.451	18456
905.569	18426
905.686	18403
905.803	18330
905.921	18182
906.038	18285
906.155	18197
906.272	18087
906.389	18159
906.506	17897
906.623	17923
906.74	17916
906.857	17771
906.974	17893
907.091	17904
907.208	18007
907.324	17897
907.441	17802
907.557	17619
907.674	17562
907.79	17566
907.907	17619
908.023	17592
908.139	17532
908.256	17524
908.372	17459
908.488	17497
908.604	17318
908.72	17307
908.836	17368
908.952	17296
909.068	17326
909.184	17501
909.3	17326
909.415	17318
909.531	17356
909.647	16957
909.762	17075
909.878	17083
909.993	17056
910.108	17067
910.224	16965
910.339	17079
910.454	16835
910.57	16858
910.685	16816
910.8	17010
910.915	17090
911.03	16774
911.145	16626
911.259	16653
911.374	16588
911.489	16516
911.604	16573
911.718	16466
911.833	16303
911.947	16299
912.062	16226
912.176	16382
912.291	16375
912.405	16428
912.519	16569
912.633	16645
912.748	16428
912.862	16299
912.976	16150
913.09	16002
913.204	16032
913.318	16169
913.431	16329
913.545	16280
913.659	16280
913.772	15926
913.886	15972
914	16010
914.113	16147
914.226	16143
914.34	15994
914.453	15865
914.566	15983
914.68	15876
914.793	15857
914.906	15690
915.019	15488
915.132	15466
915.245	15481
915.358	15557
915.47	15511
915.583	15496
915.696	15538
915.809	15549
915.921	15603
916.034	15458
916.146	15397
916.259	15447
916.371	15469
916.483	15329
916.595	15355
916.708	15389
916.82	15408
916.932	15336
917.044	15264
917.156	15218
917.268	15218
917.38	15226
917.491	15249
917.603	15203
917.715	15294
917.826	15222
917.938	15180
918.049	15127
918.161	15161
918.272	15313
918.384	15294
918.495	15176
918.606	15070
918.717	14925
918.828	15009
918.939	14960
919.05	14906
919.161	14914
919.272	14769
919.383	14872
919.494	15013
919.604	15161
919.715	15036
919.826	14830
919.936	15001
920.047	15001
920.157	14979
920.267	15097
920.378	15039
920.488	14853
920.598	15081
920.708	15203
920.818	15123
920.928	15070
921.038	15233
921.148	15081
921.258	15024
921.368	14720
921.477	14769
921.587	14792
921.697	14594
921.806	14693
921.916	14454
922.025	14358
922.134	14454
922.244	14210
922.353	14396
922.462	14202
922.571	14134
922.68	14001
922.789	13967
922.898	14058
923.007	13917
923.116	13982
923.224	13944
923.333	13951
923.442	13765
923.55	13849
923.659	13830
923.767	13837
923.876	13723
923.984	13860
924.092	13616
924.201	13666
924.309	13666
924.417	13696
924.525	13533
924.633	13586
924.741	14670
924.849	13445
924.956	13578
925.064	13373
925.172	13354
925.279	13358
925.387	13304
925.494	13407
925.602	13483
925.709	13407
925.816	13251
925.924	13202
926.031	13343
926.138	13213
926.245	13263
926.352	13122
926.459	13419
926.566	13350
926.673	13236
926.779	13164
926.886	13095
926.993	12977
927.099	12924
927.206	12882
927.312	12840
927.419	12935
927.525	12848
927.631	12916
927.737	12688
927.843	12730
927.95	12620
928.056	12722
928.162	12722
928.267	12821
928.373	13392
928.479	12798
928.585	12506
928.69	12700
928.796	12669
928.901	12620
929.007	12456
929.112	12582
929.218	12555
929.323	12437
929.428	12521
929.533	12627
929.638	12334
929.743	12296
929.848	12456
929.953	12372
930.058	12372
930.163	12201
930.267	12178
930.372	12182
930.477	12110
930.581	12247
930.685	12205
930.79	11992
930.894	11984
930.998	11984
931.103	12095
931.207	11775
931.311	11642
931.415	11649
931.519	11379
931.623	11288
