Data from test_V78500241_2198.txt Node
Date: Fri Mar 25 15:57:01 CST 2022
User: usil
Spectrometer: V785-0024
Trigger mode: 0
Integration Time (sec): 4.000000E-1
Scans to average: 1
Nonlinearity correction enabled: false
Boxcar width: 0
Storing dark spectrum: false
XAxis mode: Wavelengths
Number of Pixels in Spectrum: 1024
>>>>>Begin Spectral Data<<<<<
801.071	28573
801.214	28424
801.356	28158
801.499	28158
801.641	28154
801.783	28055
801.926	28116
802.068	28105
802.211	27930
802.353	28067
802.496	27899
802.638	27698
802.78	27876
802.923	27789
803.065	27709
803.208	27751
803.35	27823
803.492	27914
803.635	27884
803.777	27956
803.919	28055
804.061	28382
804.204	28063
804.346	27937
804.488	27964
804.63	27949
804.773	27934
804.915	28029
805.057	28116
805.199	28082
805.341	28135
805.483	28086
805.626	28200
805.768	28158
805.91	28135
806.052	28242
806.194	27964
806.336	28226
806.478	28082
806.62	28147
806.762	28325
806.904	28500
807.046	28599
807.188	28683
807.33	28618
807.472	28588
807.614	28557
807.756	28588
807.898	28432
808.04	28592
808.182	28394
808.324	28443
808.465	28542
808.607	28759
808.749	28831
808.891	28927
809.033	29056
809.174	28915
809.316	28816
809.458	28854
809.6	28733
809.741	28999
809.883	28949
810.025	29102
810.166	29044
810.308	29022
810.45	29025
810.591	29003
810.733	28892
810.875	28812
811.016	28911
811.158	28801
811.299	28843
811.441	28942
811.582	29033
811.724	28820
811.865	28820
812.007	28953
812.148	28866
812.29	28809
812.431	28968
812.573	29185
812.714	29326
812.855	29296
812.997	29505
813.138	29596
813.279	29425
813.421	29311
813.562	29395
813.703	29159
813.845	29166
813.986	28942
814.127	28683
814.268	28516
814.41	28485
814.551	28367
814.692	28523
814.833	28447
814.974	28550
815.115	28569
815.256	28607
815.397	28428
815.539	28424
815.68	28344
815.821	28154
815.962	28261
816.103	28379
816.244	28169
816.385	28249
816.526	28101
816.666	27994
816.807	27838
816.948	27907
817.089	27941
817.23	27895
817.371	27926
817.512	27819
817.653	27854
817.793	27675
817.934	27736
818.075	27972
818.216	27998
818.356	27728
818.497	27766
818.638	27530
818.778	27595
818.919	27622
819.06	27542
819.2	27895
819.341	27789
819.481	27739
819.622	27956
819.762	28051
819.903	28090
820.043	28059
820.184	28029
820.324	27945
820.465	28032
820.605	28070
820.746	27873
820.886	27774
821.026	27934
821.167	27926
821.307	27907
821.447	27895
821.588	27797
821.728	27648
821.868	27625
822.008	27218
822.149	27355
822.289	27291
822.429	27085
822.569	27081
822.709	26975
822.849	26849
822.99	26819
823.13	27009
823.27	26876
823.41	26712
823.55	26560
823.69	26655
823.83	26670
823.97	26568
824.11	26427
824.25	26415
824.389	26457
824.529	26602
824.669	26556
824.809	26579
824.949	26594
825.089	26423
825.228	26495
825.368	26404
825.508	26237
825.648	26381
825.787	26225
825.927	26484
826.067	26301
826.206	26453
826.346	26530
826.485	26408
826.625	26328
826.765	26427
826.904	26396
827.044	26252
827.183	26142
827.323	26039
827.462	26081
827.601	26054
827.741	26119
827.88	25989
828.02	25795
828.159	25932
828.298	26119
828.437	26153
828.577	25963
828.716	26058
828.855	25970
828.994	25731
829.134	25715
829.273	25814
829.412	25799
829.551	25674
829.69	25731
829.829	25731
829.968	25822
830.107	25807
830.246	25913
830.385	25685
830.524	25578
830.663	25506
830.802	25544
830.941	25400
831.08	25346
831.219	25495
831.357	25422
831.496	25658
831.635	25369
831.774	25312
831.913	25175
832.051	25160
832.19	25148
832.329	25202
832.467	25114
832.606	25023
832.744	25110
832.883	25072
833.022	24970
833.16	25072
833.299	25027
833.437	25046
833.576	25156
833.714	25072
833.852	25053
833.991	25152
834.129	25107
834.267	25251
834.406	25034
834.544	25133
834.682	25152
834.821	25095
834.959	25308
835.097	24985
835.235	25179
835.373	25141
835.511	25160
835.65	24966
835.788	24947
835.926	24844
836.064	24734
836.202	24817
836.34	24932
836.478	25072
836.615	24859
836.753	25019
836.891	24920
837.029	24909
837.167	24856
837.305	24829
837.443	24719
837.58	24776
837.718	24894
837.856	24673
837.993	24715
838.131	24646
838.269	24547
838.406	24555
838.544	24566
838.681	24399
838.819	24365
838.956	24140
839.094	24167
839.231	24213
839.369	24369
839.506	24536
839.643	24452
839.781	24213
839.918	24045
840.055	24213
840.193	24155
840.33	24030
840.467	24087
840.604	24129
840.742	24414
840.879	23980
841.016	24064
841.153	23950
841.29	24174
841.427	24064
841.564	24235
841.701	24140
841.838	24064
841.975	23958
842.112	24018
842.249	23866
842.385	23874
842.522	24079
842.659	23999
842.796	23748
842.933	23840
843.069	23802
843.206	23855
843.343	23904
843.479	23764
843.616	23984
843.752	23729
843.889	23707
844.025	23851
844.162	23657
844.298	23646
844.435	23665
844.571	23505
844.708	23535
844.844	23691
844.98	23832
845.117	23809
845.253	23562
845.389	23520
845.525	23486
845.661	23554
845.798	23383
845.934	23318
846.07	23364
846.206	23322
846.342	23562
846.478	23288
846.614	23242
846.75	23155
846.886	23048
847.022	23254
847.158	23143
847.294	23102
847.429	23124
847.565	23147
847.701	23349
847.837	22774
847.972	22717
848.108	22858
848.244	22930
848.379	22603
848.515	22634
848.65	22630
848.786	22630
848.921	22675
849.057	22763
849.192	22759
849.328	22736
849.463	22725
849.598	22660
849.734	22550
849.869	22493
850.004	22398
850.14	22493
850.275	22466
850.41	22386
850.545	22459
850.68	22561
850.815	22508
850.95	22546
851.085	22573
851.22	22573
851.355	22523
851.49	22329
851.625	22432
851.76	22424
851.895	22329
852.03	22306
852.165	22512
852.299	22493
852.434	22573
852.569	22516
852.703	22421
852.838	22538
852.973	22542
853.107	22577
853.242	22390
853.376	22268
853.511	22166
853.645	22287
853.78	22489
853.914	22265
854.048	22314
854.183	22272
854.317	22398
854.451	22405
854.585	22306
854.72	22265
854.854	22413
854.988	22261
855.122	22230
855.256	22185
855.39	22166
855.524	22287
855.658	22413
855.792	22265
855.926	22234
856.06	22329
856.194	22242
856.327	22242
856.461	22185
856.595	22242
856.729	22242
856.862	22390
856.996	22223
857.13	22291
857.263	22379
857.397	22360
857.53	22303
857.664	22417
857.797	22398
857.931	22303
858.064	22329
858.197	22257
858.331	22261
858.464	22295
858.597	22192
858.731	22154
858.864	22318
858.997	22150
859.13	22272
859.263	22261
859.396	22394
859.529	22192
859.662	22299
859.795	22276
859.928	22314
860.061	22478
860.194	22565
860.327	22291
860.46	22291
860.592	22424
860.725	22527
860.858	22466
860.99	22398
861.123	22166
861.256	22101
861.388	22234
861.521	22995
861.653	22101
861.786	21975
861.918	22116
862.05	22181
862.183	22238
862.315	22230
862.447	22185
862.58	22067
862.712	21975
862.844	21915
862.976	22070
863.108	22051
863.24	22531
863.372	21968
863.504	21968
863.636	21911
863.768	22044
863.9	21953
864.032	21865
864.164	21994
864.296	21930
864.428	22032
864.559	22048
864.691	22070
864.823	21953
864.954	22013
865.086	21930
865.217	21903
865.349	21766
865.48	21838
865.612	21819
865.743	21926
865.875	21854
866.006	21850
866.137	21884
866.269	21880
866.4	21705
866.531	21724
866.662	21679
866.793	21804
866.924	21720
867.055	21816
867.186	21804
867.317	21679
867.448	21644
867.579	21682
867.71	21690
867.841	21827
867.972	21812
868.103	21804
868.233	21774
868.364	21717
868.495	21991
868.625	22055
868.756	22082
868.886	21953
869.017	22032
869.147	22109
869.278	22173
869.408	22025
869.539	21998
869.669	22200
869.799	22128
869.929	22207
870.06	22147
870.19	22303
870.32	22333
870.45	22215
870.58	22451
870.71	22447
870.84	22546
870.97	22447
871.1	22341
871.23	22710
871.36	22508
871.489	22557
871.619	22599
871.749	22637
871.879	22679
872.008	22782
872.138	22736
872.267	22637
872.397	22519
872.526	22455
872.656	22451
872.785	22554
872.915	22618
873.044	22759
873.173	22710
873.303	22573
873.432	22649
873.561	22843
873.69	22672
873.819	22588
873.948	22683
874.077	22687
874.206	22588
874.335	22596
874.464	22790
874.593	22740
874.722	22850
874.851	22809
874.979	22858
875.108	22828
875.237	22790
875.365	22843
875.494	22729
875.623	22771
875.751	22790
875.88	22938
876.008	22991
876.136	23124
876.265	23341
876.393	23334
876.521	23311
876.65	23299
876.778	23261
876.906	23189
877.034	23204
877.162	23212
877.29	23159
877.418	23212
877.546	23246
877.674	23322
877.802	23121
877.93	23216
878.058	23105
878.185	23067
878.313	23174
878.441	23181
878.568	23048
878.696	23094
878.824	23231
878.951	23284
879.079	23322
879.206	23493
879.333	23414
879.461	23235
879.588	23383
879.715	23395
879.842	23376
879.97	23200
880.097	22980
880.224	22991
880.351	22976
880.478	23044
880.605	23102
880.732	22927
880.859	23212
880.986	23033
881.112	22999
881.239	22824
881.366	22831
881.493	22626
881.619	22535
881.746	22630
881.872	22641
881.999	22489
882.125	22527
882.252	22660
882.378	22447
882.505	22546
882.631	22497
882.757	22211
882.883	22329
883.01	22310
883.136	22268
883.262	22063
883.388	22097
883.514	22402
883.64	22249
883.766	22223
883.892	22070
884.018	21994
884.143	22154
884.269	22128
884.395	22006
884.52	21892
884.646	21930
884.772	21838
884.897	21797
885.023	22032
885.148	22032
885.274	21960
885.399	22010
885.524	21975
885.65	21941
885.775	21953
885.9	21835
886.025	22013
886.15	21880
886.275	21743
886.4	21850
886.525	21823
886.65	21804
886.775	21686
886.9	21983
887.025	22181
887.149	21865
887.274	21671
887.399	21679
887.523	21717
887.648	21542
887.773	21679
887.897	21720
888.021	21720
888.146	21515
888.27	21751
888.395	21762
888.519	21675
888.643	21519
888.767	21667
888.891	21671
889.015	21542
889.139	21507
889.263	21393
889.387	21454
889.511	21686
889.635	21675
889.759	21477
889.883	21450
890.006	21458
890.13	21511
890.254	21393
890.377	21374
890.501	21135
890.624	21252
890.748	21237
890.871	21066
890.995	21013
891.118	20933
891.241	21066
891.364	20883
891.488	21169
891.611	21028
891.734	20998
891.857	21127
891.98	20948
892.103	21077
892.226	20944
892.349	20956
892.471	20807
892.594	20895
892.717	20971
892.839	20941
892.962	20960
893.085	20948
893.207	20887
893.33	20830
893.452	20773
893.575	20918
893.697	20994
893.819	20975
893.941	21074
894.064	20921
894.186	20800
894.308	20883
894.43	21051
894.552	20967
894.674	20872
894.796	20807
894.918	20830
895.04	20720
895.161	21055
895.283	20933
895.405	20785
895.526	20891
895.648	20861
895.769	20880
895.891	20925
896.012	21077
896.134	20918
896.255	20933
896.376	20838
896.498	20982
896.619	20902
896.74	20819
896.861	20883
896.982	21180
897.103	21367
897.224	21100
897.345	21077
897.466	20960
897.587	21112
897.708	21138
897.828	21104
897.949	20952
898.07	21020
898.19	21055
898.311	21199
898.431	21009
898.552	21062
898.672	21096
898.792	21192
898.913	21123
899.033	20971
899.153	20929
899.273	20712
899.393	20663
899.513	20743
899.633	20956
899.753	20910
899.873	20861
899.993	20781
900.113	20792
900.232	20826
900.352	20754
900.472	20583
900.591	20446
900.711	20727
900.83	20598
900.95	20754
901.069	20746
901.189	20385
901.308	20294
901.427	20119
901.546	20324
901.665	20290
901.784	20081
901.904	20043
902.023	20050
902.141	19879
902.26	19727
902.379	19765
902.498	19719
902.617	19597
902.735	19613
902.854	19578
902.973	19597
903.091	19403
903.21	19202
903.328	19320
903.446	19194
903.565	19126
903.683	19160
903.801	18954
903.919	19042
904.038	19038
904.156	18928
904.274	19004
904.392	18878
904.51	19004
904.627	18821
904.745	18909
904.863	18856
904.981	18684
905.098	18646
905.216	18525
905.334	18726
905.451	18566
905.569	18585
905.686	18452
905.803	18467
905.921	18448
906.038	18410
906.155	18323
906.272	18239
906.389	18251
906.506	18136
906.623	18159
906.74	18110
906.857	18007
906.974	18011
907.091	18079
907.208	18190
907.324	18076
907.441	17942
907.557	17748
907.674	17737
907.79	17752
907.907	17851
908.023	17802
908.139	17824
908.256	17798
908.372	17695
908.488	17745
908.604	17528
908.72	17497
908.836	17463
908.952	17425
909.068	17539
909.184	17501
909.3	17425
909.415	17505
909.531	17433
909.647	17174
909.762	17277
909.878	17162
909.993	17284
910.108	17132
910.224	17147
910.339	17174
910.454	16987
910.57	17029
910.685	16908
910.8	17204
910.915	17208
911.03	16816
911.145	16778
911.259	16801
911.374	16786
911.489	16694
911.604	16611
911.718	16569
911.833	16523
911.947	16375
912.062	16474
912.176	16660
912.291	16497
912.405	16588
912.519	16687
912.633	16801
912.748	16512
912.862	16455
912.976	16352
913.09	16253
913.204	16287
913.318	16356
913.431	16371
913.545	16398
913.659	16390
913.772	16318
913.886	16238
914	16032
914.113	16246
914.226	16219
914.34	16246
914.453	16059
914.566	16150
914.68	16032
914.793	16006
914.906	15816
915.019	15675
915.132	15629
915.245	15671
915.358	15774
915.47	15728
915.583	15823
915.696	15755
915.809	15819
915.921	15850
916.034	15606
916.146	15698
916.259	15663
916.371	15660
916.483	15572
916.595	15587
916.708	15553
916.82	15450
916.932	15447
917.044	15549
917.156	15507
917.268	15424
917.38	15428
917.491	15294
917.603	15412
917.715	15386
917.826	15370
917.938	15157
918.049	15150
918.161	15237
918.272	15408
918.384	15382
918.495	15188
918.606	15127
918.717	15077
918.828	15116
918.939	15131
919.05	14994
919.161	15001
919.272	14883
919.383	14895
919.494	15062
919.604	15355
919.715	15081
919.826	15005
919.936	14925
920.047	15142
920.157	14998
920.267	15272
920.378	15070
920.488	14941
920.598	15268
920.708	15287
920.818	15188
920.928	15195
921.038	15268
921.148	15344
921.258	14864
921.368	14899
921.477	14754
921.587	14762
921.697	14583
921.806	14777
921.916	14579
922.025	14442
922.134	14423
922.244	14343
922.353	14446
922.462	14313
922.571	14164
922.68	14043
922.789	14096
922.898	13963
923.007	13978
923.116	14012
923.224	13963
923.333	14005
923.442	13902
923.55	13898
923.659	13856
923.767	13928
923.876	13822
923.984	13940
924.092	13780
924.201	13791
924.309	13784
924.417	13841
924.525	13677
924.633	13677
924.741	14541
924.849	13445
924.956	13674
925.064	13510
925.172	13384
925.279	13422
925.387	13476
925.494	13365
925.602	13506
925.709	13464
925.816	13358
925.924	13373
926.031	13514
926.138	13350
926.245	13445
926.352	13293
926.459	13362
926.566	13358
926.673	13312
926.779	13129
926.886	13179
926.993	13000
927.099	13012
927.206	12916
927.312	12939
927.419	13061
927.525	12909
927.631	12996
927.737	12856
927.843	12867
927.95	12665
928.056	12745
928.162	12852
928.267	12795
928.373	13426
928.479	12856
928.585	12601
928.69	12722
928.796	12764
928.901	12604
929.007	12559
929.112	12654
929.218	12646
929.323	12502
929.428	12601
929.533	12665
929.638	12353
929.743	12456
929.848	12585
929.953	12380
930.058	12270
930.163	12178
930.267	12273
930.372	12289
930.477	12186
930.581	12395
930.685	12186
930.79	12045
930.894	12106
930.998	12026
931.103	12239
931.207	11703
931.311	11733
931.415	11665
931.519	11463
931.623	11433
