Data from test_V78500241_3449.txt Node
Date: Fri Mar 25 16:05:41 CST 2022
User: usil
Spectrometer: V785-0024
Trigger mode: 0
Integration Time (sec): 4.000000E-1
Scans to average: 1
Nonlinearity correction enabled: false
Boxcar width: 0
Storing dark spectrum: false
XAxis mode: Wavelengths
Number of Pixels in Spectrum: 1024
>>>>>Begin Spectral Data<<<<<
801.071	28869
801.214	28888
801.356	28622
801.499	28599
801.641	28497
801.783	28497
801.926	28535
802.068	28527
802.211	28489
802.353	28447
802.496	28211
802.638	28196
802.78	28124
802.923	28219
803.065	28067
803.208	28090
803.35	28173
803.492	28360
803.635	28333
803.777	28238
803.919	28306
804.061	28759
804.204	28447
804.346	28337
804.488	28371
804.63	28401
804.773	28386
804.915	28615
805.057	28584
805.199	28466
805.341	28660
805.483	28649
805.626	28626
805.768	28580
805.91	28679
806.052	28637
806.194	28390
806.336	28729
806.478	28618
806.62	28481
806.762	28694
806.904	28972
807.046	29246
807.188	29086
807.33	28987
807.472	29174
807.614	29102
807.756	29071
807.898	28953
808.04	28877
808.182	28854
808.324	28923
808.465	28961
808.607	29071
808.749	29261
808.891	29387
809.033	29444
809.174	29345
809.316	29368
809.458	29288
809.6	29128
809.741	29356
809.883	29478
810.025	29619
810.166	29623
810.308	29615
810.45	29615
810.591	29471
810.733	29452
810.875	29372
811.016	29261
811.158	29178
811.299	29524
811.441	29512
811.582	29482
811.724	29345
811.865	29239
812.007	29223
812.148	29379
812.29	29398
812.431	29429
812.573	29707
812.714	29695
812.855	29836
812.997	29824
813.138	29973
813.279	30049
813.421	29794
813.562	29790
813.703	29573
813.845	29646
813.986	29288
814.127	29166
814.268	28820
814.41	29052
814.551	29048
814.692	29162
814.833	29014
814.974	28980
815.115	29140
815.256	28972
815.397	28873
815.539	28942
815.68	28767
815.821	28915
815.962	28721
816.103	28900
816.244	28748
816.385	28592
816.526	28565
816.666	28428
816.807	28405
816.948	28436
817.089	28462
817.23	28367
817.371	28173
817.512	28291
817.653	28436
817.793	28280
817.934	28474
818.075	28310
818.216	28325
818.356	28424
818.497	28310
818.638	28131
818.778	28128
818.919	28143
819.06	28219
819.2	28310
819.341	28291
819.481	28523
819.622	28497
819.762	28793
819.903	28630
820.043	28683
820.184	28478
820.324	28550
820.465	28565
820.605	28569
820.746	28550
820.886	28470
821.026	28508
821.167	28363
821.307	28440
821.447	28436
821.588	28360
821.728	28276
821.868	28059
822.008	27797
822.149	27846
822.289	27778
822.429	27485
822.569	27511
822.709	27538
822.849	27397
822.99	27355
823.13	27298
823.27	27344
823.41	27302
823.55	27100
823.69	27214
823.83	27275
823.97	27051
824.11	27001
824.25	26933
824.389	27013
824.529	26956
824.669	26933
824.809	27195
824.949	27108
825.089	27173
825.228	27062
825.368	26807
825.508	26857
825.648	26994
825.787	26998
825.927	27116
826.067	26940
826.206	26891
826.346	26960
826.485	26975
826.625	26788
826.765	26929
826.904	26948
827.044	26705
827.183	26659
827.323	26621
827.462	26701
827.601	26667
827.741	26621
827.88	26705
828.02	26442
828.159	26530
828.298	26716
828.437	26701
828.577	26484
828.716	26716
828.855	26381
828.994	26229
829.134	26332
829.273	26362
829.412	26187
829.551	26202
829.69	26339
829.829	26347
829.968	26313
830.107	26351
830.246	26347
830.385	26210
830.524	26176
830.663	26096
830.802	26065
830.941	25811
831.08	25811
831.219	26115
831.357	26065
831.496	26153
831.635	26043
831.774	25947
831.913	25868
832.051	25727
832.19	25715
832.329	25681
832.467	25620
832.606	25521
832.744	25495
832.883	25521
833.022	25563
833.16	25586
833.299	25563
833.437	25727
833.576	25837
833.714	25548
833.852	25719
833.991	25601
834.129	25746
834.267	25742
834.406	25643
834.544	25590
834.682	25666
834.821	25674
834.959	25803
835.097	25597
835.235	25719
835.373	25502
835.511	25590
835.65	25575
835.788	25514
835.926	25415
836.064	25320
836.202	25285
836.34	25552
836.478	25533
836.615	25499
836.753	25487
836.891	25533
837.029	25487
837.167	25407
837.305	25441
837.443	25228
837.58	25297
837.718	25293
837.856	25263
837.993	25278
838.131	25285
838.269	25278
838.406	25137
838.544	25057
838.681	25027
838.819	24852
838.956	24681
839.094	24730
839.231	24764
839.369	24821
839.506	25126
839.643	25004
839.781	24749
839.918	24654
840.055	24741
840.193	24829
840.33	24741
840.467	24677
840.604	24726
840.742	24905
840.879	24536
841.016	24650
841.153	24448
841.29	24798
841.427	24597
841.564	24825
841.701	24791
841.838	24665
841.975	24540
842.112	24681
842.249	24464
842.385	24456
842.522	24722
842.659	24635
842.796	24399
842.933	24544
843.069	24285
843.206	24342
843.343	24399
843.479	24517
843.616	24388
843.752	24152
843.889	24178
844.025	24216
844.162	24155
844.298	24232
844.435	24190
844.571	24171
844.708	24350
844.844	24376
844.98	24300
845.117	24407
845.253	24091
845.389	24140
845.525	24049
845.661	24197
845.798	23946
845.934	24038
846.07	23889
846.206	24117
846.342	24083
846.478	23783
846.614	23813
846.75	23551
846.886	23630
847.022	23726
847.158	23600
847.294	23520
847.429	23680
847.565	23714
847.701	23912
847.837	23471
847.972	23303
848.108	23531
848.244	23436
848.379	23296
848.515	23204
848.65	23223
848.786	23242
848.921	23258
849.057	23402
849.192	23326
849.328	23353
849.463	23258
849.598	23124
849.734	23189
849.869	23075
850.004	22877
850.14	23006
850.275	22972
850.41	22923
850.545	22782
850.68	23094
850.815	23083
850.95	22923
851.085	23181
851.22	23117
851.355	23041
851.49	22934
851.625	23014
851.76	22957
851.895	23067
852.03	22900
852.165	23098
852.299	23132
852.434	23052
852.569	23113
852.703	23014
852.838	23083
852.973	23117
853.107	23071
853.242	23048
853.376	22816
853.511	22664
853.645	22755
853.78	22877
853.914	22949
854.048	22752
854.183	22740
854.317	22797
854.451	23162
854.585	22919
854.72	22885
854.854	22862
854.988	22736
855.122	22984
855.256	22755
855.39	22797
855.524	22900
855.658	22786
855.792	22744
855.926	22839
856.06	22812
856.194	22957
856.327	22740
856.461	22877
856.595	22744
856.729	22710
856.862	22934
856.996	22816
857.13	22889
857.263	22908
857.397	22790
857.53	22733
857.664	22763
857.797	22854
857.931	22980
858.064	22809
858.197	22881
858.331	22900
858.464	22782
858.597	22733
858.731	22740
858.864	22713
858.997	22801
859.13	22831
859.263	22828
859.396	22892
859.529	22839
859.662	22885
859.795	22729
859.928	22862
860.061	22980
860.194	23105
860.327	22866
860.46	22839
860.592	22889
860.725	23025
860.858	22980
860.99	22858
861.123	22698
861.256	22805
861.388	22763
861.521	23429
861.653	22725
861.786	22748
861.918	22611
862.05	22782
862.183	22759
862.315	22782
862.447	22835
862.58	22683
862.712	22550
862.844	22394
862.976	22763
863.108	22694
863.24	22896
863.372	22421
863.504	22424
863.636	22538
863.768	22519
863.9	22519
864.032	22424
864.164	22440
864.296	22691
864.428	22626
864.559	22569
864.691	22550
864.823	22489
864.954	22546
865.086	22512
865.217	22424
865.349	22371
865.48	22413
865.612	22394
865.743	22523
865.875	22371
866.006	22459
866.137	22322
866.269	22557
866.4	22280
866.531	22333
866.662	22344
866.793	22287
866.924	22306
867.055	22284
867.186	22284
867.317	22303
867.448	22219
867.579	22367
867.71	22287
867.841	22215
867.972	22379
868.103	22249
868.233	22333
868.364	22238
868.495	22428
868.625	22527
868.756	22672
868.886	22493
869.017	22615
869.147	22615
869.278	22687
869.408	22531
869.539	22603
869.669	22561
869.799	22489
869.929	22759
870.06	22634
870.19	22892
870.32	22824
870.45	22881
870.58	22972
870.71	23052
870.84	23185
870.97	22987
871.1	23086
871.23	23200
871.36	23174
871.489	23124
871.619	23090
871.749	23208
871.879	23284
872.008	23318
872.138	23132
872.267	23208
872.397	23162
872.526	22972
872.656	22923
872.785	22961
872.915	23151
873.044	23277
873.173	23162
873.303	23235
873.432	23269
873.561	23303
873.69	23303
873.819	23250
873.948	23395
874.077	23128
874.206	23090
874.335	23124
874.464	23277
874.593	23436
874.722	23372
874.851	23490
874.979	23444
875.108	23429
875.237	23368
875.365	23303
875.494	23277
875.623	23471
875.751	23364
875.88	23486
876.008	23581
876.136	23604
876.265	23680
876.393	23889
876.521	23828
876.65	23954
876.778	23786
876.906	23623
877.034	23817
877.162	23863
877.29	23619
877.418	23794
877.546	23764
877.674	23745
877.802	23748
877.93	23581
878.058	23695
878.185	23668
878.313	23665
878.441	23596
878.568	23634
878.696	23615
878.824	23737
878.951	23627
879.079	23954
879.206	24091
879.333	23874
879.461	23756
879.588	23847
879.715	23885
879.842	24057
879.97	23897
880.097	23608
880.224	23649
880.351	23592
880.478	23577
880.605	23474
880.732	23509
880.859	23916
880.986	23493
881.112	23699
881.239	23482
881.366	23356
881.493	23166
881.619	23010
881.746	23162
881.872	23102
881.999	22953
882.125	23052
882.252	23258
882.378	22968
882.505	23216
882.631	22965
882.757	22843
882.883	22816
883.01	22717
883.136	22759
883.262	22782
883.388	22523
883.514	22679
883.64	22778
883.766	22729
883.892	22599
884.018	22538
884.143	22645
884.269	22767
884.395	22493
884.52	22299
884.646	22413
884.772	22405
884.897	22246
885.023	22329
885.148	22523
885.274	22596
885.399	22531
885.524	22455
885.65	22405
885.775	22436
885.9	22272
886.025	22489
886.15	22607
886.275	22333
886.4	22363
886.525	22382
886.65	22306
886.775	22329
886.9	22382
887.025	22550
887.149	22382
887.274	22200
887.399	22253
887.523	22166
887.648	22124
887.773	22063
887.897	22158
888.021	22181
888.146	22112
888.27	22253
888.395	22196
888.519	22120
888.643	22158
888.767	22207
888.891	22105
889.015	22070
889.139	21983
889.263	21945
889.387	21926
889.511	22200
889.635	21987
889.759	21949
889.883	22036
890.006	21903
890.13	22143
890.254	21823
890.377	21823
890.501	21701
890.624	21762
890.748	21797
890.871	21599
890.995	21492
891.118	21393
891.241	21595
891.364	21443
891.488	21591
891.611	21622
891.734	21462
891.857	21519
891.98	21428
892.103	21542
892.226	21519
892.349	21420
892.471	21332
892.594	21443
892.717	21389
892.839	21492
892.962	21268
893.085	21302
893.207	21252
893.33	21283
893.452	21268
893.575	21386
893.697	21340
893.819	21500
893.941	21545
894.064	21583
894.186	21173
894.308	21317
894.43	21435
894.552	21466
894.674	21424
894.796	21420
894.918	21214
895.04	21291
895.161	21283
895.283	21412
895.405	21325
895.526	21378
895.648	21287
895.769	21313
895.891	21351
896.012	21485
896.134	21477
896.255	21302
896.376	21252
896.498	21386
896.619	21329
896.74	21294
896.861	21275
896.982	21656
897.103	21842
897.224	21644
897.345	21603
897.466	21488
897.587	21595
897.708	21663
897.828	21747
897.949	21435
898.07	21325
898.19	21466
898.311	21534
898.431	21526
898.552	21511
898.672	21648
898.792	21523
898.913	21564
899.033	21325
899.153	21382
899.273	21294
899.393	21298
899.513	21401
899.633	21283
899.753	21348
899.873	21207
899.993	21211
900.113	21161
900.232	21249
900.352	21055
900.472	21017
900.591	20979
900.711	21039
900.83	20918
900.95	21058
901.069	21089
901.189	21017
901.308	20670
901.427	20625
901.546	20617
901.665	20632
901.784	20583
901.904	20480
902.023	20248
902.141	20084
902.26	20157
902.379	20168
902.498	20100
902.617	19928
902.735	19936
902.854	20084
902.973	20027
903.091	19841
903.21	19761
903.328	19632
903.446	19666
903.565	19613
903.683	19594
903.801	19457
903.919	19487
904.038	19476
904.156	19270
904.274	19400
904.392	19293
904.51	19308
904.627	19209
904.745	19278
904.863	19206
904.981	19137
905.098	18985
905.216	19004
905.334	19099
905.451	19053
905.569	18894
905.686	18913
905.803	18844
905.921	18787
906.038	18760
906.155	18814
906.272	18639
906.389	18749
906.506	18521
906.623	18490
906.74	18376
906.857	18426
906.974	18388
907.091	18582
907.208	18673
907.324	18544
907.441	18388
907.557	18292
907.674	18174
907.79	18049
907.907	18167
908.023	18121
908.139	18235
908.256	18232
908.372	18125
908.488	18030
908.604	17973
908.72	17954
908.836	17950
908.952	17832
909.068	18007
909.184	18019
909.3	17897
909.415	17969
909.531	17893
909.647	17668
909.762	17543
909.878	17558
909.993	17661
910.108	17512
910.224	17444
910.339	17532
910.454	17467
910.57	17356
910.685	17452
910.8	17577
910.915	17524
911.03	17436
911.145	17212
911.259	17117
911.374	17086
911.489	17239
911.604	17064
911.718	16999
911.833	16862
911.947	16946
912.062	16809
912.176	16904
912.291	16786
912.405	16908
912.519	17193
912.633	17056
912.748	17025
912.862	16847
912.976	16744
913.09	16660
913.204	16668
913.318	16740
913.431	16854
913.545	16927
913.659	16782
913.772	16691
913.886	16607
914	16455
914.113	16577
914.226	16672
914.34	16603
914.453	16596
914.566	16516
914.68	16356
914.793	16424
914.906	16101
915.019	16162
915.132	16002
915.245	16074
915.358	16131
915.47	16120
915.583	16021
915.696	16162
915.809	16147
915.921	16211
916.034	16013
916.146	15918
916.259	16017
916.371	16093
916.483	16017
916.595	15983
916.708	15869
916.82	15930
916.932	15850
917.044	15831
917.156	15808
917.268	15652
917.38	15663
917.491	15682
917.603	15591
917.715	15724
917.826	15819
917.938	15633
918.049	15500
918.161	15667
918.272	15785
918.384	15778
918.495	15610
918.606	15420
918.717	15435
918.828	15454
918.939	15466
919.05	15340
919.161	15332
919.272	15199
919.383	15226
919.494	15450
919.604	15557
919.715	15412
919.826	15431
919.936	15378
920.047	15420
920.157	15344
920.267	15629
920.378	15382
920.488	15408
920.598	15542
920.708	15625
920.818	15526
920.928	15500
921.038	15637
921.148	15629
921.258	15294
921.368	15233
921.477	15207
921.587	15123
921.697	15028
921.806	15043
921.916	14952
922.025	14819
922.134	14724
922.244	14693
922.353	14849
922.462	14644
922.571	14655
922.68	14393
922.789	14385
922.898	14358
923.007	14385
923.116	14431
923.224	14370
923.333	14370
923.442	14202
923.55	14298
923.659	14176
923.767	14286
923.876	14126
923.984	14301
924.092	14050
924.201	14065
924.309	14195
924.417	14073
924.525	14031
924.633	14054
924.741	14941
924.849	13814
924.956	13959
925.064	13791
925.172	13655
925.279	13776
925.387	13845
925.494	13818
925.602	13864
925.709	13738
925.816	13693
925.924	13674
926.031	13890
926.138	13723
926.245	13715
926.352	13582
926.459	13784
926.566	13715
926.673	13681
926.779	13540
926.886	13506
926.993	13259
927.099	13282
927.206	13384
927.312	13221
927.419	13381
927.525	13259
927.631	13411
927.737	13187
927.843	13168
927.95	13050
928.056	13187
928.162	13213
928.267	13133
928.373	13765
928.479	13156
928.585	12935
928.69	13042
928.796	13057
928.901	12973
929.007	12772
929.112	13027
929.218	12939
929.323	12856
929.428	12821
929.533	12932
929.638	12753
929.743	12764
929.848	12783
929.953	12856
930.058	12566
930.163	12506
930.267	12490
930.372	12566
930.477	12426
930.581	12681
930.685	12490
930.79	12372
930.894	12475
930.998	12369
931.103	12574
931.207	12114
931.311	12117
931.415	11916
931.519	11824
931.623	11775
