Data from test_V78500241_2442.txt Node
Date: Fri Mar 25 15:58:43 CST 2022
User: usil
Spectrometer: V785-0024
Trigger mode: 0
Integration Time (sec): 4.000000E-1
Scans to average: 1
Nonlinearity correction enabled: false
Boxcar width: 0
Storing dark spectrum: false
XAxis mode: Wavelengths
Number of Pixels in Spectrum: 1024
>>>>>Begin Spectral Data<<<<<
801.071	28782
801.214	28687
801.356	28306
801.499	28379
801.641	28158
801.783	28211
801.926	28303
802.068	28246
802.211	28188
802.353	28120
802.496	27983
802.638	27831
802.78	27987
802.923	27865
803.065	27819
803.208	27880
803.35	27979
803.492	28120
803.635	28238
803.777	28105
803.919	28272
804.061	28447
804.204	28356
804.346	28162
804.488	28185
804.63	28166
804.773	27953
804.915	28325
805.057	28459
805.199	28158
805.341	28303
805.483	28405
805.626	28230
805.768	28246
805.91	28287
806.052	28291
806.194	28409
806.336	28733
806.478	28413
806.62	28440
806.762	28512
806.904	28809
807.046	28854
807.188	28820
807.33	28702
807.472	28797
807.614	28771
807.756	28809
807.898	28531
808.04	28584
808.182	28538
808.324	28721
808.465	28569
808.607	28854
808.749	29094
808.891	29132
809.033	29193
809.174	29155
809.316	28957
809.458	28957
809.6	29029
809.741	29189
809.883	29109
810.025	29307
810.166	29227
810.308	29345
810.45	29269
810.591	29360
810.733	29098
810.875	29090
811.016	29086
811.158	29159
811.299	29140
811.441	29227
811.582	29242
811.724	29052
811.865	29166
812.007	29143
812.148	28976
812.29	29246
812.431	29185
812.573	29448
812.714	29516
812.855	29684
812.997	29707
813.138	29794
813.279	29684
813.421	29581
813.562	29600
813.703	29524
813.845	29292
813.986	28991
814.127	28911
814.268	28816
814.41	28748
814.551	28839
814.692	28831
814.833	28691
814.974	28706
815.115	28664
815.256	28637
815.397	28763
815.539	28615
815.68	28607
815.821	28516
815.962	28497
816.103	28527
816.244	28447
816.385	28390
816.526	28371
816.666	28017
816.807	28158
816.948	28230
817.089	28223
817.23	28211
817.371	28059
817.512	28074
817.653	28078
817.793	27846
817.934	28135
818.075	28109
818.216	28177
818.356	28059
818.497	27968
818.638	27960
818.778	27789
818.919	27838
819.06	27899
819.2	27975
819.341	28147
819.481	28093
819.622	28234
819.762	28421
819.903	28367
820.043	28303
820.184	28166
820.324	28192
820.465	28329
820.605	28276
820.746	28204
820.886	28029
821.026	28280
821.167	28139
821.307	28173
821.447	28116
821.588	28055
821.728	27861
821.868	27770
822.008	27637
822.149	27618
822.289	27526
822.429	27336
822.569	27226
822.709	27264
822.849	27028
822.99	27146
823.13	27066
823.27	27131
823.41	26914
823.55	26800
823.69	26883
823.83	26956
823.97	26826
824.11	26724
824.25	26739
824.389	26667
824.529	26868
824.669	26701
824.809	26819
824.949	26659
825.089	26891
825.228	26594
825.368	26594
825.508	26613
825.648	26640
825.787	26625
825.927	26587
826.067	26522
826.206	26556
826.346	26697
826.485	26674
826.625	26590
826.765	26811
826.904	26727
827.044	26393
827.183	26415
827.323	26339
827.462	26374
827.601	26393
827.741	26286
827.88	26446
828.02	26317
828.159	26427
828.298	26218
828.437	26549
828.577	26377
828.716	26457
828.855	26275
828.994	26054
829.134	26073
829.273	26043
829.412	26065
829.551	25879
829.69	26100
829.829	26107
829.968	26233
830.107	26100
830.246	26020
830.385	25947
830.524	25864
830.663	25746
830.802	25750
830.941	25658
831.08	25578
831.219	25651
831.357	25616
831.496	25868
831.635	25590
831.774	25578
831.913	25571
832.051	25476
832.19	25460
832.329	25476
832.467	25293
832.606	25426
832.744	25122
832.883	25354
833.022	25259
833.16	25266
833.299	25388
833.437	25228
833.576	25392
833.714	25339
833.852	25419
833.991	25449
834.129	25563
834.267	25392
834.406	25301
834.544	25419
834.682	25426
834.821	25312
834.959	25476
835.097	25365
835.235	25396
835.373	25350
835.511	25381
835.65	25209
835.788	25266
835.926	25019
836.064	24951
836.202	24962
836.34	25206
836.478	25247
836.615	25133
836.753	25244
836.891	25297
837.029	25107
837.167	25091
837.305	25088
837.443	25107
837.58	24977
837.718	24989
837.856	24901
837.993	24973
838.131	25046
838.269	24768
838.406	24814
838.544	24779
838.681	24730
838.819	24578
838.956	24486
839.094	24486
839.231	24563
839.369	24681
839.506	24840
839.643	24620
839.781	24563
839.918	24445
840.055	24380
840.193	24544
840.33	24315
840.467	24460
840.604	24296
840.742	24536
840.879	24228
841.016	24353
841.153	24216
841.29	24536
841.427	24243
841.564	24372
841.701	24384
841.838	24213
841.975	24232
842.112	24414
842.249	24266
842.385	24171
842.522	24327
842.659	24232
842.796	24049
842.933	24072
843.069	23977
843.206	24125
843.343	24209
843.479	24095
843.616	24117
843.752	23973
843.889	23973
844.025	24072
844.162	23969
844.298	24018
844.435	23840
844.571	23771
844.708	23999
844.844	23973
844.98	24057
845.117	23950
845.253	23665
845.389	23855
845.525	23798
845.661	23714
845.798	23619
845.934	23619
846.07	23570
846.206	23611
846.342	23817
846.478	23638
846.614	23501
846.75	23452
846.886	23402
847.022	23490
847.158	23395
847.294	23337
847.429	23402
847.565	23334
847.701	23562
847.837	23128
847.972	22984
848.108	23025
848.244	22991
848.379	22835
848.515	22858
848.65	22953
848.786	22866
848.921	23048
849.057	23064
849.192	23037
849.328	23067
849.463	22953
849.598	22858
849.734	22763
849.869	22679
850.004	22656
850.14	22687
850.275	22641
850.41	22611
850.545	22744
850.68	22649
850.815	22736
850.95	22733
851.085	22904
851.22	22854
851.355	22687
851.49	22672
851.625	22679
851.76	22649
851.895	22637
852.03	22702
852.165	22546
852.299	22771
852.434	22790
852.569	22797
852.703	22713
852.838	22706
852.973	22790
853.107	22755
853.242	22656
853.376	22577
853.511	22386
853.645	22565
853.78	22592
853.914	22573
854.048	22694
854.183	22504
854.317	22542
854.451	22809
854.585	22603
854.72	22565
854.854	22580
854.988	22466
855.122	22569
855.256	22318
855.39	22481
855.524	22577
855.658	22603
855.792	22500
855.926	22470
856.06	22527
856.194	22653
856.327	22607
856.461	22519
856.595	22538
856.729	22428
856.862	22637
856.996	22500
857.13	22531
857.263	22649
857.397	22531
857.53	22394
857.664	22573
857.797	22615
857.931	22577
858.064	22569
858.197	22611
858.331	22626
858.464	22519
858.597	22481
858.731	22481
858.864	22500
858.997	22512
859.13	22462
859.263	22466
859.396	22375
859.529	22436
859.662	22375
859.795	22398
859.928	22554
860.061	22740
860.194	22850
860.327	22717
860.46	22531
860.592	22573
860.725	22607
860.858	22733
860.99	22481
861.123	22466
861.256	22424
861.388	22489
861.521	23090
861.653	22382
861.786	22371
861.918	22291
862.05	22413
862.183	22348
862.315	22500
862.447	22519
862.58	22402
862.712	22310
862.844	22154
862.976	22272
863.108	22257
863.24	22622
863.372	22162
863.504	22333
863.636	22188
863.768	22226
863.9	22299
864.032	22021
864.164	22226
864.296	22295
864.428	22363
864.559	22344
864.691	22314
864.823	22207
864.954	22303
865.086	22162
865.217	22120
865.349	22032
865.48	22204
865.612	22097
865.743	22181
865.875	22097
866.006	22059
866.137	22109
866.269	21991
866.4	22169
866.531	21968
866.662	22029
866.793	21987
866.924	22082
867.055	22139
867.186	22006
867.317	22017
867.448	21987
867.579	22029
867.71	21880
867.841	22013
867.972	22006
868.103	21945
868.233	22116
868.364	21983
868.495	22166
868.625	22242
868.756	22428
868.886	22188
869.017	22341
869.147	22440
869.278	22394
869.408	22352
869.539	22265
869.669	22234
869.799	22348
869.929	22409
870.06	22360
870.19	22774
870.32	22554
870.45	22641
870.58	22687
870.71	22752
870.84	22816
870.97	22554
871.1	22630
871.23	22729
871.36	22885
871.489	22919
871.619	22839
871.749	22850
871.879	22793
872.008	22995
872.138	22839
872.267	22911
872.397	22744
872.526	22630
872.656	22599
872.785	22565
872.915	22873
873.044	22904
873.173	22873
873.303	22942
873.432	22885
873.561	23010
873.69	22961
873.819	22892
873.948	22965
874.077	22923
874.206	22866
874.335	22812
874.464	22942
874.593	23113
874.722	23121
874.851	23174
874.979	23143
875.108	23147
875.237	23075
875.365	22991
875.494	23022
875.623	23090
875.751	23064
875.88	23071
876.008	23121
876.136	23360
876.265	23486
876.393	23608
876.521	23509
876.65	23566
876.778	23474
876.906	23444
877.034	23444
877.162	23566
877.29	23345
877.418	23478
877.546	23444
877.674	23497
877.802	23581
877.93	23486
878.058	23398
878.185	23258
878.313	23307
878.441	23410
878.568	23269
878.696	23364
878.824	23482
878.951	23497
879.079	23733
879.206	23661
879.333	23570
879.461	23467
879.588	23436
879.715	23520
879.842	23752
879.97	23440
880.097	23098
880.224	23242
880.351	23360
880.478	23288
880.605	23250
880.732	23227
880.859	23520
880.986	23421
881.112	23337
881.239	23208
881.366	22835
881.493	22934
881.619	22740
881.746	22824
881.872	22774
881.999	22869
882.125	22847
882.252	22972
882.378	22786
882.505	22915
882.631	22573
882.757	22516
882.883	22618
883.01	22470
883.136	22481
883.262	22497
883.388	22421
883.514	22622
883.64	22573
883.766	22344
883.892	22306
884.018	22303
884.143	22337
884.269	22535
884.395	22337
884.52	22086
884.646	22048
884.772	22105
884.897	21991
885.023	22128
885.148	22112
885.274	22261
885.399	22238
885.524	22101
885.65	22147
885.775	22078
885.9	22070
886.025	22090
886.15	22272
886.275	21968
886.4	21934
886.525	22124
886.65	22147
886.775	21998
886.9	22226
887.025	22322
887.149	21987
887.274	21911
887.399	21949
887.523	21823
887.648	21835
887.773	21812
887.897	21949
888.021	21941
888.146	21736
888.27	22040
888.395	21895
888.519	21960
888.643	21945
888.767	21949
888.891	21739
889.015	21732
889.139	21652
889.263	21728
889.387	21857
889.511	21819
889.635	21762
889.759	21625
889.883	21587
890.006	21663
890.13	21846
890.254	21637
890.377	21599
890.501	21416
890.624	21348
890.748	21481
890.871	21325
890.995	21104
891.118	21169
891.241	21226
891.364	21275
891.488	21245
891.611	21154
891.734	21344
891.857	21237
891.98	21180
892.103	21260
892.226	21222
892.349	21077
892.471	21055
892.594	21142
892.717	21268
892.839	21123
892.962	21116
893.085	21096
893.207	21096
893.33	20902
893.452	21108
893.575	21218
893.697	21043
893.819	21233
893.941	21218
894.064	21180
894.186	21028
894.308	20929
894.43	21207
894.552	21325
894.674	21192
894.796	20956
894.918	21028
895.04	21195
895.161	21108
895.283	21146
895.405	21005
895.526	21096
895.648	21055
895.769	21093
895.891	21131
896.012	21142
896.134	21039
896.255	21138
896.376	20975
896.498	20963
896.619	21135
896.74	21024
896.861	21173
896.982	21416
897.103	21538
897.224	21256
897.345	21116
897.466	21287
897.587	21325
897.708	21412
897.828	21317
897.949	21294
898.07	21150
898.19	21169
898.311	21363
898.431	21302
898.552	21272
898.672	21252
898.792	21344
898.913	21283
899.033	21127
899.153	21081
899.273	21043
899.393	20899
899.513	21058
899.633	21093
899.753	20986
899.873	21013
899.993	20960
900.113	21051
900.232	20979
900.352	20880
900.472	20792
900.591	20739
900.711	20800
900.83	20731
900.95	20941
901.069	20891
901.189	20781
901.308	20511
901.427	20389
901.546	20393
901.665	20244
901.784	20301
901.904	20214
902.023	20168
902.141	19894
902.26	19967
902.379	19978
902.498	19875
902.617	19761
902.735	19932
902.854	19811
902.973	19822
903.091	19552
903.21	19559
903.328	19514
903.446	19403
903.565	19255
903.683	19358
903.801	19164
903.919	19255
904.038	19293
904.156	19084
904.274	19122
904.392	18966
904.51	19091
904.627	19004
904.745	19228
904.863	19042
904.981	18928
905.098	18795
905.216	18806
905.334	18768
905.451	18673
905.569	18639
905.686	18783
905.803	18814
905.921	18540
906.038	18627
906.155	18536
906.272	18456
906.389	18467
906.506	18357
906.623	18342
906.74	18319
906.857	18152
906.974	18311
907.091	18418
907.208	18490
907.324	18273
907.441	18213
907.557	18003
907.674	17992
907.79	17912
907.907	17996
908.023	17988
908.139	17874
908.256	17882
908.372	17870
908.488	17821
908.604	17741
908.72	17608
908.836	17813
908.952	17767
909.068	17737
909.184	17847
909.3	17809
909.415	17714
909.531	17661
909.647	17433
909.762	17463
909.878	17337
909.993	17395
910.108	17379
910.224	17318
910.339	17364
910.454	17170
910.57	17258
910.685	17162
910.8	17471
910.915	17349
911.03	17086
911.145	16949
911.259	17079
911.374	16927
911.489	16949
911.604	16881
911.718	16748
911.833	16706
911.947	16584
912.062	16611
912.176	16584
912.291	16691
912.405	16786
912.519	16984
912.633	16934
912.748	16793
912.862	16588
912.976	16519
913.09	16428
913.204	16386
913.318	16440
913.431	16542
913.545	16512
913.659	16656
913.772	16519
913.886	16329
914	16344
914.113	16333
914.226	16398
914.34	16485
914.453	16158
914.566	16405
914.68	16139
914.793	16135
914.906	15918
915.019	15865
915.132	15789
915.245	15915
915.358	15850
915.47	15899
915.583	15926
915.696	15873
915.809	15937
915.921	15979
916.034	15888
916.146	15751
916.259	15732
916.371	15838
916.483	15842
916.595	15732
916.708	15766
916.82	15698
916.932	15648
917.044	15622
917.156	15606
917.268	15370
917.38	15511
917.491	15496
917.603	15587
917.715	15580
917.826	15542
917.938	15507
918.049	15370
918.161	15317
918.272	15530
918.384	15515
918.495	15443
918.606	15405
918.717	15226
918.828	15367
918.939	15256
919.05	15108
919.161	15226
919.272	14994
919.383	15017
919.494	15294
919.604	15469
919.715	15272
919.826	15123
919.936	15233
920.047	15245
920.157	15157
920.267	15325
920.378	15188
920.488	15199
920.598	15393
920.708	15466
920.818	15359
920.928	15329
921.038	15469
921.148	15359
921.258	15211
921.368	15047
921.477	14925
921.587	14891
921.697	14804
921.806	14994
921.916	14769
922.025	14571
922.134	14648
922.244	14549
922.353	14613
922.462	14408
922.571	14332
922.68	14278
922.789	14153
922.898	14233
923.007	14119
923.116	14157
923.224	14202
923.333	14164
923.442	13997
923.55	14024
923.659	14092
923.767	13970
923.876	13955
923.984	14005
924.092	13890
924.201	13921
924.309	13864
924.417	13856
924.525	13811
924.633	13814
924.741	14575
924.849	13582
924.956	13689
925.064	13620
925.172	13495
925.279	13476
925.387	13639
925.494	13472
925.602	13597
925.709	13681
925.816	13438
925.924	13514
926.031	13567
926.138	13483
926.245	13518
926.352	13422
926.459	13487
926.566	13636
926.673	13472
926.779	13324
926.886	13206
926.993	13149
927.099	13194
927.206	13076
927.312	13061
927.419	13194
927.525	13126
927.631	13019
927.737	13023
927.843	12985
927.95	12829
928.056	12897
928.162	12985
928.267	12958
928.373	13518
928.479	13057
928.585	12757
928.69	12913
928.796	12875
928.901	12787
929.007	12635
929.112	12665
929.218	12673
929.323	12635
929.428	12635
929.533	12787
929.638	12604
929.743	12616
929.848	12646
929.953	12578
930.058	12441
930.163	12308
930.267	12342
930.372	12448
930.477	12247
930.581	12532
930.685	12334
930.79	12209
930.894	12254
930.998	12163
931.103	12216
931.207	11939
931.311	11927
931.415	11775
931.519	11566
931.623	11577
