Data from test_V78500241_702.txt Node
Date: Fri Mar 25 15:46:39 CST 2022
User: usil
Spectrometer: V785-0024
Trigger mode: 0
Integration Time (sec): 4.000000E-1
Scans to average: 1
Nonlinearity correction enabled: false
Boxcar width: 0
Storing dark spectrum: false
XAxis mode: Wavelengths
Number of Pixels in Spectrum: 1024
>>>>>Begin Spectral Data<<<<<
801.071	27892
801.214	27732
801.356	27583
801.499	27389
801.641	27427
801.783	27500
801.926	27485
802.068	27195
802.211	27211
802.353	27264
802.496	27047
802.638	26990
802.78	27055
802.923	27112
803.065	27017
803.208	27032
803.35	27100
803.492	27218
803.635	27294
803.777	27154
803.919	27180
804.061	27466
804.204	27157
804.346	27294
804.488	27070
804.63	27249
804.773	27142
804.915	27195
805.057	27363
805.199	27184
805.341	27351
805.483	27291
805.626	27382
805.768	27275
805.91	27268
806.052	27370
806.194	27291
806.336	27488
806.478	27313
806.62	27511
806.762	27538
806.904	27778
807.046	27857
807.188	27785
807.33	27690
807.472	27812
807.614	27660
807.756	27732
807.898	27530
808.04	27511
808.182	27701
808.324	27599
808.465	27603
808.607	27876
808.749	27865
808.891	28086
809.033	28166
809.174	28143
809.316	27979
809.458	28029
809.6	28036
809.741	28196
809.883	28181
810.025	28287
810.166	28322
810.308	28284
810.45	28211
810.591	28112
810.733	28078
810.875	27861
811.016	27850
811.158	27850
811.299	28139
811.441	28120
811.582	28188
811.724	28013
811.865	28013
812.007	27960
812.148	27983
812.29	27983
812.431	28188
812.573	28344
812.714	28588
812.855	28413
812.997	28660
813.138	28809
813.279	28596
813.421	28489
813.562	28519
813.703	28466
813.845	28169
813.986	27911
814.127	27831
814.268	27591
814.41	27652
814.551	27743
814.692	27610
814.833	27549
814.974	27641
815.115	27774
815.256	27553
815.397	27663
815.539	27515
815.68	27332
815.821	27405
815.962	27473
816.103	27466
816.244	27355
816.385	27249
816.526	27249
816.666	27142
816.807	26963
816.948	27017
817.089	26982
817.23	27047
817.371	26925
817.512	26899
817.653	26925
817.793	26849
817.934	26914
818.075	26921
818.216	26967
818.356	26940
818.497	26807
818.638	26682
818.778	26701
818.919	26663
819.06	26708
819.2	26918
819.341	26956
819.481	26921
819.622	26982
819.762	27272
819.903	27195
820.043	27218
820.184	27066
820.324	27188
820.465	27332
820.605	27096
820.746	27104
820.886	26986
821.026	26971
821.167	27127
821.307	27077
821.447	26994
821.588	26796
821.728	26857
821.868	26720
822.008	26385
822.149	26507
822.289	26362
822.429	26183
822.569	26111
822.709	26153
822.849	26046
822.99	25871
823.13	26020
823.27	25864
823.41	25803
823.55	25799
823.69	25799
823.83	25715
823.97	25757
824.11	25677
824.25	25476
824.389	25590
824.529	25666
824.669	25647
824.809	25833
824.949	25727
825.089	25738
825.228	25670
825.368	25540
825.508	25479
825.648	25548
825.787	25525
825.927	25449
826.067	25369
826.206	25552
826.346	25537
826.485	25369
826.625	25384
826.765	25609
826.904	25601
827.044	25236
827.183	25232
827.323	25217
827.462	25278
827.601	25259
827.741	25133
827.88	25122
828.02	24973
828.159	25019
828.298	25209
828.437	25141
828.577	24970
828.716	25141
828.855	25114
828.994	24844
829.134	24970
829.273	24901
829.412	24871
829.551	24848
829.69	24810
829.829	24943
829.968	24897
830.107	24871
830.246	24859
830.385	24875
830.524	24791
830.663	24669
830.802	24673
830.941	24471
831.08	24544
831.219	24597
831.357	24604
831.496	24661
831.635	24490
831.774	24433
831.913	24410
832.051	24243
832.19	24323
832.329	24319
832.467	24110
832.606	24121
832.744	24117
832.883	24258
833.022	24064
833.16	24095
833.299	24197
833.437	24338
833.576	24201
833.714	24186
833.852	24304
833.991	24213
834.129	24308
834.267	24251
834.406	24216
834.544	24190
834.682	24213
834.821	24098
834.959	24429
835.097	24060
835.235	24323
835.373	24346
835.511	24243
835.65	24114
835.788	24114
835.926	23908
836.064	23779
836.202	23977
836.34	24087
836.478	24129
836.615	24163
836.753	24152
836.891	24049
837.029	24053
837.167	23961
837.305	23866
837.443	24045
837.58	23912
837.718	23950
837.856	23874
837.993	23912
838.131	23847
838.269	23699
838.406	23752
838.544	23760
838.681	23528
838.819	23585
838.956	23299
839.094	23463
839.231	23402
839.369	23425
839.506	23665
839.643	23478
839.781	23356
839.918	23223
840.055	23376
840.193	23307
840.33	23356
840.467	23227
840.604	23360
840.742	23570
840.879	23083
841.016	23242
841.153	23200
841.29	23322
841.427	23235
841.564	23318
841.701	23292
841.838	23280
841.975	23113
842.112	23197
842.249	23155
842.385	23083
842.522	23189
842.659	23143
842.796	22972
842.933	22999
843.069	22984
843.206	23003
843.343	23143
843.479	22953
843.616	23113
843.752	22976
843.889	22839
844.025	22801
844.162	22577
844.298	22831
844.435	22679
844.571	22793
844.708	22869
844.844	22942
844.98	22938
845.117	22896
845.253	22683
845.389	22577
845.525	22736
845.661	22630
845.798	22485
845.934	22603
846.07	22489
846.206	22561
846.342	22641
846.478	22519
846.614	22177
846.75	22211
846.886	22223
847.022	22459
847.158	22215
847.294	22280
847.429	22230
847.565	22204
847.701	22409
847.837	21994
847.972	21998
848.108	22131
848.244	22173
848.379	21835
848.515	21857
848.65	21861
848.786	21816
848.921	21895
849.057	21911
849.192	21930
849.328	21945
849.463	21907
849.598	21831
849.734	21766
849.869	21698
850.004	21606
850.14	21797
850.275	21587
850.41	21675
850.545	21553
850.68	21515
850.815	21587
850.95	21667
851.085	21876
851.22	21641
851.355	21610
851.49	21545
851.625	21637
851.76	21576
851.895	21496
852.03	21515
852.165	21583
852.299	21564
852.434	21648
852.569	21637
852.703	21679
852.838	21553
852.973	21812
853.107	21610
853.242	21641
853.376	21443
853.511	21355
853.645	21595
853.78	21492
853.914	21424
854.048	21466
854.183	21424
854.317	21504
854.451	21633
854.585	21336
854.72	21507
854.854	21477
854.988	21412
855.122	21359
855.256	21393
855.39	21397
855.524	21572
855.658	21492
855.792	21408
855.926	21435
856.06	21439
856.194	21603
856.327	21408
856.461	21370
856.595	21382
856.729	21393
856.862	21538
856.996	21595
857.13	21580
857.263	21561
857.397	21572
857.53	21420
857.664	21329
857.797	21637
857.931	21549
858.064	21485
858.197	21469
858.331	21462
858.464	21397
858.597	21344
858.731	21408
858.864	21393
858.997	21462
859.13	21492
859.263	21386
859.396	21496
859.529	21485
859.662	21348
859.795	21374
859.928	21393
860.061	21485
860.194	21583
860.327	21671
860.46	21393
860.592	21583
860.725	21549
860.858	21629
860.99	21549
861.123	21283
861.256	21424
861.388	21500
861.521	21934
861.653	21363
861.786	21252
861.918	21321
862.05	21268
862.183	21351
862.315	21389
862.447	21382
862.58	21412
862.712	21055
862.844	21195
862.976	21222
863.108	21176
863.24	21660
863.372	21195
863.504	21119
863.636	21116
863.768	21100
863.9	21214
864.032	20937
864.164	21165
864.296	21127
864.428	21188
864.559	21104
864.691	21218
864.823	21051
864.954	21157
865.086	21135
865.217	21036
865.349	20811
865.48	20994
865.612	21024
865.743	21188
865.875	21081
866.006	21005
866.137	21070
866.269	21070
866.4	20994
866.531	20963
866.662	20868
866.793	20982
866.924	20944
867.055	21009
867.186	20975
867.317	20982
867.448	20811
867.579	20921
867.71	20864
867.841	20967
867.972	20963
868.103	20906
868.233	20956
868.364	20998
868.495	21157
868.625	21218
868.756	21367
868.886	21104
869.017	21283
869.147	21264
869.278	21306
869.408	21226
869.539	21127
869.669	21245
869.799	21256
869.929	21466
870.06	21340
870.19	21568
870.32	21519
870.45	21507
870.58	21572
870.71	21819
870.84	21652
870.97	21599
871.1	21538
871.23	21766
871.36	21785
871.489	21739
871.619	21823
871.749	21778
871.879	21819
872.008	21873
872.138	21789
872.267	21922
872.397	21629
872.526	21724
872.656	21591
872.785	21572
872.915	21873
873.044	21865
873.173	21869
873.303	21926
873.432	21899
873.561	21979
873.69	21888
873.819	21846
873.948	21960
874.077	21816
874.206	21713
874.335	21823
874.464	22040
874.593	22109
874.722	22070
874.851	22196
874.979	22090
875.108	22025
875.237	21918
875.365	22006
875.494	22006
875.623	22059
875.751	22002
875.88	22173
876.008	22154
876.136	22284
876.265	22405
876.393	22679
876.521	22561
876.65	22561
876.778	22485
876.906	22379
877.034	22421
877.162	22409
877.29	22363
877.418	22519
877.546	22432
877.674	22341
877.802	22459
877.93	22493
878.058	22291
878.185	22348
878.313	22398
878.441	22443
878.568	22280
878.696	22413
878.824	22462
878.951	22417
879.079	22626
879.206	22729
879.333	22622
879.461	22451
879.588	22569
879.715	22626
879.842	22698
879.97	22519
880.097	22135
880.224	22299
880.351	22325
880.478	22230
880.605	22166
880.732	22211
880.859	22447
880.986	22306
881.112	22299
881.239	22211
881.366	21979
881.493	21968
881.619	21854
881.746	21842
881.872	21865
881.999	21888
882.125	21747
882.252	21972
882.378	21888
882.505	21854
882.631	21694
882.757	21622
882.883	21561
883.01	21595
883.136	21386
883.262	21431
883.388	21313
883.514	21443
883.64	21504
883.766	21530
883.892	21283
884.018	21367
884.143	21519
884.269	21542
884.395	21256
884.52	21146
884.646	21165
884.772	21146
884.897	21062
885.023	21157
885.148	21237
885.274	21329
885.399	21298
885.524	21127
885.65	21207
885.775	21207
885.9	21184
886.025	21203
886.15	21249
886.275	21165
886.4	21100
886.525	21081
886.65	21043
886.775	21138
886.9	21252
887.025	21279
887.149	21188
887.274	20994
887.399	20857
887.523	20933
887.648	20887
887.773	20925
887.897	20929
888.021	20982
888.146	20971
888.27	21074
888.395	20944
888.519	21077
888.643	21001
888.767	21024
888.891	20941
889.015	20724
889.139	20876
889.263	20826
889.387	20899
889.511	20937
889.635	20689
889.759	20788
889.883	20800
890.006	20659
890.13	20777
890.254	20678
890.377	20598
890.501	20564
890.624	20454
890.748	20537
890.871	20377
890.995	20366
891.118	20221
891.241	20267
891.364	20202
891.488	20431
891.611	20305
891.734	20355
891.857	20370
891.98	20164
892.103	20275
892.226	20355
892.349	20248
892.471	20077
892.594	20187
892.717	20210
892.839	20168
892.962	20237
893.085	20282
893.207	20206
893.33	20218
893.452	20256
893.575	20271
893.697	20138
893.819	20396
893.941	20434
894.064	20393
894.186	20195
894.308	20164
894.43	20400
894.552	20381
894.674	20248
894.796	20054
894.918	20298
895.04	20240
895.161	20317
895.283	20214
895.405	20157
895.526	20138
895.648	20229
895.769	20294
895.891	20324
896.012	20301
896.134	20256
896.255	20187
896.376	20081
896.498	20218
896.619	20084
896.74	20172
896.861	20263
896.982	20602
897.103	20598
897.224	20609
897.345	20431
897.466	20381
897.587	20381
897.708	20518
897.828	20514
897.949	20313
898.07	20225
898.19	20446
898.311	20469
898.431	20240
898.552	20431
898.672	20366
898.792	20552
898.913	20381
899.033	20244
899.153	20199
899.273	20176
899.393	20237
899.513	20248
899.633	20157
899.753	20149
899.873	20164
899.993	20161
900.113	20138
900.232	20214
900.352	20122
900.472	20046
900.591	19993
900.711	19993
900.83	19871
900.95	20084
901.069	20016
901.189	19826
901.308	19696
901.427	19563
901.546	19597
901.665	19491
901.784	19506
901.904	19396
902.023	19285
902.141	19122
902.26	19202
902.379	19251
902.498	19141
902.617	18958
902.735	19103
902.854	19114
902.973	18985
903.091	18787
903.21	18726
903.328	18825
903.446	18601
903.565	18528
903.683	18589
903.801	18365
903.919	18403
904.038	18517
904.156	18342
904.274	18357
904.392	18262
904.51	18273
904.627	18243
904.745	18361
904.863	18243
904.981	18152
905.098	17984
905.216	18083
905.334	17783
905.451	17923
905.569	17958
905.686	17927
905.803	17977
905.921	17767
906.038	17813
906.155	17741
906.272	17676
906.389	17767
906.506	17402
906.623	17562
906.74	17444
906.857	17318
906.974	17467
907.091	17672
907.208	17592
907.324	17547
907.441	17436
907.557	17181
907.674	17231
907.79	17067
907.907	17174
908.023	17159
908.139	17246
908.256	17143
908.372	17181
908.488	16930
908.604	16942
908.72	16965
908.836	16892
908.952	16862
909.068	17003
909.184	17094
909.3	16904
909.415	16896
909.531	16896
909.647	16710
909.762	16626
909.878	16641
909.993	16691
910.108	16558
910.224	16580
910.339	16622
910.454	16523
910.57	16371
910.685	16367
910.8	16675
910.915	16569
911.03	16523
911.145	16322
911.259	16177
911.374	16246
911.489	16219
911.604	16090
911.718	16010
911.833	16040
911.947	15895
912.062	15762
912.176	15930
912.291	15941
912.405	15926
912.519	16249
912.633	16173
912.748	15994
912.862	15922
912.976	15778
913.09	15732
913.204	15759
913.318	15629
913.431	15876
913.545	15789
913.659	15892
913.772	15698
913.886	15603
914	15504
914.113	15629
914.226	15789
914.34	15641
914.453	15504
914.566	15637
914.68	15473
914.793	15393
914.906	15279
915.019	15226
915.132	15142
915.245	15142
915.358	15230
915.47	15199
915.583	15127
915.696	15207
915.809	15306
915.921	15291
916.034	15142
916.146	15119
916.259	15119
916.371	15097
916.483	15154
916.595	15066
916.708	14963
916.82	15074
916.932	14990
917.044	14944
917.156	14925
917.268	14807
917.38	14792
917.491	14781
917.603	14853
917.715	14853
917.826	14910
917.938	14857
918.049	14769
918.161	14891
918.272	14975
918.384	14883
918.495	14693
918.606	14613
918.717	14552
918.828	14602
918.939	14526
919.05	14598
919.161	14564
919.272	14374
919.383	14484
919.494	14640
919.604	14670
919.715	14613
919.826	14419
919.936	14530
920.047	14594
920.157	14571
920.267	14788
920.378	14583
920.488	14552
920.598	14758
920.708	14769
920.818	14659
920.928	14655
921.038	14792
921.148	14845
921.258	14412
921.368	14434
921.477	14347
921.587	14324
921.697	14237
921.806	14210
921.916	14157
922.025	13974
922.134	14005
922.244	13909
922.353	13970
922.462	13875
922.571	13753
922.68	13571
922.789	13499
922.898	13594
923.007	13544
923.116	13548
923.224	13605
923.333	13544
923.442	13445
923.55	13365
923.659	13480
923.767	13483
923.876	13350
923.984	13392
924.092	13320
924.201	13426
924.309	13304
924.417	13293
924.525	13190
924.633	13240
924.741	14164
924.849	13187
924.956	13110
925.064	13141
925.172	12909
925.279	12985
925.387	13072
925.494	12909
925.602	13118
925.709	13076
925.816	12939
925.924	12882
926.031	13080
926.138	12875
926.245	12859
926.352	12867
926.459	12966
926.566	13019
926.673	12886
926.779	12787
926.886	12741
926.993	12608
927.099	12536
927.206	12452
927.312	12475
927.419	12681
927.525	12601
927.631	12585
927.737	12471
927.843	12441
927.95	12403
928.056	12384
928.162	12498
928.267	12388
928.373	12985
928.479	12452
928.585	12270
928.69	12300
928.796	12342
928.901	12213
929.007	12091
929.112	12216
929.218	12258
929.323	12060
929.428	12072
929.533	12224
929.638	11984
929.743	12064
929.848	12068
929.953	11942
930.058	11977
930.163	11699
930.267	11737
930.372	11870
930.477	11748
930.581	11923
930.685	11904
930.79	11748
930.894	11680
930.998	11737
931.103	11794
931.207	11436
931.311	11372
931.415	11288
931.519	11151
931.623	11045
