Data from test_V78500241_3085.txt Node
Date: Fri Mar 25 16:03:10 CST 2022
User: usil
Spectrometer: V785-0024
Trigger mode: 0
Integration Time (sec): 4.000000E-1
Scans to average: 1
Nonlinearity correction enabled: false
Boxcar width: 0
Storing dark spectrum: false
XAxis mode: Wavelengths
Number of Pixels in Spectrum: 1024
>>>>>Begin Spectral Data<<<<<
801.071	28809
801.214	28759
801.356	28664
801.499	28622
801.641	28344
801.783	28379
801.926	28470
802.068	28295
802.211	28367
802.353	28371
802.496	28188
802.638	28185
802.78	28196
802.923	28010
803.065	27994
803.208	28021
803.35	28109
803.492	28344
803.635	28459
803.777	28185
803.919	28363
804.061	28721
804.204	28363
804.346	28413
804.488	28188
804.63	28352
804.773	28268
804.915	28417
805.057	28603
805.199	28318
805.341	28531
805.483	28512
805.626	28546
805.768	28535
805.91	28421
806.052	28550
806.194	28417
806.336	28694
806.478	28546
806.62	28500
806.762	28634
806.904	28828
807.046	29166
807.188	28923
807.33	28934
807.472	29124
807.614	29037
807.756	28877
807.898	28904
808.04	28706
808.182	28888
808.324	28915
808.465	28858
808.607	29185
808.749	29227
808.891	29345
809.033	29379
809.174	29299
809.316	29178
809.458	29246
809.6	29159
809.741	29474
809.883	29307
810.025	29543
810.166	29589
810.308	29463
810.45	29459
810.591	29364
810.733	29315
810.875	29204
811.016	29113
811.158	29075
811.299	29429
811.441	29448
811.582	29345
811.724	29303
811.865	29178
812.007	29429
812.148	29326
812.29	29368
812.431	29391
812.573	29707
812.714	29741
812.855	29707
812.997	29851
813.138	29969
813.279	29847
813.421	29741
813.562	29691
813.703	29512
813.845	29391
813.986	29250
814.127	29090
814.268	28904
814.41	28984
814.551	28911
814.692	28999
814.833	29014
814.974	28850
815.115	29006
815.256	28987
815.397	28965
815.539	28934
815.68	28847
815.821	28748
815.962	28797
816.103	28778
816.244	28713
816.385	28611
816.526	28672
816.666	28394
816.807	28234
816.948	28344
817.089	28356
817.23	28367
817.371	28299
817.512	28291
817.653	28246
817.793	28230
817.934	28322
818.075	28226
818.216	28291
818.356	28295
818.497	28169
818.638	28032
818.778	28109
818.919	28112
819.06	28013
819.2	28070
819.341	28348
819.481	28112
819.622	28440
819.762	28653
819.903	28519
820.043	28356
820.184	28367
820.324	28550
820.465	28508
820.605	28352
820.746	28325
820.886	28280
821.026	28481
821.167	28379
821.307	28508
821.447	28462
821.588	28295
821.728	28223
821.868	27869
822.008	27644
822.149	27774
822.289	27816
822.429	27637
822.569	27279
822.709	27424
822.849	27275
822.99	27313
823.13	27249
823.27	27389
823.41	27180
823.55	27207
823.69	27127
823.83	27237
823.97	26979
824.11	26876
824.25	26975
824.389	26960
824.529	27001
824.669	26868
824.809	27074
824.949	26883
825.089	26986
825.228	27058
825.368	26773
825.508	26720
825.648	26788
825.787	26925
825.927	26887
826.067	26785
826.206	26716
826.346	26868
826.485	26887
826.625	26800
826.765	26758
826.904	26925
827.044	26583
827.183	26514
827.323	26514
827.462	26651
827.601	26514
827.741	26590
827.88	26575
828.02	26408
828.159	26484
828.298	26377
828.437	26571
828.577	26492
828.716	26545
828.855	26404
828.994	26195
829.134	26233
829.273	26275
829.412	26187
829.551	26229
829.69	26119
829.829	26320
829.968	26180
830.107	26183
830.246	26180
830.385	26088
830.524	26073
830.663	26008
830.802	25959
830.941	25784
831.08	25906
831.219	25955
831.357	25894
831.496	25993
831.635	25830
831.774	25780
831.913	25662
832.051	25563
832.19	25674
832.329	25674
832.467	25441
832.606	25293
832.744	25403
832.883	25495
833.022	25377
833.16	25518
833.299	25632
833.437	25415
833.576	25666
833.714	25400
833.852	25700
833.991	25575
834.129	25731
834.267	25556
834.406	25597
834.544	25518
834.682	25582
834.821	25415
834.959	25788
835.097	25457
835.235	25609
835.373	25571
835.511	25525
835.65	25381
835.788	25365
835.926	25198
836.064	25217
836.202	25350
836.34	25285
836.478	25449
836.615	25335
836.753	25221
836.891	25411
837.029	25426
837.167	25343
837.305	25251
837.443	25255
837.58	25107
837.718	25327
837.856	25285
837.993	25187
838.131	25213
838.269	25076
838.406	25038
838.544	25057
838.681	24897
838.819	24783
838.956	24764
839.094	24749
839.231	24772
839.369	24730
839.506	24992
839.643	24920
839.781	24654
839.918	24604
840.055	24650
840.193	24589
840.33	24631
840.467	24528
840.604	24604
840.742	24783
840.879	24353
841.016	24566
841.153	24475
841.29	24692
841.427	24593
841.564	24616
841.701	24486
841.838	24631
841.975	24483
842.112	24471
842.249	24365
842.385	24365
842.522	24517
842.659	24410
842.796	24304
842.933	24376
843.069	24273
843.206	24460
843.343	24426
843.479	24262
843.616	24350
843.752	24178
843.889	24144
844.025	24277
844.162	24129
844.298	24174
844.435	24098
844.571	24041
844.708	24098
844.844	24205
844.98	24266
845.117	24235
845.253	23965
845.389	23866
845.525	23904
845.661	24053
845.798	23897
845.934	23980
846.07	23927
846.206	23920
846.342	23912
846.478	23836
846.614	23634
846.75	23600
846.886	23516
847.022	23627
847.158	23634
847.294	23680
847.429	23619
847.565	23501
847.701	23672
847.837	23292
847.972	23292
848.108	23178
848.244	23429
848.379	23212
848.515	23136
848.65	23052
848.786	23220
848.921	23162
849.057	23269
849.192	23318
849.328	23117
849.463	23147
849.598	23166
849.734	23041
849.869	23056
850.004	23037
850.14	22915
850.275	23006
850.41	22744
850.545	22938
850.68	22847
850.815	22949
850.95	22839
851.085	22987
851.22	23048
851.355	22999
851.49	22850
851.625	22858
851.76	22786
851.895	22771
852.03	22847
852.165	22919
852.299	23003
852.434	23109
852.569	22873
852.703	22801
852.838	23037
852.973	23067
853.107	22972
853.242	22805
853.376	22725
853.511	22580
853.645	22672
853.78	22965
853.914	22797
854.048	22557
854.183	22809
854.317	22774
854.451	22957
854.585	22725
854.72	22793
854.854	22790
854.988	22672
855.122	22717
855.256	22626
855.39	22748
855.524	22801
855.658	22820
855.792	22656
855.926	22812
856.06	22664
856.194	22824
856.327	22736
856.461	22611
856.595	22656
856.729	22584
856.862	22847
856.996	22759
857.13	22710
857.263	22923
857.397	22767
857.53	22679
857.664	22820
857.797	22801
857.931	22877
858.064	22759
858.197	22763
858.331	22782
858.464	22691
858.597	22713
858.731	22653
858.864	22805
858.997	22725
859.13	22630
859.263	22702
859.396	22729
859.529	22694
859.662	22664
859.795	22782
859.928	22668
860.061	22771
860.194	22957
860.327	22717
860.46	22691
860.592	22831
860.725	22915
860.858	22923
860.99	22706
861.123	22626
861.256	22641
861.388	22710
861.521	23311
861.653	22531
861.786	22512
861.918	22561
862.05	22508
862.183	22755
862.315	22626
862.447	22816
862.58	22584
862.712	22382
862.844	22485
862.976	22527
863.108	22508
863.24	22885
863.372	22398
863.504	22508
863.636	22314
863.768	22360
863.9	22398
864.032	22287
864.164	22341
864.296	22504
864.428	22607
864.559	22546
864.691	22466
864.823	22375
864.954	22390
865.086	22314
865.217	22413
865.349	22207
865.48	22287
865.612	22318
865.743	22459
865.875	22272
866.006	22219
866.137	22238
866.269	22230
866.4	22257
866.531	22261
866.662	22276
866.793	22276
866.924	22230
867.055	22337
867.186	22211
867.317	22135
867.448	22238
867.579	22310
867.71	22139
867.841	22306
867.972	22246
868.103	22268
868.233	22162
868.364	22234
868.495	22337
868.625	22363
868.756	22565
868.886	22405
869.017	22466
869.147	22634
869.278	22626
869.408	22504
869.539	22409
869.669	22557
869.799	22577
869.929	22744
870.06	22653
870.19	22835
870.32	22782
870.45	22831
870.58	22919
870.71	22892
870.84	23029
870.97	22793
871.1	22862
871.23	22961
871.36	23033
871.489	23025
871.619	23079
871.749	23048
871.879	23010
872.008	23185
872.138	23014
872.267	22995
872.397	22946
872.526	22984
872.656	22938
872.785	22854
872.915	23102
873.044	23128
873.173	23090
873.303	23189
873.432	23140
873.561	23155
873.69	23086
873.819	23083
873.948	23242
874.077	23136
874.206	22972
874.335	23162
874.464	23086
874.593	23360
874.722	23246
874.851	23372
874.979	23261
875.108	23349
875.237	23204
875.365	23242
875.494	23246
875.623	23318
875.751	23174
875.88	23356
876.008	23490
876.136	23421
876.265	23676
876.393	23809
876.521	23836
876.65	23653
876.778	23703
876.906	23638
877.034	23566
877.162	23695
877.29	23657
877.418	23718
877.546	23623
877.674	23653
877.802	23703
877.93	23623
878.058	23604
878.185	23493
878.313	23528
878.441	23497
878.568	23444
878.696	23573
878.824	23646
878.951	23859
879.079	23821
879.206	23920
879.333	23843
879.461	23813
879.588	23703
879.715	23813
879.842	23954
879.97	23828
880.097	23520
880.224	23368
880.351	23528
880.478	23376
880.605	23512
880.732	23539
880.859	23676
880.986	23528
881.112	23558
881.239	23360
881.366	23216
881.493	23166
881.619	23037
881.746	23079
881.872	23022
881.999	22999
882.125	22881
882.252	22881
882.378	22984
882.505	23018
882.631	22809
882.757	22812
882.883	22752
883.01	22569
883.136	22622
883.262	22478
883.388	22451
883.514	22668
883.64	22702
883.766	22592
883.892	22470
884.018	22489
884.143	22607
884.269	22580
884.395	22447
884.52	22371
884.646	22382
884.772	22249
884.897	22265
885.023	22162
885.148	22428
885.274	22516
885.399	22447
885.524	22318
885.65	22329
885.775	22310
885.9	22291
886.025	22516
886.15	22493
886.275	22337
886.4	22097
886.525	22299
886.65	22143
886.775	22192
886.9	22367
887.025	22535
887.149	22158
887.274	22093
887.399	22280
887.523	22097
887.648	21991
887.773	21945
887.897	22139
888.021	22055
888.146	21968
888.27	22124
888.395	22078
888.519	22109
888.643	22029
888.767	22002
888.891	21930
889.015	21857
889.139	21998
889.263	21918
889.387	21987
889.511	22063
889.635	22017
889.759	21888
889.883	21865
890.006	21823
890.13	21964
890.254	21694
890.377	21842
890.501	21603
890.624	21599
890.748	21534
890.871	21500
890.995	21355
891.118	21439
891.241	21401
891.364	21412
891.488	21660
891.611	21374
891.734	21408
891.857	21458
891.98	21431
892.103	21420
892.226	21458
892.349	21340
892.471	21146
892.594	21287
892.717	21447
892.839	21188
892.962	21287
893.085	21412
893.207	21230
893.33	21237
893.452	21165
893.575	21203
893.697	21207
893.819	21424
893.941	21416
894.064	21443
894.186	21233
894.308	21252
894.43	21336
894.552	21359
894.674	21367
894.796	21135
894.918	21298
895.04	21176
895.161	21332
895.283	21504
895.405	21195
895.526	21329
895.648	21203
895.769	21291
895.891	21264
896.012	21416
896.134	21310
896.255	21226
896.376	21161
896.498	21313
896.619	21363
896.74	21310
896.861	21245
896.982	21591
897.103	21641
897.224	21526
897.345	21462
897.466	21386
897.587	21439
897.708	21618
897.828	21378
897.949	21447
898.07	21336
898.19	21351
898.311	21500
898.431	21306
898.552	21363
898.672	21507
898.792	21519
898.913	21568
899.033	21351
899.153	21351
899.273	21207
899.393	21180
899.513	21287
899.633	21256
899.753	21230
899.873	21009
899.993	21138
900.113	21058
900.232	21222
900.352	21100
900.472	21020
900.591	21024
900.711	21039
900.83	20838
900.95	21024
901.069	21001
901.189	20826
901.308	20598
901.427	20556
901.546	20545
901.665	20450
901.784	20438
901.904	20328
902.023	20244
902.141	20062
902.26	20130
902.379	20062
902.498	20077
902.617	19951
902.735	20145
902.854	19959
902.973	19833
903.091	19643
903.21	19674
903.328	19719
903.446	19601
903.565	19339
903.683	19407
903.801	19392
903.919	19396
904.038	19392
904.156	19202
904.274	19225
904.392	19145
904.51	19190
904.627	19217
904.745	19225
904.863	19289
904.981	18970
905.098	18905
905.216	18947
905.334	18886
905.451	18848
905.569	18920
905.686	18875
905.803	18901
905.921	18768
906.038	18715
906.155	18711
906.272	18525
906.389	18593
906.506	18509
906.623	18437
906.74	18426
906.857	18384
906.974	18346
907.091	18475
907.208	18395
907.324	18475
907.441	18277
907.557	18262
907.674	18262
907.79	18064
907.907	18125
908.023	18159
908.139	18155
908.256	18167
908.372	18057
908.488	17927
908.604	17958
908.72	17874
908.836	17794
908.952	17863
909.068	17931
909.184	17855
909.3	17817
909.415	17828
909.531	17882
909.647	17604
909.762	17596
909.878	17459
909.993	17512
910.108	17436
910.224	17577
910.339	17474
910.454	17379
910.57	17463
910.685	17303
910.8	17535
910.915	17398
911.03	17334
911.145	17147
911.259	17075
911.374	17090
911.489	17018
911.604	16896
911.718	16866
911.833	16942
911.947	16744
912.062	16725
912.176	16824
912.291	16862
912.405	16831
912.519	17079
912.633	17025
912.748	16885
912.862	16782
912.976	16683
913.09	16550
913.204	16478
913.318	16550
913.431	16847
913.545	16683
913.659	16824
913.772	16653
913.886	16592
914	16409
914.113	16478
914.226	16558
914.34	16599
914.453	16341
914.566	16474
914.68	16356
914.793	16314
914.906	16051
915.019	15960
915.132	15941
915.245	15998
915.358	16078
915.47	15941
915.583	16029
915.696	16002
915.809	16150
915.921	16204
916.034	15918
916.146	15941
916.259	15960
916.371	15888
916.483	15949
916.595	15876
916.708	15789
916.82	15812
916.932	15827
917.044	15838
917.156	15698
917.268	15652
917.38	15694
917.491	15667
917.603	15690
917.715	15762
917.826	15694
917.938	15564
918.049	15469
918.161	15542
918.272	15679
918.384	15641
918.495	15576
918.606	15336
918.717	15344
918.828	15408
918.939	15412
919.05	15302
919.161	15279
919.272	15150
919.383	15287
919.494	15447
919.604	15530
919.715	15317
919.826	15241
919.936	15260
920.047	15374
920.157	15351
920.267	15481
920.378	15313
920.488	15424
920.598	15431
920.708	15561
920.818	15450
920.928	15428
921.038	15584
921.148	15428
921.258	15237
921.368	15173
921.477	15047
921.587	15081
921.697	14963
921.806	15028
921.916	14960
922.025	14758
922.134	14765
922.244	14621
922.353	14716
922.462	14549
922.571	14431
922.68	14355
922.789	14263
922.898	14381
923.007	14263
923.116	14355
923.224	14309
923.333	14301
923.442	14130
923.55	14111
923.659	14130
923.767	14183
923.876	14111
923.984	14191
924.092	14005
924.201	14046
924.309	14096
924.417	13951
924.525	14012
924.633	13951
924.741	14648
924.849	13696
924.956	13871
925.064	13715
925.172	13556
925.279	13590
925.387	13712
925.494	13719
925.602	13818
925.709	13651
925.816	13582
925.924	13693
926.031	13731
926.138	13689
926.245	13559
926.352	13487
926.459	13670
926.566	13636
926.673	13529
926.779	13499
926.886	13449
926.993	13282
927.099	13206
927.206	13247
927.312	13103
927.419	13308
927.525	13164
927.631	13244
927.737	13080
927.843	13069
927.95	12954
928.056	13015
928.162	13019
928.267	13084
928.373	13643
928.479	13175
928.585	12833
928.69	12996
928.796	13004
928.901	12886
929.007	12817
929.112	12852
929.218	12768
929.323	12722
929.428	12776
929.533	12882
929.638	12597
929.743	12650
929.848	12692
929.953	12692
930.058	12536
930.163	12460
930.267	12372
930.372	12585
930.477	12376
930.581	12627
930.685	12410
930.79	12296
930.894	12281
930.998	12281
931.103	12403
931.207	12007
931.311	11969
931.415	11832
931.519	11638
931.623	11665
