Data from test_V78500241_1993.txt Node
Date: Fri Mar 25 15:55:36 CST 2022
User: usil
Spectrometer: V785-0024
Trigger mode: 0
Integration Time (sec): 4.000000E-1
Scans to average: 1
Nonlinearity correction enabled: false
Boxcar width: 0
Storing dark spectrum: false
XAxis mode: Wavelengths
Number of Pixels in Spectrum: 1024
>>>>>Begin Spectral Data<<<<<
801.071	28542
801.214	28531
801.356	28177
801.499	28131
801.641	28070
801.783	28109
801.926	28086
802.068	27972
802.211	27934
802.353	27873
802.496	27736
802.638	27675
802.78	27694
802.923	27644
803.065	27564
803.208	27698
803.35	27743
803.492	27827
803.635	27835
803.777	27690
803.919	27934
804.061	28112
804.204	27869
804.346	27785
804.488	27781
804.63	27949
804.773	27812
804.915	28067
805.057	27975
805.199	27869
805.341	27846
805.483	27991
805.626	28147
805.768	27994
805.91	28105
806.052	28059
806.194	27964
806.336	28177
806.478	28101
806.62	28169
806.762	28166
806.904	28428
807.046	28512
807.188	28546
807.33	28531
807.472	28679
807.614	28508
807.756	28626
807.898	28246
808.04	28295
808.182	28333
808.324	28337
808.465	28329
808.607	28573
808.749	28850
808.891	28816
809.033	28847
809.174	28892
809.316	28877
809.458	28797
809.6	28687
809.741	28767
809.883	28748
810.025	28980
810.166	29094
810.308	28900
810.45	28980
810.591	28995
810.733	28710
810.875	28679
811.016	28660
811.158	28626
811.299	28736
811.441	28904
811.582	28858
811.724	28824
811.865	28740
812.007	28721
812.148	28771
812.29	28793
812.431	28923
812.573	28968
812.714	29037
812.855	29269
812.997	29265
813.138	29383
813.279	29303
813.421	29159
813.562	29083
813.703	29056
813.845	28930
813.986	28763
814.127	28329
814.268	28447
814.41	28390
814.551	28325
814.692	28489
814.833	28417
814.974	28310
815.115	28565
815.256	28265
815.397	28367
815.539	28272
815.68	28196
815.821	28147
815.962	28299
816.103	28109
816.244	28219
816.385	28097
816.526	28006
816.666	27846
816.807	27766
816.948	27842
817.089	27941
817.23	27743
817.371	27732
817.512	27739
817.653	27675
817.793	27595
817.934	27641
818.075	27709
818.216	27648
818.356	27694
818.497	27633
818.638	27370
818.778	27268
818.919	27412
819.06	27587
819.2	27561
819.341	27743
819.481	27690
819.622	27804
819.762	28078
819.903	28044
820.043	27994
820.184	27911
820.324	27804
820.465	27922
820.605	27945
820.746	27903
820.886	27819
821.026	27838
821.167	27888
821.307	27983
821.447	27838
821.588	27599
821.728	27591
821.868	27291
822.008	27188
822.149	27188
822.289	27386
822.429	26902
822.569	26781
822.709	26948
822.849	26762
822.99	26762
823.13	26629
823.27	26583
823.41	26571
823.55	26355
823.69	26541
823.83	26465
823.97	26362
824.11	26385
824.25	26191
824.389	26191
824.529	26434
824.669	26366
824.809	26564
824.949	26446
825.089	26453
825.228	26366
825.368	26278
825.508	26328
825.648	26206
825.787	26332
825.927	26389
826.067	26218
826.206	26176
826.346	26244
826.485	26305
826.625	26142
826.765	26282
826.904	26172
827.044	26039
827.183	25921
827.323	25887
827.462	25936
827.601	25970
827.741	25841
827.88	25940
828.02	25921
828.159	25940
828.298	26100
828.437	26031
828.577	25947
828.716	26005
828.855	25841
828.994	25571
829.134	25685
829.273	25700
829.412	25514
829.551	25586
829.69	25666
829.829	25601
829.968	25750
830.107	25753
830.246	25712
830.385	25556
830.524	25487
830.663	25479
830.802	25392
830.941	25217
831.08	25225
831.219	25297
831.357	25282
831.496	25445
831.635	25232
831.774	25194
831.913	25137
832.051	25019
832.19	25046
832.329	25198
832.467	24951
832.606	24939
832.744	24875
832.883	24913
833.022	24802
833.16	24817
833.299	24886
833.437	24954
833.576	25031
833.714	24939
833.852	24943
833.991	25038
834.129	25107
834.267	25046
834.406	24970
834.544	25069
834.682	24985
834.821	24924
834.959	25095
835.097	24954
835.235	24989
835.373	25057
835.511	24920
835.65	24837
835.788	24882
835.926	24776
836.064	24559
836.202	24540
836.34	24753
836.478	24947
836.615	24665
836.753	24795
836.891	24867
837.029	24734
837.167	24757
837.305	24787
837.443	24661
837.58	24612
837.718	24703
837.856	24726
837.993	24528
838.131	24566
838.269	24380
838.406	24635
838.544	24410
838.681	24273
838.819	24247
838.956	24106
839.094	24209
839.231	24114
839.369	24334
839.506	24513
839.643	24327
839.781	24159
839.918	24049
840.055	23984
840.193	23984
840.33	23977
840.467	24064
840.604	24117
840.742	24148
840.879	23878
841.016	24030
841.153	23790
841.29	24125
841.427	23954
841.564	24064
841.701	23908
841.838	23999
841.975	23920
842.112	24003
842.249	23745
842.385	23798
842.522	23836
842.659	23813
842.796	23741
842.933	23813
843.069	23703
843.206	23722
843.343	23828
843.479	23722
843.616	23805
843.752	23531
843.889	23608
844.025	23714
844.162	23649
844.298	23512
844.435	23554
844.571	23417
844.708	23524
844.844	23611
844.98	23627
845.117	23623
845.253	23535
845.389	23372
845.525	23577
845.661	23433
845.798	23277
845.934	23258
846.07	23216
846.206	23258
846.342	23417
846.478	23231
846.614	23044
846.75	22908
846.886	22999
847.022	23086
847.158	23056
847.294	23048
847.429	22984
847.565	22972
847.701	23277
847.837	22675
847.972	22592
848.108	22793
848.244	22801
848.379	22618
848.515	22535
848.65	22668
848.786	22679
848.921	22588
849.057	22656
849.192	22668
849.328	22656
849.463	22580
849.598	22478
849.734	22504
849.869	22398
850.004	22409
850.14	22413
850.275	22360
850.41	22325
850.545	22295
850.68	22234
850.815	22325
850.95	22185
851.085	22489
851.22	22436
851.355	22382
851.49	22382
851.625	22318
851.76	22421
851.895	22284
852.03	22200
852.165	22360
852.299	22398
852.434	22417
852.569	22402
852.703	22299
852.838	22356
852.973	22512
853.107	22333
853.242	22272
853.376	22135
853.511	22154
853.645	22002
853.78	22223
853.914	22105
854.048	22128
854.183	22284
854.317	22249
854.451	22211
854.585	22109
854.72	22162
854.854	22074
854.988	22147
855.122	22139
855.256	22006
855.39	22135
855.524	22204
855.658	22177
855.792	22192
855.926	22211
856.06	22223
856.194	22261
856.327	22025
856.461	22006
856.595	22147
856.729	22188
856.862	22223
856.996	22105
857.13	22093
857.263	22261
857.397	22238
857.53	22188
857.664	22230
857.797	22272
857.931	22173
858.064	22223
858.197	22310
858.331	22128
858.464	22188
858.597	22101
858.731	22196
858.864	22253
858.997	22162
859.13	22143
859.263	22166
859.396	22276
859.529	22051
859.662	22135
859.795	22105
859.928	22226
860.061	22276
860.194	22246
860.327	22120
860.46	22086
860.592	22276
860.725	22390
860.858	22360
860.99	22249
861.123	22063
861.256	22067
861.388	22158
861.521	22965
861.653	21979
861.786	22013
861.918	21956
862.05	22021
862.183	22067
862.315	22116
862.447	22093
862.58	22101
862.712	21918
862.844	21827
862.976	21956
863.108	21816
863.24	22424
863.372	21797
863.504	21884
863.636	21964
863.768	21812
863.9	21816
864.032	21751
864.164	21838
864.296	21915
864.428	21964
864.559	21854
864.691	22021
864.823	21960
864.954	21861
865.086	21762
865.217	21709
865.349	21804
865.48	21698
865.612	21793
865.743	21876
865.875	21816
866.006	21610
866.137	21827
866.269	21743
866.4	21724
866.531	21663
866.662	21633
866.793	21625
866.924	21644
867.055	21705
867.186	21751
867.317	21633
867.448	21614
867.579	21724
867.71	21526
867.841	21466
867.972	21686
868.103	21732
868.233	21656
868.364	21633
868.495	21823
868.625	21797
868.756	22147
868.886	21793
869.017	21816
869.147	22078
869.278	22070
869.408	21880
869.539	22013
869.669	21960
869.799	22044
869.929	22139
870.06	21994
870.19	22215
870.32	22215
870.45	22219
870.58	22318
870.71	22504
870.84	22519
870.97	22459
871.1	22287
871.23	22417
871.36	22531
871.489	22470
871.619	22508
871.749	22497
871.879	22542
872.008	22592
872.138	22588
872.267	22554
872.397	22394
872.526	22306
872.656	22333
872.785	22242
872.915	22546
873.044	22500
873.173	22538
873.303	22561
873.432	22618
873.561	22721
873.69	22675
873.819	22679
873.948	22774
874.077	22527
874.206	22481
874.335	22588
874.464	22615
874.593	22759
874.722	22622
874.851	22927
874.979	22653
875.108	22839
875.237	22736
875.365	22523
875.494	22713
875.623	22790
875.751	22736
875.88	22774
876.008	22942
876.136	22881
876.265	23121
876.393	23239
876.521	23140
876.65	23185
876.778	23109
876.906	23147
877.034	23090
877.162	23162
877.29	23010
877.418	23102
877.546	23220
877.674	23018
877.802	23170
877.93	23010
878.058	23006
878.185	22984
878.313	23204
878.441	22965
878.568	23083
878.696	22995
878.824	23086
878.951	23098
879.079	23315
879.206	23387
879.333	23220
879.461	23071
879.588	23334
879.715	23284
879.842	23292
879.97	23269
880.097	22946
880.224	22946
880.351	22953
880.478	22991
880.605	22774
880.732	22995
880.859	23151
880.986	22938
881.112	22930
881.239	22755
881.366	22611
881.493	22710
881.619	22519
881.746	22588
881.872	22569
881.999	22409
882.125	22314
882.252	22485
882.378	22512
882.505	22424
882.631	22390
882.757	22261
882.883	22287
883.01	22215
883.136	22021
883.262	22074
883.388	21964
883.514	22139
883.64	22166
883.766	22070
883.892	21873
884.018	22025
884.143	22169
884.269	22272
884.395	21831
884.52	21724
884.646	21857
884.772	21682
884.897	21781
885.023	21831
885.148	21785
885.274	22090
885.399	21892
885.524	21789
885.65	21770
885.775	21808
885.9	21835
886.025	21907
886.15	21888
886.275	21660
886.4	21713
886.525	21736
886.65	21804
886.775	21709
886.9	21880
887.025	22051
887.149	21766
887.274	21587
887.399	21545
887.523	21538
887.648	21420
887.773	21412
887.897	21587
888.021	21557
888.146	21515
888.27	21618
888.395	21717
888.519	21538
888.643	21549
888.767	21557
888.891	21469
889.015	21355
889.139	21485
889.263	21397
889.387	21587
889.511	21420
889.635	21545
889.759	21359
889.883	21241
890.006	21561
890.13	21431
890.254	21291
890.377	21367
890.501	21074
890.624	21055
890.748	21199
890.871	21013
890.995	20883
891.118	20758
891.241	20906
891.364	21005
891.488	21089
891.611	20838
891.734	20906
891.857	21020
891.98	20933
892.103	20792
892.226	20872
892.349	20842
892.471	20682
892.594	20853
892.717	20902
892.839	20712
892.962	20754
893.085	20785
893.207	20807
893.33	20590
893.452	20807
893.575	20769
893.697	20842
893.819	21017
893.941	20963
894.064	20914
894.186	20735
894.308	20777
894.43	20880
894.552	20842
894.674	20853
894.796	20792
894.918	20659
895.04	20697
895.161	20921
895.283	20781
895.405	20625
895.526	20906
895.648	20724
895.769	20883
895.891	20937
896.012	20788
896.134	20785
896.255	20800
896.376	20701
896.498	20724
896.619	20815
896.74	20788
896.861	20906
896.982	20982
897.103	21081
897.224	21062
897.345	21131
897.466	20838
897.587	20979
897.708	21161
897.828	20963
897.949	21032
898.07	20739
898.19	20883
898.311	21062
898.431	20792
898.552	21028
898.672	21058
898.792	21047
898.913	21017
899.033	20792
899.153	20804
899.273	20682
899.393	20655
899.513	20659
899.633	20781
899.753	20640
899.873	20640
899.993	20762
900.113	20674
900.232	20712
900.352	20617
900.472	20598
900.591	20564
900.711	20511
900.83	20518
900.95	20568
901.069	20609
901.189	20476
901.308	20130
901.427	20043
901.546	20035
901.665	20043
901.784	20164
901.904	19830
902.023	19772
902.141	19624
902.26	19620
902.379	19681
902.498	19613
902.617	19506
902.735	19525
902.854	19426
902.973	19453
903.091	19266
903.21	19202
903.328	19263
903.446	19137
903.565	19034
903.683	19156
903.801	18909
903.919	18924
904.038	18920
904.156	18848
904.274	18954
904.392	18791
904.51	18753
904.627	18760
904.745	18821
904.863	18840
904.981	18620
905.098	18525
905.216	18490
905.334	18448
905.451	18456
905.569	18498
905.686	18608
905.803	18372
905.921	18205
906.038	18323
906.155	18323
906.272	18129
906.389	18159
906.506	18007
906.623	17977
906.74	18030
906.857	17942
906.974	17916
907.091	18011
907.208	18110
907.324	18030
907.441	17939
907.557	17809
907.674	17828
907.79	17760
907.907	17619
908.023	17733
908.139	17752
908.256	17623
908.372	17604
908.488	17577
908.604	17421
908.72	17395
908.836	17421
908.952	17277
909.068	17509
909.184	17482
909.3	17360
909.415	17280
909.531	17421
909.647	17155
909.762	17159
909.878	17083
909.993	17197
910.108	17052
910.224	17075
910.339	17136
910.454	16923
910.57	16972
910.685	16847
910.8	17208
910.915	17109
911.03	16850
911.145	16771
911.259	16698
911.374	16774
911.489	16550
911.604	16588
911.718	16459
911.833	16516
911.947	16356
912.062	16306
912.176	16531
912.291	16554
912.405	16519
912.519	16622
912.633	16573
912.748	16500
912.862	16363
912.976	16337
913.09	16177
913.204	16181
913.318	16253
913.431	16310
913.545	16337
913.659	16310
913.772	16234
913.886	16036
914	16044
914.113	16025
914.226	16093
914.34	16135
914.453	15945
914.566	16059
914.68	15888
914.793	15800
914.906	15751
915.019	15606
915.132	15572
915.245	15663
915.358	15633
915.47	15591
915.583	15618
915.696	15709
915.809	15709
915.921	15709
916.034	15656
916.146	15568
916.259	15610
916.371	15622
916.483	15561
916.595	15435
916.708	15538
916.82	15469
916.932	15393
917.044	15477
917.156	15382
917.268	15321
917.38	15302
917.491	15241
917.603	15252
917.715	15291
917.826	15268
917.938	15180
918.049	15051
918.161	15192
918.272	15363
918.384	15367
918.495	15222
918.606	15077
918.717	15001
918.828	15055
918.939	15070
919.05	14948
919.161	14891
919.272	14880
919.383	14872
919.494	14998
919.604	15116
919.715	15005
919.826	14864
919.936	14952
920.047	15047
920.157	15039
920.267	15192
920.378	14967
920.488	14883
920.598	15108
920.708	15260
920.818	14982
920.928	15100
921.038	15245
921.148	15298
921.258	14895
921.368	14826
921.477	14655
921.587	14644
921.697	14530
921.806	14659
921.916	14526
922.025	14473
922.134	14320
922.244	14225
922.353	14339
922.462	14206
922.571	14233
922.68	14001
922.789	14027
922.898	13986
923.007	13967
923.116	13936
923.224	13982
923.333	13940
923.442	13856
923.55	13757
923.659	13879
923.767	13822
923.876	13723
923.984	13849
924.092	13750
924.201	13689
924.309	13651
924.417	13677
924.525	13658
924.633	13620
924.741	14362
924.849	13441
924.956	13601
925.064	13464
925.172	13270
925.279	13331
925.387	13346
925.494	13377
925.602	13502
925.709	13499
925.816	13285
925.924	13278
926.031	13343
926.138	13240
926.245	13377
926.352	13202
926.459	13388
926.566	13362
926.673	13137
926.779	13225
926.886	13103
926.993	13053
927.099	12962
927.206	12878
927.312	12867
927.419	12875
927.525	12905
927.631	12954
927.737	12867
927.843	12806
927.95	12642
928.056	12715
928.162	12662
928.267	12901
928.373	13327
928.479	12852
928.585	12589
928.69	12635
928.796	12696
928.901	12642
929.007	12490
929.112	12566
929.218	12555
929.323	12559
929.428	12464
929.533	12547
929.638	12426
929.743	12372
929.848	12426
929.953	12353
930.058	12372
930.163	12121
930.267	12186
930.372	12262
930.477	12148
930.581	12338
930.685	12152
930.79	11980
930.894	12068
930.998	11965
931.103	12102
931.207	11726
931.311	11619
931.415	11551
931.519	11406
931.623	11417
