Data from test_V78500241_3327.txt Node
Date: Fri Mar 25 16:04:50 CST 2022
User: usil
Spectrometer: V785-0024
Trigger mode: 0
Integration Time (sec): 4.000000E-1
Scans to average: 1
Nonlinearity correction enabled: false
Boxcar width: 0
Storing dark spectrum: false
XAxis mode: Wavelengths
Number of Pixels in Spectrum: 1024
>>>>>Begin Spectral Data<<<<<
801.071	28820
801.214	28881
801.356	28561
801.499	28462
801.641	28352
801.783	28500
801.926	28497
802.068	28474
802.211	28398
802.353	28409
802.496	28181
802.638	28192
802.78	28051
802.923	27975
803.065	27964
803.208	28063
803.35	28120
803.492	28185
803.635	28344
803.777	28211
803.919	28329
804.061	28626
804.204	28382
804.346	28356
804.488	28078
804.63	28303
804.773	28329
804.915	28531
805.057	28565
805.199	28497
805.341	28516
805.483	28466
805.626	28603
805.768	28272
805.91	28584
806.052	28409
806.194	28322
806.336	28733
806.478	28550
806.62	28531
806.762	28569
806.904	28797
807.046	29025
807.188	28904
807.33	28927
807.472	29033
807.614	28828
807.756	29003
807.898	28892
808.04	28759
808.182	28786
808.324	28885
808.465	28915
808.607	29041
808.749	29178
808.891	29231
809.033	29375
809.174	29318
809.316	29166
809.458	29147
809.6	29269
809.741	29330
809.883	29402
810.025	29368
810.166	29490
810.308	29573
810.45	29547
810.591	29414
810.733	29288
810.875	29204
811.016	29250
811.158	29193
811.299	29292
811.441	29414
811.582	29292
811.724	29261
811.865	29269
812.007	29322
812.148	29239
812.29	29269
812.431	29490
812.573	29455
812.714	29786
812.855	29684
812.997	29939
813.138	29969
813.279	29870
813.421	29737
813.562	29714
813.703	29585
813.845	29547
813.986	29041
814.127	28949
814.268	29121
814.41	29060
814.551	29006
814.692	28999
814.833	28953
814.974	28881
815.115	28957
815.256	28797
815.397	28706
815.539	28790
815.68	28664
815.821	28744
815.962	28691
816.103	28679
816.244	28645
816.385	28622
816.526	28615
816.666	28390
816.807	28284
816.948	28280
817.089	28523
817.23	28398
817.371	28417
817.512	28322
817.653	28188
817.793	28147
817.934	28268
818.075	28158
818.216	28371
818.356	28234
818.497	28192
818.638	28048
818.778	28017
818.919	28051
819.06	28086
819.2	28124
819.341	28253
819.481	28246
819.622	28459
819.762	28656
819.903	28565
820.043	28580
820.184	28306
820.324	28265
820.465	28523
820.605	28459
820.746	28314
820.886	28261
821.026	28329
821.167	28276
821.307	28489
821.447	28234
821.588	28097
821.728	28013
821.868	27907
822.008	27831
822.149	27899
822.289	27728
822.429	27416
822.569	27374
822.709	27325
822.849	27275
822.99	27249
823.13	27275
823.27	27135
823.41	27005
823.55	26952
823.69	27100
823.83	27131
823.97	27131
824.11	26906
824.25	26937
824.389	26868
824.529	27043
824.669	26952
824.809	27100
824.949	26986
825.089	26887
825.228	26910
825.368	26796
825.508	26819
825.648	26773
825.787	26731
825.927	26876
826.067	26731
826.206	26804
826.346	26800
826.485	26845
826.625	26868
826.765	26830
826.904	26796
827.044	26537
827.183	26564
827.323	26492
827.462	26575
827.601	26522
827.741	26450
827.88	26549
828.02	26461
828.159	26473
828.298	26541
828.437	26495
828.577	26526
828.716	26590
828.855	26526
828.994	26176
829.134	26187
829.273	26237
829.412	26126
829.551	26134
829.69	26237
829.829	26225
829.968	26210
830.107	26259
830.246	26187
830.385	26103
830.524	26100
830.663	25944
830.802	25974
830.941	25674
831.08	25811
831.219	25986
831.357	25868
831.496	26058
831.635	25852
831.774	25887
831.913	25784
832.051	25529
832.19	25491
832.329	25575
832.467	25556
832.606	25487
832.744	25377
832.883	25460
833.022	25476
833.16	25506
833.299	25460
833.437	25578
833.576	25590
833.714	25529
833.852	25537
833.991	25571
834.129	25613
834.267	25521
834.406	25632
834.544	25495
834.682	25620
834.821	25506
834.959	25814
835.097	25400
835.235	25537
835.373	25369
835.511	25571
835.65	25426
835.788	25377
835.926	25384
836.064	25179
836.202	25244
836.34	25369
836.478	25502
836.615	25419
836.753	25373
836.891	25384
837.029	25316
837.167	25297
837.305	25327
837.443	25198
837.58	25152
837.718	25335
837.856	25164
837.993	25000
838.131	25164
838.269	25000
838.406	25099
838.544	24992
838.681	24875
838.819	24844
838.956	24612
839.094	24566
839.231	24719
839.369	24757
839.506	24951
839.643	25050
839.781	24703
839.918	24593
840.055	24642
840.193	24665
840.33	24555
840.467	24574
840.604	24684
840.742	24814
840.879	24422
841.016	24502
841.153	24357
841.29	24608
841.427	24399
841.564	24608
841.701	24574
841.838	24498
841.975	24513
842.112	24490
842.249	24376
842.385	24247
842.522	24505
842.659	24369
842.796	24277
842.933	24197
843.069	24254
843.206	24403
843.343	24410
843.479	24441
843.616	24232
843.752	24087
843.889	24068
844.025	24228
844.162	24117
844.298	24155
844.435	24171
844.571	24038
844.708	24182
844.844	24300
844.98	24251
845.117	24220
845.253	24083
845.389	23897
845.525	23973
845.661	23866
845.798	23851
845.934	23973
846.07	23897
846.206	23794
846.342	23942
846.478	23764
846.614	23657
846.75	23516
846.886	23547
847.022	23562
847.158	23630
847.294	23619
847.429	23615
847.565	23478
847.701	23752
847.837	23303
847.972	23189
848.108	23444
848.244	23391
848.379	23220
848.515	23159
848.65	23128
848.786	23056
848.921	23083
849.057	23345
849.192	23239
849.328	23265
849.463	23094
849.598	23155
849.734	22999
849.869	22976
850.004	22965
850.14	22991
850.275	22869
850.41	22877
850.545	22828
850.68	22900
850.815	22938
850.95	22938
851.085	23147
851.22	22972
851.355	22889
851.49	22911
851.625	22877
851.76	22911
851.895	22828
852.03	22801
852.165	22919
852.299	22949
852.434	22946
852.569	22881
852.703	22900
852.838	23010
852.973	23018
853.107	23067
853.242	22877
853.376	22668
853.511	22630
853.645	22736
853.78	22839
853.914	22889
854.048	22656
854.183	22710
854.317	22698
854.451	23006
854.585	22733
854.72	22698
854.854	22824
854.988	22710
855.122	22755
855.256	22615
855.39	22630
855.524	22774
855.658	22759
855.792	22767
855.926	22847
856.06	22774
856.194	22812
856.327	22713
856.461	22721
856.595	22752
856.729	22698
856.862	22805
856.996	22702
857.13	22881
857.263	22934
857.397	22767
857.53	22691
857.664	22725
857.797	22752
857.931	22976
858.064	22793
858.197	22771
858.331	22763
858.464	22660
858.597	22622
858.731	22679
858.864	22713
858.997	22603
859.13	22790
859.263	22713
859.396	22896
859.529	22679
859.662	22664
859.795	22805
859.928	22679
860.061	22877
860.194	22938
860.327	22687
860.46	22694
860.592	22911
860.725	22946
860.858	22896
860.99	22824
861.123	22675
861.256	22694
861.388	22748
861.521	23429
861.653	22584
861.786	22489
861.918	22626
862.05	22611
862.183	22637
862.315	22698
862.447	22744
862.58	22725
862.712	22466
862.844	22512
862.976	22603
863.108	22527
863.24	23018
863.372	22462
863.504	22428
863.636	22447
863.768	22538
863.9	22421
864.032	22337
864.164	22405
864.296	22386
864.428	22550
864.559	22325
864.691	22500
864.823	22512
864.954	22375
865.086	22440
865.217	22344
865.349	22238
865.48	22226
865.612	22318
865.743	22512
865.875	22382
866.006	22230
866.137	22394
866.269	22329
866.4	22329
866.531	22303
866.662	22238
866.793	22246
866.924	22215
867.055	22215
867.186	22310
867.317	22211
867.448	22207
867.579	22223
867.71	22169
867.841	22135
867.972	22303
868.103	22150
868.233	22306
868.364	22120
868.495	22211
868.625	22257
868.756	22660
868.886	22371
869.017	22573
869.147	22485
869.278	22550
869.408	22512
869.539	22459
869.669	22622
869.799	22569
869.929	22736
870.06	22557
870.19	22710
870.32	22752
870.45	22885
870.58	22911
870.71	23010
870.84	22900
870.97	22828
871.1	22908
871.23	23056
871.36	22984
871.489	22976
871.619	22995
871.749	23151
871.879	23117
872.008	23189
872.138	23113
872.267	22957
872.397	22938
872.526	22980
872.656	22812
872.785	22896
872.915	23098
873.044	23269
873.173	23204
873.303	23083
873.432	23197
873.561	23060
873.69	23128
873.819	23117
873.948	23151
874.077	23060
874.206	23094
874.335	23083
874.464	23239
874.593	23379
874.722	23318
874.851	23341
874.979	23288
875.108	23330
875.237	23178
875.365	23254
875.494	23235
875.623	23524
875.751	23216
875.88	23299
876.008	23455
876.136	23554
876.265	23573
876.393	23798
876.521	23748
876.65	23733
876.778	23760
876.906	23649
877.034	23661
877.162	23661
877.29	23638
877.418	23737
877.546	23653
877.674	23748
877.802	23592
877.93	23687
878.058	23520
878.185	23551
878.313	23554
878.441	23646
878.568	23573
878.696	23638
878.824	23638
878.951	23805
879.079	23775
879.206	23999
879.333	23889
879.461	23676
879.588	23794
879.715	23794
879.842	23950
879.97	23767
880.097	23471
880.224	23383
880.351	23570
880.478	23505
880.605	23410
880.732	23455
880.859	23687
880.986	23486
881.112	23429
881.239	23284
881.366	23197
881.493	23189
881.619	23048
881.746	23025
881.872	23037
881.999	23094
882.125	23083
882.252	23003
882.378	23018
882.505	23121
882.631	22892
882.757	22824
882.883	22854
883.01	22668
883.136	22687
883.262	22622
883.388	22485
883.514	22752
883.64	22850
883.766	22603
883.892	22413
884.018	22398
884.143	22634
884.269	22778
884.395	22379
884.52	22329
884.646	22432
884.772	22261
884.897	22295
885.023	22268
885.148	22485
885.274	22489
885.399	22443
885.524	22265
885.65	22291
885.775	22432
885.9	22287
886.025	22455
886.15	22382
886.275	22207
886.4	22181
886.525	22196
886.65	22188
886.775	22139
886.9	22421
887.025	22508
887.149	22295
887.274	22082
887.399	22029
887.523	22139
887.648	22017
887.773	21979
887.897	22120
888.021	22059
888.146	22074
888.27	22238
888.395	22303
888.519	22120
888.643	22067
888.767	22226
888.891	22032
889.015	21926
889.139	21972
889.263	21854
889.387	21949
889.511	22010
889.635	22025
889.759	21846
889.883	21922
890.006	21899
890.13	21998
890.254	21793
890.377	21808
890.501	21671
890.624	21595
890.748	21667
890.871	21679
890.995	21439
891.118	21370
891.241	21469
891.364	21340
891.488	21454
891.611	21443
891.734	21416
891.857	21469
891.98	21458
892.103	21507
892.226	21348
892.349	21359
892.471	21207
892.594	21340
892.717	21344
892.839	21298
892.962	21176
893.085	21351
893.207	21203
893.33	21237
893.452	21138
893.575	21348
893.697	21256
893.819	21462
893.941	21492
894.064	21530
894.186	21150
894.308	21135
894.43	21325
894.552	21416
894.674	21306
894.796	21226
894.918	21332
895.04	21340
895.161	21260
895.283	21412
895.405	21176
895.526	21298
895.648	21268
895.769	21252
895.891	21279
896.012	21275
896.134	21291
896.255	21249
896.376	21207
896.498	21211
896.619	21218
896.74	21199
896.861	21302
896.982	21515
897.103	21778
897.224	21523
897.345	21424
897.466	21488
897.587	21561
897.708	21435
897.828	21382
897.949	21412
898.07	21336
898.19	21420
898.311	21538
898.431	21386
898.552	21530
898.672	21462
898.792	21545
898.913	21545
899.033	21363
899.153	21310
899.273	21051
899.393	21222
899.513	21218
899.633	21119
899.753	21264
899.873	21169
899.993	21237
900.113	21146
900.232	21123
900.352	21192
900.472	21032
900.591	20910
900.711	20967
900.83	20921
900.95	21123
901.069	20971
901.189	20804
901.308	20682
901.427	20514
901.546	20499
901.665	20659
901.784	20415
901.904	20431
902.023	20438
902.141	20153
902.26	20001
902.379	20244
902.498	19974
902.617	19947
902.735	20145
902.854	19978
902.973	19894
903.091	19674
903.21	19753
903.328	19742
903.446	19696
903.565	19563
903.683	19415
903.801	19381
903.919	19392
904.038	19491
904.156	19251
904.274	19297
904.392	19206
904.51	19266
904.627	19175
904.745	19274
904.863	19251
904.981	19072
905.098	18943
905.216	18859
905.334	18996
905.451	18935
905.569	18897
905.686	18977
905.803	18897
905.921	18715
906.038	18848
906.155	18753
906.272	18563
906.389	18604
906.506	18604
906.623	18437
906.74	18456
906.857	18304
906.974	18357
907.091	18403
907.208	18464
907.324	18376
907.441	18353
907.557	18228
907.674	18144
907.79	18057
907.907	18148
908.023	18136
908.139	18247
908.256	18057
908.372	17916
908.488	18019
908.604	17935
908.72	17832
908.836	17912
908.952	17870
909.068	17882
909.184	17927
909.3	17824
909.415	18011
909.531	17859
909.647	17676
909.762	17570
909.878	17509
909.993	17562
910.108	17353
910.224	17512
910.339	17433
910.454	17376
910.57	17395
910.685	17345
910.8	17638
910.915	17398
911.03	17265
911.145	17181
911.259	17140
911.374	17155
911.489	17075
911.604	16984
911.718	16930
911.833	16763
911.947	16805
912.062	16691
912.176	16927
912.291	16831
912.405	16805
912.519	16999
912.633	17037
912.748	16889
912.862	16820
912.976	16805
913.09	16592
913.204	16687
913.318	16588
913.431	16740
913.545	16816
913.659	16683
913.772	16637
913.886	16535
914	16363
914.113	16516
914.226	16550
914.34	16497
914.453	16291
914.566	16417
914.68	16287
914.793	16379
914.906	16147
915.019	15979
915.132	15930
915.245	15953
915.358	16029
915.47	15983
915.583	16032
915.696	16036
915.809	16006
915.921	16105
916.034	15915
916.146	15838
916.259	15808
916.371	15960
916.483	15903
916.595	15911
916.708	15838
916.82	15819
916.932	15804
917.044	15778
917.156	15698
917.268	15561
917.38	15637
917.491	15584
917.603	15545
917.715	15705
917.826	15846
917.938	15553
918.049	15637
918.161	15580
918.272	15652
918.384	15675
918.495	15606
918.606	15351
918.717	15428
918.828	15397
918.939	15378
919.05	15180
919.161	15389
919.272	15119
919.383	15184
919.494	15408
919.604	15500
919.715	15378
919.826	15310
919.936	15268
920.047	15370
920.157	15260
920.267	15603
920.378	15325
920.488	15336
920.598	15439
920.708	15610
920.818	15469
920.928	15370
921.038	15641
921.148	15523
921.258	15237
921.368	15176
921.477	15077
921.587	14979
921.697	14990
921.806	15009
921.916	14853
922.025	14765
922.134	14743
922.244	14648
922.353	14632
922.462	14503
922.571	14530
922.68	14317
922.789	14385
922.898	14282
923.007	14256
923.116	14282
923.224	14240
923.333	14256
923.442	14221
923.55	14123
923.659	14081
923.767	14225
923.876	14103
923.984	14103
924.092	14077
924.201	14065
924.309	14031
924.417	14012
924.525	13898
924.633	13970
924.741	15009
924.849	13731
924.956	13909
925.064	13814
925.172	13559
925.279	13753
925.387	13753
925.494	13662
925.602	13822
925.709	13693
925.816	13670
925.924	13537
926.031	13700
926.138	13696
926.245	13639
926.352	13495
926.459	13643
926.566	13651
926.673	13434
926.779	13453
926.886	13384
926.993	13282
927.099	13183
927.206	13183
927.312	13129
927.419	13213
927.525	13217
927.631	13164
927.737	13103
927.843	13072
927.95	12905
928.056	13110
928.162	13015
928.267	13038
928.373	13575
928.479	13110
928.585	12779
928.69	13031
928.796	13118
928.901	12878
929.007	12715
929.112	12878
929.218	12863
929.323	12825
929.428	12673
929.533	12856
929.638	12707
929.743	12677
929.848	12677
929.953	12658
930.058	12650
930.163	12479
930.267	12395
930.372	12608
930.477	12300
930.581	12555
930.685	12494
930.79	12296
930.894	12334
930.998	12289
931.103	12380
931.207	12060
931.311	11901
931.415	11901
931.519	11661
931.623	11604
