Data from test_V78500241_27.txt Node
Date: Fri Mar 25 15:41:59 CST 2022
User: usil
Spectrometer: V785-0024
Trigger mode: 0
Integration Time (sec): 4.000000E-1
Scans to average: 1
Nonlinearity correction enabled: false
Boxcar width: 0
Storing dark spectrum: false
XAxis mode: Wavelengths
Number of Pixels in Spectrum: 1024
>>>>>Begin Spectral Data<<<<<
801.071	27439
801.214	27218
801.356	27028
801.499	26986
801.641	26769
801.783	26781
801.926	26773
802.068	26575
802.211	26575
802.353	26651
802.496	26446
802.638	26374
802.78	26298
802.923	26313
803.065	26107
803.208	26183
803.35	26271
803.492	26404
803.635	26503
803.777	26294
803.919	26324
804.061	26693
804.204	26431
804.346	26252
804.488	26142
804.63	26317
804.773	26077
804.915	26370
805.057	26339
805.199	26237
805.341	26237
805.483	26400
805.626	26377
805.768	26309
805.91	26396
806.052	26259
806.194	26286
806.336	26499
806.478	26336
806.62	26328
806.762	26499
806.904	26473
807.046	26834
807.188	26731
807.33	26720
807.472	26629
807.614	26655
807.756	26617
807.898	26602
808.04	26320
808.182	26419
808.324	26374
808.465	26309
808.607	26545
808.749	26762
808.891	26830
809.033	26902
809.174	26891
809.316	26735
809.458	26773
809.6	26735
809.741	26765
809.883	26762
810.025	26921
810.166	27081
810.308	26975
810.45	26940
810.591	26823
810.733	26632
810.875	26602
811.016	26488
811.158	26545
811.299	26636
811.441	26800
811.582	26750
811.724	26674
811.865	26571
812.007	26602
812.148	26617
812.29	26682
812.431	26720
812.573	26910
812.714	27020
812.855	27203
812.997	27211
813.138	27332
813.279	27214
813.421	27142
813.562	27055
813.703	26804
813.845	26750
813.986	26533
814.127	26351
814.268	26263
814.41	26199
814.551	26176
814.692	26103
814.833	26107
814.974	26149
815.115	26183
815.256	25879
815.397	25959
815.539	25887
815.68	25890
815.821	25879
815.962	25811
816.103	25791
816.244	25632
816.385	25525
816.526	25441
816.666	25400
816.807	25187
816.948	25285
817.089	25289
817.23	25373
817.371	25335
817.512	25183
817.653	25160
817.793	25217
817.934	25198
818.075	25183
818.216	25152
818.356	24992
818.497	24913
818.638	24776
818.778	24772
818.919	24817
819.06	24859
819.2	24928
819.341	24962
819.481	24985
819.622	25244
819.762	25335
819.903	25278
820.043	25251
820.184	25164
820.324	25217
820.465	25110
820.605	25236
820.746	25122
820.886	24886
821.026	25053
821.167	24905
821.307	25206
821.447	25042
821.588	24894
821.728	24802
821.868	24661
822.008	24483
822.149	24471
822.289	24460
822.429	24190
822.569	24159
822.709	24144
822.849	23904
822.99	23912
823.13	23942
823.27	23916
823.41	23611
823.55	23665
823.69	23741
823.83	23707
823.97	23672
824.11	23402
824.25	23490
824.389	23402
824.529	23547
824.669	23410
824.809	23573
824.949	23531
825.089	23581
825.228	23478
825.368	23265
825.508	23341
825.648	23296
825.787	23364
825.927	23311
826.067	23231
826.206	23254
826.346	23288
826.485	23269
826.625	23220
826.765	23227
826.904	23178
827.044	22953
827.183	22835
827.323	22828
827.462	22972
827.601	22869
827.741	22934
827.88	22862
828.02	22763
828.159	22752
828.298	22972
828.437	22828
828.577	22763
828.716	22881
828.855	22694
828.994	22596
829.134	22546
829.273	22755
829.412	22565
829.551	22398
829.69	22584
829.829	22588
829.968	22618
830.107	22672
830.246	22523
830.385	22538
830.524	22367
830.663	22230
830.802	22246
830.941	22135
831.08	22006
831.219	22154
831.357	22086
831.496	22272
831.635	21975
831.774	22002
831.913	21838
832.051	21876
832.19	21907
832.329	21926
832.467	21838
832.606	21827
832.744	21698
832.883	21865
833.022	21732
833.16	21682
833.299	21823
833.437	21739
833.576	21827
833.714	21762
833.852	21736
833.991	21873
834.129	21743
834.267	21774
834.406	21629
834.544	21652
834.682	21827
834.821	21701
834.959	21869
835.097	21671
835.235	21823
835.373	21709
835.511	21720
835.65	21545
835.788	21507
835.926	21401
836.064	21340
836.202	21466
836.34	21580
836.478	21686
836.615	21557
836.753	21641
836.891	21618
837.029	21507
837.167	21435
837.305	21481
837.443	21473
837.58	21348
837.718	21553
837.856	21424
837.993	21294
838.131	21294
838.269	21424
838.406	21370
838.544	21207
838.681	20956
838.819	20941
838.956	20758
839.094	20838
839.231	20933
839.369	20994
839.506	21252
839.643	21123
839.781	20788
839.918	20781
840.055	20754
840.193	20765
840.33	20773
840.467	20655
840.604	20758
840.742	21085
840.879	20598
841.016	20743
841.153	20701
841.29	20823
841.427	20682
841.564	20914
841.701	20792
841.838	20701
841.975	20590
842.112	20712
842.249	20590
842.385	20533
842.522	20708
842.659	20598
842.796	20461
842.933	20301
843.069	20301
843.206	20263
843.343	20663
843.479	20305
843.616	20450
843.752	20195
843.889	20145
844.025	20301
844.162	20119
844.298	20225
844.435	20103
844.571	20119
844.708	20237
844.844	20347
844.98	20294
845.117	20218
845.253	20081
845.389	20073
845.525	19917
845.661	20016
845.798	19932
845.934	19978
846.07	19856
846.206	19970
846.342	20081
846.478	19852
846.614	19742
846.75	19590
846.886	19616
847.022	19761
847.158	19643
847.294	19635
847.429	19655
847.565	19628
847.701	19811
847.837	19396
847.972	19259
848.108	19472
848.244	19438
848.379	19320
848.515	19206
848.65	19065
848.786	19141
848.921	19164
849.057	19266
849.192	19194
849.328	19194
849.463	19148
849.598	19145
849.734	19088
849.869	19080
850.004	18970
850.14	18970
850.275	18993
850.41	18749
850.545	18859
850.68	18894
850.815	18837
850.95	18768
851.085	19015
851.22	19046
851.355	18920
851.49	18882
851.625	18867
851.76	18829
851.895	18779
852.03	18772
852.165	18764
852.299	18894
852.434	19042
852.569	18810
852.703	18795
852.838	18958
852.973	18947
853.107	18989
853.242	18837
853.376	18726
853.511	18639
853.645	18608
853.78	18798
853.914	18696
854.048	18677
854.183	18703
854.317	18681
854.451	18913
854.585	18673
854.72	18627
854.854	18745
854.988	18661
855.122	18779
855.256	18528
855.39	18734
855.524	18738
855.658	18681
855.792	18681
855.926	18783
856.06	18741
856.194	18890
856.327	18616
856.461	18635
856.595	18616
856.729	18669
856.862	18741
856.996	18688
857.13	18772
857.263	18749
857.397	18783
857.53	18601
857.664	18719
857.797	18696
857.931	18802
858.064	18669
858.197	18848
858.331	18582
858.464	18623
858.597	18544
858.731	18578
858.864	18612
858.997	18563
859.13	18669
859.263	18620
859.396	18696
859.529	18578
859.662	18589
859.795	18422
859.928	18563
860.061	18692
860.194	18753
860.327	18703
860.46	18601
860.592	18726
860.725	18764
860.858	18715
860.99	18570
861.123	18502
861.256	18490
861.388	18570
861.521	19107
861.653	18502
861.786	18365
861.918	18502
862.05	18582
862.183	18658
862.315	18650
862.447	18684
862.58	18631
862.712	18445
862.844	18304
862.976	18414
863.108	18388
863.24	18620
863.372	18266
863.504	18353
863.636	18346
863.768	18323
863.9	18262
864.032	18220
864.164	18232
864.296	18289
864.428	18365
864.559	18380
864.691	18395
864.823	18308
864.954	18418
865.086	18270
865.217	18136
865.349	18110
865.48	18289
865.612	18346
865.743	18311
865.875	18289
866.006	18194
866.137	18323
866.269	18258
866.4	18224
866.531	18201
866.662	18243
866.793	18148
866.924	18182
867.055	18216
867.186	18155
867.317	18110
867.448	18152
867.579	18163
867.71	18114
867.841	18098
867.972	18152
868.103	18171
868.233	18194
868.364	18060
868.495	18239
868.625	18357
868.756	18544
868.886	18391
869.017	18388
869.147	18623
869.278	18627
869.408	18517
869.539	18376
869.669	18395
869.799	18486
869.929	18559
870.06	18566
870.19	18745
870.32	18738
870.45	18738
870.58	18821
870.71	18886
870.84	18886
870.97	18787
871.1	18844
871.23	18901
871.36	18962
871.489	18882
871.619	18924
871.749	19012
871.879	19088
872.008	19084
872.138	18985
872.267	19038
872.397	18863
872.526	18954
872.656	18897
872.785	18913
872.915	19004
873.044	19110
873.173	19061
873.303	19137
873.432	19148
873.561	19088
873.69	19061
873.819	19000
873.948	19053
874.077	19145
874.206	18878
874.335	19091
874.464	19274
874.593	19209
874.722	19362
874.851	19266
874.979	19350
875.108	19384
875.237	19335
875.365	19232
875.494	19304
875.623	19369
875.751	19331
875.88	19403
876.008	19460
876.136	19483
876.265	19757
876.393	19963
876.521	19791
876.65	19833
876.778	19837
876.906	19639
877.034	19635
877.162	19719
877.29	19624
877.418	19685
877.546	19750
877.674	19582
877.802	19696
877.93	19765
878.058	19677
878.185	19677
878.313	19723
878.441	19788
878.568	19616
878.696	19674
878.824	19715
878.951	19723
879.079	19860
879.206	20065
879.333	19909
879.461	19864
879.588	19712
879.715	19776
879.842	20001
879.97	19803
880.097	19464
880.224	19457
880.351	19662
880.478	19601
880.605	19518
880.732	19632
880.859	19795
880.986	19655
881.112	19540
881.239	19518
881.366	19293
881.493	19270
881.619	19183
881.746	19156
881.872	19183
881.999	19133
882.125	19110
882.252	19251
882.378	19129
882.505	19411
882.631	19145
882.757	19061
882.883	18935
883.01	18939
883.136	18890
883.262	18833
883.388	18753
883.514	19000
883.64	19088
883.766	18894
883.892	18703
884.018	18757
884.143	19000
884.269	19046
884.395	18639
884.52	18544
884.646	18597
884.772	18479
884.897	18532
885.023	18597
885.148	18673
885.274	18711
885.399	18757
885.524	18506
885.65	18536
885.775	18688
885.9	18509
886.025	18665
886.15	18620
886.275	18604
886.4	18551
886.525	18506
886.65	18418
886.775	18555
886.9	18719
887.025	18745
887.149	18570
887.274	18414
887.399	18277
887.523	18410
887.648	18232
887.773	18213
887.897	18350
888.021	18528
888.146	18270
888.27	18460
888.395	18441
888.519	18399
888.643	18388
888.767	18338
888.891	18262
889.015	18190
889.139	18194
889.263	18087
889.387	18140
889.511	18338
889.635	18239
889.759	18136
889.883	18125
890.006	18136
890.13	18148
890.254	18129
890.377	18003
890.501	17870
890.624	17980
890.748	18049
890.871	17802
890.995	17722
891.118	17710
891.241	17878
891.364	17741
891.488	17859
891.611	17794
891.734	17847
891.857	17821
891.98	17748
892.103	17809
892.226	17707
892.349	17794
892.471	17505
892.594	17695
892.717	17691
892.839	17657
892.962	17741
893.085	17912
893.207	17771
893.33	17680
893.452	17707
893.575	17870
893.697	17665
893.819	17828
893.941	17851
894.064	17813
894.186	17737
894.308	17630
894.43	17851
894.552	17847
894.674	17897
894.796	17619
894.918	17733
895.04	17760
895.161	17748
895.283	17661
895.405	17703
895.526	17764
895.648	17733
895.769	17798
895.891	17813
896.012	17786
896.134	17794
896.255	17878
896.376	17775
896.498	17824
896.619	17908
896.74	17908
896.861	17874
896.982	18289
897.103	18289
897.224	18243
897.345	18072
897.466	18095
897.587	18079
897.708	18167
897.828	18167
897.949	17946
898.07	17824
898.19	17855
898.311	18102
898.431	17992
898.552	18072
898.672	18148
898.792	18095
898.913	18060
899.033	17885
899.153	17866
899.273	17828
899.393	17703
899.513	17859
899.633	17745
899.753	17847
899.873	17680
899.993	17874
900.113	17722
900.232	17764
900.352	17748
900.472	17600
900.591	17585
900.711	17710
900.83	17646
900.95	17748
901.069	17729
901.189	17535
901.308	17402
901.427	17311
901.546	17280
901.665	17284
901.784	17353
901.904	17147
902.023	17136
902.141	16900
902.26	16831
902.379	16786
902.498	16767
902.617	16725
902.735	16858
902.854	16774
902.973	16706
903.091	16447
903.21	16523
903.328	16436
903.446	16459
903.565	16196
903.683	16367
903.801	16196
903.919	16257
904.038	16265
904.156	16044
904.274	16242
904.392	16154
904.51	16044
904.627	15972
904.745	16120
904.863	16112
904.981	15880
905.098	15793
905.216	15686
905.334	15831
905.451	15686
905.569	15663
905.686	15682
905.803	15739
905.921	15576
906.038	15679
906.155	15545
906.272	15447
906.389	15439
906.506	15310
906.623	15344
906.74	15386
906.857	15211
906.974	15211
907.091	15291
907.208	15294
907.324	15302
907.441	15233
907.557	15085
907.674	14960
907.79	14990
907.907	14994
908.023	14994
908.139	14918
908.256	14921
908.372	14906
908.488	14845
908.604	14716
908.72	14541
908.836	14640
908.952	14583
909.068	14651
909.184	14735
909.3	14697
909.415	14708
909.531	14579
909.647	14400
909.762	14446
909.878	14358
909.993	14389
910.108	14362
910.224	14351
910.339	14374
910.454	14240
910.57	14183
910.685	14103
910.8	14465
910.915	14358
911.03	14221
911.145	14092
911.259	13902
911.374	14012
911.489	14046
911.604	13887
911.718	13761
911.833	13723
911.947	13742
912.062	13514
912.176	13689
912.291	13765
912.405	13746
912.519	13830
912.633	13917
912.748	13700
912.862	13712
912.976	13601
913.09	13434
913.204	13586
913.318	13605
913.431	13597
913.545	13620
913.659	13597
913.772	13556
913.886	13445
914	13483
914.113	13514
914.226	13624
914.34	13510
914.453	13331
914.566	13518
914.68	13346
914.793	13297
914.906	13129
915.019	12993
915.132	13031
915.245	13141
915.358	13110
915.47	13019
915.583	13160
915.696	13110
915.809	13274
915.921	13270
916.034	13057
916.146	13031
916.259	13034
916.371	13129
916.483	13038
916.595	12996
916.708	12985
916.82	13031
916.932	13023
917.044	13008
917.156	12958
917.268	12867
917.38	12924
917.491	12837
917.603	12829
917.715	12871
917.826	12882
917.938	12783
918.049	12582
918.161	12798
918.272	12928
918.384	12882
918.495	12791
918.606	12703
918.717	12646
918.828	12654
918.939	12665
919.05	12540
919.161	12601
919.272	12414
919.383	12445
919.494	12696
919.604	12871
919.715	12627
919.826	12532
919.936	12525
920.047	12593
920.157	12521
920.267	12696
920.378	12547
920.488	12536
920.598	12707
920.708	12798
920.818	12730
920.928	12688
921.038	12947
921.148	12821
921.258	12566
921.368	12429
921.477	12353
921.587	12213
921.697	12194
921.806	12399
921.916	12247
922.025	12159
922.134	11996
922.244	11920
922.353	12038
922.462	11931
922.571	11832
922.68	11710
922.789	11608
922.898	11611
923.007	11627
923.116	11707
923.224	11638
923.333	11630
923.442	11535
923.55	11467
923.659	11581
923.767	11524
923.876	11520
923.984	11474
924.092	11414
924.201	11474
924.309	11395
924.417	11486
924.525	11410
924.633	11372
924.741	12342
924.849	11140
924.956	11330
925.064	11181
925.172	11124
925.279	11113
925.387	11113
925.494	11250
925.602	11376
925.709	11288
925.816	11045
925.924	11124
926.031	11269
926.138	11162
926.245	11181
926.352	11067
926.459	11223
926.566	11185
926.673	10999
926.779	11033
926.886	11022
926.993	10900
927.099	10843
927.206	10771
927.312	10668
927.419	10847
927.525	10847
927.631	10866
927.737	10694
927.843	10630
927.95	10519
928.056	10744
928.162	10626
928.267	10740
928.373	11368
928.479	10812
928.585	10497
928.69	10656
928.796	10755
928.901	10561
929.007	10428
929.112	10607
929.218	10516
929.323	10443
929.428	10367
929.533	10580
929.638	10402
929.743	10291
929.848	10432
929.953	10390
930.058	10295
930.163	10139
930.267	10169
930.372	10322
930.477	10181
930.581	10386
930.685	10166
930.79	10074
930.894	10078
930.998	10051
931.103	10227
931.207	9797
931.311	9682
931.415	9675
931.519	9378
931.623	9485
