Data from test_V78500241_3676.txt Node
Date: Fri Mar 25 16:07:15 CST 2022
User: usil
Spectrometer: V785-0024
Trigger mode: 0
Integration Time (sec): 4.000000E-1
Scans to average: 1
Nonlinearity correction enabled: false
Boxcar width: 0
Storing dark spectrum: false
XAxis mode: Wavelengths
Number of Pixels in Spectrum: 1024
>>>>>Begin Spectral Data<<<<<
801.071	28181
801.214	28306
801.356	28109
801.499	27926
801.641	28013
801.783	27941
801.926	28010
802.068	27934
802.211	27808
802.353	27812
802.496	27656
802.638	27682
802.78	27511
802.923	27427
803.065	27473
803.208	27492
803.35	27606
803.492	27614
803.635	27724
803.777	27720
803.919	27739
804.061	28131
804.204	27972
804.346	27854
804.488	27572
804.63	27850
804.773	27701
804.915	27789
805.057	27907
805.199	27743
805.341	27873
805.483	27880
805.626	27960
805.768	27857
805.91	27972
806.052	27930
806.194	27861
806.336	28166
806.478	28006
806.62	27918
806.762	28131
806.904	28154
807.046	28440
807.188	28215
807.33	28382
807.472	28390
807.614	28424
807.756	28424
807.898	28147
808.04	28124
808.182	28116
808.324	28253
808.465	28268
808.607	28382
808.749	28554
808.891	28580
809.033	28664
809.174	28615
809.316	28554
809.458	28626
809.6	28603
809.741	28702
809.883	28820
810.025	28892
810.166	28820
810.308	28858
810.45	28740
810.591	28740
810.733	28641
810.875	28675
811.016	28538
811.158	28474
811.299	28717
811.441	28915
811.582	28801
811.724	28675
811.865	28561
812.007	28538
812.148	28717
812.29	28645
812.431	28885
812.573	28911
812.714	29098
812.855	29220
812.997	29288
813.138	29239
813.279	29254
813.421	29174
813.562	29029
813.703	28904
813.845	28854
813.986	28573
814.127	28481
814.268	28329
814.41	28348
814.551	28158
814.692	28348
814.833	28226
814.974	28230
815.115	28386
815.256	28147
815.397	28105
815.539	28181
815.68	28139
815.821	28055
815.962	28051
816.103	28284
816.244	27914
816.385	27865
816.526	27949
816.666	27690
816.807	27622
816.948	27686
817.089	27564
817.23	27583
817.371	27580
817.512	27526
817.653	27587
817.793	27530
817.934	27671
818.075	27686
818.216	27660
818.356	27690
818.497	27492
818.638	27252
818.778	27393
818.919	27466
819.06	27378
819.2	27663
819.341	27728
819.481	27591
819.622	27861
819.762	27899
819.903	27873
820.043	27747
820.184	27751
820.324	27698
820.465	27899
820.605	27781
820.746	27720
820.886	27656
821.026	27728
821.167	27618
821.307	27778
821.447	27519
821.588	27561
821.728	27272
821.868	27214
822.008	27013
822.149	27150
822.289	27135
822.429	26902
822.569	26895
822.709	26826
822.849	26556
822.99	26587
823.13	26674
823.27	26613
823.41	26278
823.55	26328
823.69	26374
823.83	26412
823.97	26427
824.11	26252
824.25	26187
824.389	26324
824.529	26199
824.669	26259
824.809	26381
824.949	26381
825.089	26495
825.228	26221
825.368	26130
825.508	26005
825.648	26084
825.787	26202
825.927	26191
826.067	26126
826.206	26115
826.346	26233
826.485	26229
826.625	26069
826.765	26282
826.904	26183
827.044	25982
827.183	25925
827.323	25803
827.462	25989
827.601	25864
827.741	25871
827.88	25860
828.02	25940
828.159	25913
828.298	25845
828.437	25944
828.577	25780
828.716	26058
828.855	25750
828.994	25597
829.134	25605
829.273	25502
829.412	25552
829.551	25441
829.69	25544
829.829	25552
829.968	25575
830.107	25525
830.246	25510
830.385	25472
830.524	25499
830.663	25426
830.802	25369
830.941	25236
831.08	25129
831.219	25133
831.357	25168
831.496	25365
831.635	25145
831.774	25046
831.913	24894
832.051	24932
832.19	24875
832.329	24916
832.467	24882
832.606	24741
832.744	24738
832.883	24798
833.022	24840
833.16	24958
833.299	24882
833.437	24947
833.576	24859
833.714	24878
833.852	24897
833.991	24909
834.129	24977
834.267	24909
834.406	24882
834.544	24913
834.682	24863
834.821	24844
834.959	25072
835.097	24905
835.235	24985
835.373	24829
835.511	24768
835.65	24696
835.788	24639
835.926	24696
836.064	24422
836.202	24616
836.34	24635
836.478	24817
836.615	24703
836.753	24825
836.891	24707
837.029	24639
837.167	24627
837.305	24627
837.443	24544
837.58	24445
837.718	24452
837.856	24589
837.993	24559
838.131	24490
838.269	24460
838.406	24528
838.544	24334
838.681	24102
838.819	24110
838.956	23843
839.094	24102
839.231	23942
839.369	24285
839.506	24376
839.643	24353
839.781	23942
839.918	23965
840.055	24049
840.193	24015
840.33	23954
840.467	23840
840.604	23939
840.742	24057
840.879	23855
841.016	23874
841.153	23786
841.29	23973
841.427	23878
841.564	23961
841.701	23893
841.838	23832
841.975	23882
842.112	23726
842.249	23646
842.385	23676
842.522	23988
842.659	23748
842.796	23604
842.933	23786
843.069	23478
843.206	23570
843.343	23691
843.479	23680
843.616	23707
843.752	23463
843.889	23474
844.025	23512
844.162	23459
844.298	23448
844.435	23254
844.571	23391
844.708	23444
844.844	23623
844.98	23653
845.117	23531
845.253	23429
845.389	23227
845.525	23311
845.661	23395
845.798	23079
845.934	23212
846.07	23151
846.206	23280
846.342	23311
846.478	23117
846.614	23003
846.75	22885
846.886	22927
847.022	23033
847.158	22790
847.294	22904
847.429	22987
847.565	22934
847.701	23216
847.837	22592
847.972	22611
848.108	22744
848.244	22805
848.379	22577
848.515	22588
848.65	22538
848.786	22493
848.921	22462
849.057	22649
849.192	22596
849.328	22421
849.463	22531
849.598	22474
849.734	22272
849.869	22474
850.004	22291
850.14	22333
850.275	22341
850.41	22268
850.545	22310
850.68	22246
850.815	22257
850.95	22166
851.085	22375
851.22	22337
851.355	22360
851.49	22200
851.625	22348
851.76	22211
851.895	22192
852.03	22166
852.165	22295
852.299	22265
852.434	22535
852.569	22219
852.703	22215
852.838	22375
852.973	22367
853.107	22409
853.242	22196
853.376	22112
853.511	22032
853.645	22006
853.78	22166
853.914	22010
854.048	22048
854.183	22029
854.317	22139
854.451	22158
854.585	22139
854.72	22070
854.854	22128
854.988	22166
855.122	22078
855.256	22002
855.39	22097
855.524	22158
855.658	22162
855.792	22074
855.926	22090
856.06	22093
856.194	22230
856.327	21972
856.461	21994
856.595	22010
856.729	22112
856.862	22211
856.996	22036
857.13	22188
857.263	22204
857.397	22196
857.53	22025
857.664	22055
857.797	22261
857.931	22268
858.064	22196
858.197	22135
858.331	22044
858.464	21983
858.597	21941
858.731	22040
858.864	21949
858.997	22090
859.13	22139
859.263	22181
859.396	22185
859.529	22002
859.662	21876
859.795	22055
859.928	22143
860.061	22162
860.194	22352
860.327	22128
860.46	22131
860.592	22169
860.725	22177
860.858	22105
860.99	22109
861.123	22017
861.256	22032
861.388	21991
861.521	22824
861.653	22036
861.786	21854
861.918	21774
862.05	21918
862.183	22032
862.315	22067
862.447	22105
862.58	22070
862.712	21854
862.844	21675
862.976	21823
863.108	21876
863.24	22310
863.372	21823
863.504	21823
863.636	21804
863.768	21895
863.9	21789
864.032	21793
864.164	21808
864.296	21835
864.428	21918
864.559	21854
864.691	21915
864.823	21808
864.954	21778
865.086	21808
865.217	21739
865.349	21542
865.48	21629
865.612	21755
865.743	21812
865.875	21656
866.006	21717
866.137	21736
866.269	21728
866.4	21739
866.531	21583
866.662	21519
866.793	21724
866.924	21644
867.055	21713
867.186	21713
867.317	21663
867.448	21606
867.579	21583
867.71	21515
867.841	21622
867.972	21599
868.103	21591
868.233	21671
868.364	21568
868.495	21698
868.625	21804
868.756	21945
868.886	21907
869.017	21915
869.147	21953
869.278	21953
869.408	21785
869.539	21907
869.669	21850
869.799	21888
869.929	22051
870.06	21930
870.19	22188
870.32	22169
870.45	22181
870.58	22169
870.71	22432
870.84	22363
870.97	22329
871.1	22276
871.23	22375
871.36	22382
871.489	22489
871.619	22375
871.749	22432
871.879	22550
872.008	22702
872.138	22371
872.267	22478
872.397	22276
872.526	22284
872.656	22230
872.785	22314
872.915	22470
873.044	22771
873.173	22500
873.303	22557
873.432	22462
873.561	22596
873.69	22470
873.819	22356
873.948	22611
874.077	22485
874.206	22447
874.335	22447
874.464	22497
874.593	22748
874.722	22592
874.851	22618
874.979	22774
875.108	22786
875.237	22546
875.365	22729
875.494	22569
875.623	22831
875.751	22721
875.88	22702
876.008	22820
876.136	23006
876.265	23136
876.393	23143
876.521	23311
876.65	23124
876.778	23018
876.906	23094
877.034	22972
877.162	23056
877.29	22930
877.418	23048
877.546	23098
877.674	23102
877.802	23014
877.93	23052
878.058	22946
878.185	22889
878.313	22915
878.441	23098
878.568	22991
878.696	23003
878.824	23117
878.951	23113
879.079	23147
879.206	23265
879.333	23197
879.461	23067
879.588	23159
879.715	23223
879.842	23269
879.97	23136
880.097	22869
880.224	22820
880.351	22774
880.478	22968
880.605	22889
880.732	22793
880.859	23185
880.986	22953
881.112	22847
881.239	22713
881.366	22660
881.493	22504
881.619	22485
881.746	22462
881.872	22497
881.999	22409
882.125	22272
882.252	22455
882.378	22344
882.505	22512
882.631	22185
882.757	22200
882.883	22150
883.01	22120
883.136	22112
883.262	21854
883.388	21972
883.514	22067
883.64	22200
883.766	22021
883.892	21911
884.018	21880
884.143	21937
884.269	22090
884.395	21937
884.52	21743
884.646	21793
884.772	21781
884.897	21603
885.023	21747
885.148	21838
885.274	21835
885.399	21819
885.524	21686
885.65	21713
885.775	21747
885.9	21610
886.025	21808
886.15	21892
886.275	21679
886.4	21675
886.525	21625
886.65	21591
886.775	21724
886.9	21808
887.025	21907
887.149	21652
887.274	21667
887.399	21542
887.523	21542
887.648	21477
887.773	21344
887.897	21583
888.021	21542
888.146	21564
888.27	21523
888.395	21591
888.519	21515
888.643	21534
888.767	21644
888.891	21389
889.015	21302
889.139	21397
889.263	21264
889.387	21488
889.511	21477
889.635	21511
889.759	21241
889.883	21214
890.006	21329
890.13	21302
890.254	21188
890.377	21291
890.501	21146
890.624	20925
890.748	21142
890.871	20872
890.995	20788
891.118	20830
891.241	20876
891.364	20815
891.488	21009
891.611	21005
891.734	20952
891.857	20914
891.98	20914
892.103	20895
892.226	20830
892.349	20758
892.471	20727
892.594	20781
892.717	20769
892.839	20804
892.962	20705
893.085	20796
893.207	20765
893.33	20746
893.452	20693
893.575	20739
893.697	20735
893.819	20910
893.941	20944
894.064	20788
894.186	20693
894.308	20724
894.43	20823
894.552	20998
894.674	20811
894.796	20609
894.918	20788
895.04	20724
895.161	20830
895.283	20750
895.405	20754
895.526	20746
895.648	20857
895.769	20804
895.891	20625
896.012	20735
896.134	20689
896.255	20758
896.376	20781
896.498	20731
896.619	20731
896.74	20651
896.861	20849
896.982	21138
897.103	21100
897.224	20963
897.345	20914
897.466	20956
897.587	21013
897.708	21176
897.828	20918
897.949	20811
898.07	20826
898.19	20982
898.311	21081
898.431	20944
898.552	20815
898.672	21066
898.792	21024
898.913	20960
899.033	20845
899.153	20811
899.273	20636
899.393	20788
899.513	20788
899.633	20655
899.753	20720
899.873	20648
899.993	20712
900.113	20651
900.232	20636
900.352	20522
900.472	20579
900.591	20332
900.711	20545
900.83	20374
900.95	20545
901.069	20526
901.189	20309
901.308	20221
901.427	20050
901.546	20172
901.665	19978
901.784	19932
901.904	19879
902.023	19772
902.141	19666
902.26	19647
902.379	19616
902.498	19582
902.617	19556
902.735	19506
902.854	19552
902.973	19525
903.091	19225
903.21	19152
903.328	19206
903.446	19225
903.565	19046
903.683	19061
903.801	18875
903.919	18951
904.038	18947
904.156	18882
904.274	18878
904.392	18901
904.51	18722
904.627	18722
904.745	18829
904.863	18939
904.981	18536
905.098	18372
905.216	18490
905.334	18540
905.451	18585
905.569	18437
905.686	18414
905.803	18433
905.921	18201
906.038	18342
906.155	18254
906.272	18068
906.389	18148
906.506	18102
906.623	18034
906.74	18049
906.857	17946
906.974	17817
907.091	17889
907.208	18030
907.324	17942
907.441	17821
907.557	17661
907.674	17710
907.79	17547
907.907	17638
908.023	17642
908.139	17737
908.256	17528
908.372	17554
908.488	17668
908.604	17433
908.72	17364
908.836	17349
908.952	17395
909.068	17383
909.184	17490
909.3	17398
909.415	17459
909.531	17315
909.647	17075
909.762	17052
909.878	17113
909.993	17037
910.108	17060
910.224	17003
910.339	17075
910.454	17018
910.57	16919
910.685	16847
910.8	17079
910.915	16999
911.03	16824
911.145	16748
911.259	16675
911.374	16736
911.489	16558
911.604	16573
911.718	16398
911.833	16470
911.947	16242
912.062	16322
912.176	16440
912.291	16440
912.405	16413
912.519	16481
912.633	16546
912.748	16500
912.862	16333
912.976	16382
913.09	16147
913.204	16078
913.318	16169
913.431	16394
913.545	16196
913.659	16249
913.772	16215
913.886	16093
914	16040
914.113	16093
914.226	16150
914.34	16139
914.453	15926
914.566	16040
914.68	15865
914.793	15827
914.906	15633
915.019	15595
915.132	15519
915.245	15587
915.358	15625
915.47	15564
915.583	15690
915.696	15637
915.809	15671
915.921	15835
916.034	15553
916.146	15564
916.259	15519
916.371	15542
916.483	15538
916.595	15454
916.708	15481
916.82	15386
916.932	15408
917.044	15416
917.156	15393
917.268	15268
917.38	15252
917.491	15233
917.603	15207
917.715	15268
917.826	15306
917.938	15146
918.049	15131
918.161	15157
918.272	15313
918.384	15340
918.495	15222
918.606	14948
918.717	14883
918.828	15017
918.939	14956
919.05	14872
919.161	14876
919.272	14727
919.383	14857
919.494	15024
919.604	15176
919.715	14944
919.826	14880
919.936	14902
920.047	15013
920.157	14933
920.267	15127
920.378	14952
920.488	14891
920.598	15097
920.708	15169
920.818	15100
920.928	15039
921.038	15188
921.148	15241
921.258	14823
921.368	14754
921.477	14701
921.587	14663
921.697	14556
921.806	14583
921.916	14564
922.025	14328
922.134	14301
922.244	14256
922.353	14374
922.462	14134
922.571	14199
922.68	13928
922.789	13883
922.898	13974
923.007	13951
923.116	13909
923.224	13894
923.333	13860
923.442	13852
923.55	13750
923.659	13757
923.767	13883
923.876	13738
923.984	13852
924.092	13658
924.201	13636
924.309	13651
924.417	13674
924.525	13594
924.633	13575
924.741	14492
924.849	13441
924.956	13537
925.064	13377
925.172	13263
925.279	13236
925.387	13445
925.494	13316
925.602	13487
925.709	13449
925.816	13221
925.924	13289
926.031	13354
926.138	13171
926.245	13468
926.352	13187
926.459	13297
926.566	13384
926.673	13168
926.779	13053
926.886	13084
926.993	12970
927.099	12932
927.206	12856
927.312	12833
927.419	12916
927.525	12954
927.631	12886
927.737	12734
927.843	12798
927.95	12551
928.056	12757
928.162	12779
928.267	12715
928.373	13304
928.479	12825
928.585	12479
928.69	12734
928.796	12681
928.901	12559
929.007	12372
929.112	12563
929.218	12486
929.323	12414
929.428	12502
929.533	12555
929.638	12292
929.743	12395
929.848	12410
929.953	12350
930.058	12216
930.163	12038
930.267	12140
930.372	12216
930.477	12026
930.581	12296
930.685	12125
930.79	11984
930.894	12034
930.998	11965
931.103	12106
931.207	11760
931.311	11638
931.415	11604
931.519	11421
931.623	11383
