Data from test_V78500241_2153.txt Node
Date: Fri Mar 25 15:56:42 CST 2022
User: usil
Spectrometer: V785-0024
Trigger mode: 0
Integration Time (sec): 4.000000E-1
Scans to average: 1
Nonlinearity correction enabled: false
Boxcar width: 0
Storing dark spectrum: false
XAxis mode: Wavelengths
Number of Pixels in Spectrum: 1024
>>>>>Begin Spectral Data<<<<<
801.071	28831
801.214	28824
801.356	28542
801.499	28599
801.641	28428
801.783	28310
801.926	28459
802.068	28409
802.211	28291
802.353	28272
802.496	28207
802.638	28010
802.78	28070
802.923	28074
803.065	27998
803.208	27914
803.35	28131
803.492	28261
803.635	28325
803.777	28219
803.919	28474
804.061	28774
804.204	28371
804.346	28242
804.488	28112
804.63	28337
804.773	28299
804.915	28371
805.057	28451
805.199	28325
805.341	28493
805.483	28523
805.626	28478
805.768	28219
805.91	28512
806.052	28409
806.194	28466
806.336	28672
806.478	28436
806.62	28508
806.762	28672
806.904	28824
807.046	28984
807.188	28790
807.33	29010
807.472	29151
807.614	28961
807.756	29018
807.898	28713
808.04	28793
808.182	28828
808.324	28858
808.465	28934
808.607	29052
808.749	29143
808.891	29341
809.033	29330
809.174	29181
809.316	29113
809.458	29307
809.6	29010
809.741	29277
809.883	29368
810.025	29680
810.166	29368
810.308	29551
810.45	29280
810.591	29402
810.733	29052
810.875	29102
811.016	28968
811.158	29181
811.299	29261
811.441	29242
811.582	29337
811.724	29166
811.865	29250
812.007	29227
812.148	29189
812.29	29242
812.431	29334
812.573	29505
812.714	29707
812.855	29703
812.997	29809
813.138	29836
813.279	29866
813.421	29794
813.562	29707
813.703	29554
813.845	29387
813.986	29212
814.127	29048
814.268	28854
814.41	28759
814.551	28850
814.692	29018
814.833	28869
814.974	28843
815.115	28850
815.256	28809
815.397	28805
815.539	28839
815.68	28843
815.821	28546
815.962	28729
816.103	28668
816.244	28580
816.385	28622
816.526	28546
816.666	28215
816.807	28333
816.948	28398
817.089	28226
817.23	28219
817.371	28249
817.512	28215
817.653	28265
817.793	28188
817.934	28204
818.075	28158
818.216	28211
818.356	28082
818.497	28093
818.638	27854
818.778	27949
818.919	27880
819.06	28055
819.2	28196
819.341	28215
819.481	28230
819.622	28371
819.762	28519
819.903	28481
820.043	28322
820.184	28325
820.324	28466
820.465	28459
820.605	28253
820.746	28409
820.886	28306
821.026	28291
821.167	28280
821.307	28413
821.447	28257
821.588	28112
821.728	28032
821.868	27808
822.008	27637
822.149	27728
822.289	27694
822.429	27469
822.569	27275
822.709	27424
822.849	27264
822.99	27214
823.13	27184
823.27	27218
823.41	27020
823.55	26842
823.69	27081
823.83	27104
823.97	26921
824.11	26872
824.25	26864
824.389	26762
824.529	27089
824.669	26815
824.809	26921
824.949	26861
825.089	26853
825.228	26849
825.368	26701
825.508	26731
825.648	26781
825.787	26853
825.927	26769
826.067	26701
826.206	26769
826.346	26872
826.485	26819
826.625	26648
826.765	26781
826.904	26906
827.044	26575
827.183	26583
827.323	26381
827.462	26469
827.601	26450
827.741	26370
827.88	26579
828.02	26309
828.159	26579
828.298	26514
828.437	26659
828.577	26503
828.716	26514
828.855	26400
828.994	26168
829.134	26332
829.273	26240
829.412	26126
829.551	26176
829.69	26195
829.829	26229
829.968	26183
830.107	26358
830.246	26214
830.385	26157
830.524	26043
830.663	26024
830.802	25928
830.941	25753
831.08	25594
831.219	25791
831.357	25947
831.496	25921
831.635	25833
831.774	25597
831.913	25651
832.051	25487
832.19	25514
832.329	25586
832.467	25415
832.606	25377
832.744	25441
832.883	25331
833.022	25369
833.16	25422
833.299	25495
833.437	25521
833.576	25491
833.714	25544
833.852	25419
833.991	25518
834.129	25510
834.267	25601
834.406	25483
834.544	25472
834.682	25476
834.821	25407
834.959	25632
835.097	25491
835.235	25499
835.373	25476
835.511	25468
835.65	25343
835.788	25301
835.926	25168
836.064	25072
836.202	25156
836.34	25255
836.478	25476
836.615	25331
836.753	25289
836.891	25464
837.029	25422
837.167	25247
837.305	25320
837.443	25206
837.58	25046
837.718	25270
837.856	25072
837.993	24985
838.131	25095
838.269	24954
838.406	25046
838.544	24909
838.681	24726
838.819	24566
838.956	24483
839.094	24646
839.231	24627
839.369	24757
839.506	25012
839.643	24715
839.781	24661
839.918	24502
840.055	24604
840.193	24521
840.33	24448
840.467	24612
840.604	24589
840.742	24776
840.879	24437
841.016	24502
841.153	24388
841.29	24684
841.427	24422
841.564	24700
841.701	24456
841.838	24441
841.975	24350
842.112	24311
842.249	24407
842.385	24235
842.522	24426
842.659	24254
842.796	24285
842.933	24380
843.069	24281
843.206	24190
843.343	24266
843.479	24273
843.616	24319
843.752	23958
843.889	23984
844.025	24152
844.162	23912
844.298	24098
844.435	24095
844.571	23923
844.708	23927
844.844	24182
844.98	24133
845.117	24205
845.253	24072
845.389	23889
845.525	23840
845.661	23855
845.798	23809
845.934	23790
846.07	23718
846.206	23817
846.342	23843
846.478	23752
846.614	23452
846.75	23402
846.886	23486
847.022	23558
847.158	23589
847.294	23577
847.429	23516
847.565	23482
847.701	23676
847.837	23242
847.972	23094
848.108	23379
848.244	23337
848.379	23121
848.515	23022
848.65	22957
848.786	23102
848.921	23113
849.057	23258
849.192	23239
849.328	23117
849.463	23060
849.598	23025
849.734	22919
849.869	22900
850.004	22900
850.14	22736
850.275	22793
850.41	22759
850.545	22653
850.68	22824
850.815	22820
850.95	22706
851.085	22972
851.22	22885
851.355	22858
851.49	22801
851.625	22733
851.76	22858
851.895	22725
852.03	22759
852.165	22923
852.299	22752
852.434	22911
852.569	22809
852.703	22740
852.838	22877
852.973	22816
853.107	22957
853.242	22812
853.376	22687
853.511	22577
853.645	22656
853.78	22637
853.914	22615
854.048	22603
854.183	22584
854.317	22531
854.451	22847
854.585	22740
854.72	22698
854.854	22771
854.988	22596
855.122	22645
855.256	22489
855.39	22554
855.524	22717
855.658	22653
855.792	22717
855.926	22584
856.06	22702
856.194	22687
856.327	22622
856.461	22668
856.595	22592
856.729	22683
856.862	22710
856.996	22641
857.13	22702
857.263	22752
857.397	22839
857.53	22668
857.664	22675
857.797	22725
857.931	22672
858.064	22683
858.197	22790
858.331	22565
858.464	22645
858.597	22546
858.731	22561
858.864	22675
858.997	22557
859.13	22694
859.263	22744
859.396	22721
859.529	22653
859.662	22523
859.795	22561
859.928	22577
860.061	22873
860.194	22934
860.327	22771
860.46	22782
860.592	22790
860.725	22812
860.858	22869
860.99	22641
861.123	22626
861.256	22527
861.388	22675
861.521	23330
861.653	22504
861.786	22478
861.918	22481
862.05	22569
862.183	22390
862.315	22694
862.447	22687
862.58	22497
862.712	22409
862.844	22379
862.976	22428
863.108	22504
863.24	22736
863.372	22268
863.504	22276
863.636	22322
863.768	22356
863.9	22497
864.032	22299
864.164	22360
864.296	22436
864.428	22322
864.559	22325
864.691	22390
864.823	22371
864.954	22215
865.086	22234
865.217	22280
865.349	22219
865.48	22234
865.612	22181
865.743	22333
865.875	22268
866.006	22318
866.137	22169
866.269	22192
866.4	22200
866.531	22226
866.662	22082
866.793	22074
866.924	22086
867.055	22177
867.186	22226
867.317	21987
867.448	22116
867.579	22181
867.71	21979
867.841	22101
867.972	22158
868.103	22166
868.233	22128
868.364	22128
868.495	22242
868.625	22409
868.756	22440
868.886	22185
869.017	22375
869.147	22516
869.278	22417
869.408	22500
869.539	22455
869.669	22489
869.799	22493
869.929	22428
870.06	22337
870.19	22710
870.32	22649
870.45	22733
870.58	22702
870.71	22934
870.84	22968
870.97	22706
871.1	22687
871.23	22843
871.36	22980
871.489	22809
871.619	22984
871.749	23048
871.879	23094
872.008	23025
872.138	22984
872.267	22999
872.397	22847
872.526	22744
872.656	22900
872.785	22706
872.915	22965
873.044	23098
873.173	23010
873.303	23155
873.432	23048
873.561	23075
873.69	23060
873.819	22965
873.948	23044
874.077	22919
874.206	23037
874.335	22919
874.464	23071
874.593	23048
874.722	23273
874.851	23292
874.979	23292
875.108	23288
875.237	23170
875.365	23113
875.494	23109
875.623	23216
875.751	23197
875.88	23124
876.008	23254
876.136	23376
876.265	23493
876.393	23707
876.521	23718
876.65	23661
876.778	23570
876.906	23543
877.034	23486
877.162	23638
877.29	23505
877.418	23653
877.546	23471
877.674	23615
877.802	23425
877.93	23577
878.058	23512
878.185	23429
878.313	23478
878.441	23551
878.568	23406
878.696	23383
878.824	23558
878.951	23627
879.079	23775
879.206	23980
879.333	23824
879.461	23531
879.588	23604
879.715	23619
879.842	23843
879.97	23600
880.097	23368
880.224	23414
880.351	23296
880.478	23387
880.605	23391
880.732	23330
880.859	23634
880.986	23318
881.112	23341
881.239	23315
881.366	23136
881.493	23025
881.619	22957
881.746	22877
881.872	23075
881.999	22850
882.125	22900
882.252	22942
882.378	22934
882.505	22904
882.631	22877
882.757	22725
882.883	22729
883.01	22672
883.136	22538
883.262	22512
883.388	22424
883.514	22622
883.64	22691
883.766	22489
883.892	22318
884.018	22478
884.143	22565
884.269	22637
884.395	22371
884.52	22215
884.646	22238
884.772	22150
884.897	22135
885.023	22230
885.148	22261
885.274	22398
885.399	22371
885.524	22318
885.65	22215
885.775	22261
885.9	22215
886.025	22325
886.15	22265
886.275	22139
886.4	22150
886.525	22310
886.65	22101
886.775	22219
886.9	22318
887.025	22500
887.149	22109
887.274	22093
887.399	22002
887.523	21953
887.648	21835
887.773	21888
887.897	21979
888.021	22090
888.146	21960
888.27	22128
888.395	22074
888.519	21865
888.643	21975
888.767	21998
888.891	21854
889.015	21816
889.139	21724
889.263	21717
889.387	21949
889.511	22013
889.635	21842
889.759	21633
889.883	21762
890.006	21717
890.13	21869
890.254	21595
890.377	21580
890.501	21511
890.624	21534
890.748	21591
890.871	21481
890.995	21393
891.118	21355
891.241	21188
891.364	21378
891.488	21534
891.611	21408
891.734	21344
891.857	21321
891.98	21275
892.103	21363
892.226	21294
892.349	21317
892.471	21100
892.594	21283
892.717	21233
892.839	21306
892.962	21199
893.085	21256
893.207	21226
893.33	21051
893.452	21184
893.575	21211
893.697	21119
893.819	21431
893.941	21416
894.064	21336
894.186	21123
894.308	21169
894.43	21203
894.552	21298
894.674	21237
894.796	21272
894.918	21104
895.04	21081
895.161	21272
895.283	21355
895.405	21138
895.526	21218
895.648	21283
895.769	21298
895.891	21336
896.012	21275
896.134	21207
896.255	21306
896.376	21233
896.498	21184
896.619	21203
896.74	21211
896.861	21272
896.982	21538
897.103	21542
897.224	21420
897.345	21374
897.466	21344
897.587	21329
897.708	21671
897.828	21466
897.949	21435
898.07	21199
898.19	21378
898.311	21435
898.431	21443
898.552	21363
898.672	21488
898.792	21424
898.913	21485
899.033	21340
899.153	21291
899.273	21051
899.393	21077
899.513	21291
899.633	21112
899.753	21112
899.873	21119
899.993	21256
900.113	21100
900.232	21051
900.352	21058
900.472	21028
900.591	20853
900.711	20933
900.83	20876
900.95	21017
901.069	20918
901.189	20777
901.308	20514
901.427	20476
901.546	20552
901.665	20594
901.784	20514
901.904	20393
902.023	20244
902.141	20122
902.26	20043
902.379	20172
902.498	19986
902.617	19978
902.735	19936
902.854	19982
902.973	19799
903.091	19575
903.21	19700
903.328	19731
903.446	19438
903.565	19438
903.683	19476
903.801	19331
903.919	19381
904.038	19392
904.156	19293
904.274	19327
904.392	19126
904.51	19282
904.627	19148
904.745	19156
904.863	19232
904.981	19008
905.098	18802
905.216	18886
905.334	18905
905.451	18817
905.569	18661
905.686	18890
905.803	18802
905.921	18673
906.038	18840
906.155	18612
906.272	18494
906.389	18555
906.506	18403
906.623	18388
906.74	18346
906.857	18300
906.974	18372
907.091	18353
907.208	18319
907.324	18399
907.441	18121
907.557	18091
907.674	18079
907.79	17931
907.907	17973
908.023	18178
908.139	18155
908.256	17904
908.372	17946
908.488	17946
908.604	17942
908.72	17710
908.836	17855
908.952	17817
909.068	17707
909.184	18007
909.3	17821
909.415	17714
909.531	17775
909.647	17596
909.762	17551
909.878	17452
909.993	17509
910.108	17448
910.224	17493
910.339	17467
910.454	17273
910.57	17246
910.685	17170
910.8	17547
910.915	17395
911.03	17212
911.145	17159
911.259	17060
911.374	17045
911.489	16991
911.604	16869
911.718	16843
911.833	16869
911.947	16702
912.062	16733
912.176	16710
912.291	16862
912.405	16866
912.519	16942
912.633	16896
912.748	16797
912.862	16790
912.976	16653
913.09	16584
913.204	16577
913.318	16725
913.431	16649
913.545	16755
913.659	16782
913.772	16485
913.886	16447
914	16413
914.113	16440
914.226	16592
914.34	16375
914.453	16398
914.566	16516
914.68	16352
914.793	16219
914.906	16036
915.019	16040
915.132	15918
915.245	15876
915.358	15941
915.47	15972
915.583	16013
915.696	16048
915.809	16051
915.921	16082
916.034	15850
916.146	15835
916.259	15808
916.371	16021
916.483	15876
916.595	15774
916.708	15755
916.82	15808
916.932	15682
917.044	15778
917.156	15778
917.268	15614
917.38	15568
917.491	15648
917.603	15545
917.715	15660
917.826	15667
917.938	15511
918.049	15428
918.161	15580
918.272	15713
918.384	15671
918.495	15553
918.606	15401
918.717	15325
918.828	15397
918.939	15382
919.05	15268
919.161	15351
919.272	15214
919.383	15176
919.494	15447
919.604	15473
919.715	15428
919.826	15184
919.936	15241
920.047	15348
920.157	15325
920.267	15393
920.378	15245
920.488	15203
920.598	15523
920.708	15564
920.818	15393
920.928	15492
921.038	15549
921.148	15481
921.258	15195
921.368	15154
921.477	14994
921.587	15047
921.697	14887
921.806	15051
921.916	14952
922.025	14716
922.134	14716
922.244	14552
922.353	14735
922.462	14495
922.571	14446
922.68	14278
922.789	14358
922.898	14309
923.007	14240
923.116	14358
923.224	14275
923.333	14248
923.442	14115
923.55	14035
923.659	14111
923.767	14119
923.876	14050
923.984	14123
924.092	13898
924.201	14035
924.309	14050
924.417	13936
924.525	13894
924.633	13841
924.741	14629
924.849	13727
924.956	13925
925.064	13658
925.172	13620
925.279	13605
925.387	13597
925.494	13700
925.602	13750
925.709	13727
925.816	13655
925.924	13601
926.031	13761
926.138	13639
926.245	13613
926.352	13533
926.459	13563
926.566	13651
926.673	13464
926.779	13483
926.886	13392
926.993	13274
927.099	13114
927.206	13168
927.312	13190
927.419	13202
927.525	13183
927.631	13365
927.737	13069
927.843	13023
927.95	12890
928.056	13042
928.162	12939
928.267	13095
928.373	13586
928.479	13110
928.585	12886
928.69	12897
928.796	12977
928.901	12833
929.007	12741
929.112	12897
929.218	12707
929.323	12753
929.428	12772
929.533	12848
929.638	12692
929.743	12688
929.848	12715
929.953	12608
930.058	12601
930.163	12395
930.267	12422
930.372	12502
930.477	12323
930.581	12551
930.685	12437
930.79	12213
930.894	12281
930.998	12281
931.103	12342
931.207	11965
931.311	11916
931.415	11840
931.519	11634
931.623	11570
