Data from test_V78500241_3290.txt Node
Date: Fri Mar 25 16:04:35 CST 2022
User: usil
Spectrometer: V785-0024
Trigger mode: 0
Integration Time (sec): 4.000000E-1
Scans to average: 1
Nonlinearity correction enabled: false
Boxcar width: 0
Storing dark spectrum: false
XAxis mode: Wavelengths
Number of Pixels in Spectrum: 1024
>>>>>Begin Spectral Data<<<<<
801.071	28706
801.214	28577
801.356	28470
801.499	28470
801.641	28234
801.783	28261
801.926	28295
802.068	28253
802.211	28207
802.353	28154
802.496	28078
802.638	27949
802.78	27884
802.923	27918
803.065	27770
803.208	27914
803.35	27941
803.492	28200
803.635	28211
803.777	28086
803.919	28363
804.061	28535
804.204	28219
804.346	28219
804.488	28006
804.63	28063
804.773	28105
804.915	28238
805.057	28341
805.199	28040
805.341	28485
805.483	28447
805.626	28352
805.768	28261
805.91	28303
806.052	28371
806.194	28261
806.336	28607
806.478	28436
806.62	28417
806.762	28565
806.904	28656
807.046	28744
807.188	28908
807.33	28866
807.472	28873
807.614	28847
807.756	28729
807.898	28698
808.04	28733
808.182	28599
808.324	28645
808.465	28828
808.607	28915
808.749	29003
808.891	29132
809.033	29147
809.174	29056
809.316	29197
809.458	29083
809.6	29052
809.741	29048
809.883	29299
810.025	29296
810.166	29322
810.308	29509
810.45	29216
810.591	29159
810.733	28965
810.875	29113
811.016	28961
811.158	28881
811.299	29102
811.441	29208
811.582	29246
811.724	29044
811.865	29098
812.007	29083
812.148	29155
812.29	29185
812.431	29296
812.573	29315
812.714	29619
812.855	29604
812.997	29790
813.138	29714
813.279	29615
813.421	29619
813.562	29554
813.703	29402
813.845	29417
813.986	28991
814.127	28862
814.268	28763
814.41	28733
814.551	28736
814.692	28866
814.833	28729
814.974	28710
815.115	28790
815.256	28694
815.397	28588
815.539	28805
815.68	28675
815.821	28481
815.962	28618
816.103	28565
816.244	28466
816.385	28379
816.526	28367
816.666	28101
816.807	28166
816.948	28265
817.089	28196
817.23	28109
817.371	28147
817.512	28215
817.653	28070
817.793	28017
817.934	28055
818.075	28158
818.216	28074
818.356	28128
818.497	28025
818.638	27956
818.778	27869
818.919	27823
819.06	27800
819.2	28105
819.341	28181
819.481	28257
819.622	28226
819.762	28440
819.903	28356
820.043	28185
820.184	28181
820.324	28230
820.465	28375
820.605	28147
820.746	28303
820.886	28185
821.026	28226
821.167	28166
821.307	28306
821.447	28109
821.588	28116
821.728	27903
821.868	27797
822.008	27675
822.149	27564
822.289	27443
822.429	27332
822.569	27329
822.709	27313
822.849	27005
822.99	27135
823.13	27005
823.27	26998
823.41	26891
823.55	26708
823.69	27001
823.83	26914
823.97	26940
824.11	26731
824.25	26701
824.389	26826
824.529	26838
824.669	26727
824.809	26811
824.949	26872
825.089	26800
825.228	26765
825.368	26667
825.508	26629
825.648	26625
825.787	26708
825.927	26731
826.067	26670
826.206	26408
826.346	26609
826.485	26781
826.625	26606
826.765	26663
826.904	26663
827.044	26450
827.183	26431
827.323	26309
827.462	26434
827.601	26389
827.741	26336
827.88	26415
828.02	26271
828.159	26343
828.298	26461
828.437	26393
828.577	26377
828.716	26396
828.855	26294
828.994	26195
829.134	26050
829.273	26115
829.412	26016
829.551	25906
829.69	25913
829.829	26065
829.968	26111
830.107	26039
830.246	26012
830.385	25944
830.524	25955
830.663	25894
830.802	25708
830.941	25757
831.08	25666
831.219	25738
831.357	25670
831.496	25868
831.635	25559
831.774	25635
831.913	25525
832.051	25430
832.19	25392
832.329	25426
832.467	25358
832.606	25236
832.744	25202
832.883	25396
833.022	25152
833.16	25354
833.299	25365
833.437	25274
833.576	25362
833.714	25274
833.852	25449
833.991	25472
834.129	25491
834.267	25430
834.406	25419
834.544	25335
834.682	25343
834.821	25384
834.959	25700
835.097	25369
835.235	25373
835.373	25381
835.511	25384
835.65	25270
835.788	25320
835.926	25232
836.064	24989
836.202	25019
836.34	25103
836.478	25187
836.615	25225
836.753	25141
836.891	25137
837.029	25190
837.167	25129
837.305	25145
837.443	24920
837.58	25019
837.718	24970
837.856	25091
837.993	24947
838.131	25133
838.269	24810
838.406	24992
838.544	24741
838.681	24681
838.819	24642
838.956	24578
839.094	24445
839.231	24505
839.369	24639
839.506	24878
839.643	24623
839.781	24464
839.918	24429
840.055	24532
840.193	24395
840.33	24410
840.467	24410
840.604	24464
840.742	24776
840.879	24270
841.016	24395
841.153	24296
841.29	24433
841.427	24232
841.564	24338
841.701	24414
841.838	24258
841.975	24391
842.112	24330
842.249	24266
842.385	24140
842.522	24426
842.659	24018
842.796	24079
842.933	24186
843.069	24144
843.206	24022
843.343	24136
843.479	24121
843.616	24129
843.752	23920
843.889	24102
844.025	24117
844.162	23927
844.298	24034
844.435	23904
844.571	23794
844.708	23946
844.844	24049
844.98	24079
845.117	24007
845.253	23771
845.389	23821
845.525	23840
845.661	23779
845.798	23623
845.934	23684
846.07	23646
846.206	23714
846.342	23722
846.478	23665
846.614	23440
846.75	23303
846.886	23273
847.022	23448
847.158	23326
847.294	23421
847.429	23501
847.565	23398
847.701	23699
847.837	23105
847.972	23079
848.108	23261
848.244	23181
848.379	22957
848.515	22949
848.65	22999
848.786	22965
848.921	23003
849.057	23143
849.192	23136
849.328	23056
849.463	22919
849.598	23018
849.734	22847
849.869	22919
850.004	22778
850.14	22755
850.275	22767
850.41	22694
850.545	22698
850.68	22691
850.815	22828
850.95	22725
851.085	22961
851.22	22968
851.355	22847
851.49	22710
851.625	22713
851.76	22839
851.895	22767
852.03	22672
852.165	22679
852.299	22835
852.434	22835
852.569	22801
852.703	22797
852.838	22759
852.973	22862
853.107	22778
853.242	22725
853.376	22626
853.511	22512
853.645	22565
853.78	22748
853.914	22592
854.048	22440
854.183	22561
854.317	22634
854.451	22729
854.585	22565
854.72	22584
854.854	22660
854.988	22664
855.122	22660
855.256	22436
855.39	22649
855.524	22557
855.658	22504
855.792	22592
855.926	22592
856.06	22535
856.194	22656
856.327	22569
856.461	22535
856.595	22459
856.729	22573
856.862	22748
856.996	22618
857.13	22622
857.263	22710
857.397	22611
857.53	22527
857.664	22660
857.797	22577
857.931	22771
858.064	22679
858.197	22736
858.331	22698
858.464	22519
858.597	22432
858.731	22512
858.864	22653
858.997	22523
859.13	22710
859.263	22683
859.396	22618
859.529	22615
859.662	22523
859.795	22508
859.928	22607
860.061	22759
860.194	22835
860.327	22637
860.46	22577
860.592	22672
860.725	22710
860.858	22755
860.99	22550
861.123	22516
861.256	22519
861.388	22565
861.521	23307
861.653	22474
861.786	22409
861.918	22440
862.05	22584
862.183	22519
862.315	22565
862.447	22584
862.58	22432
862.712	22291
862.844	22200
862.976	22440
863.108	22215
863.24	22740
863.372	22253
863.504	22352
863.636	22272
863.768	22394
863.9	22211
864.032	22150
864.164	22246
864.296	22360
864.428	22436
864.559	22371
864.691	22421
864.823	22341
864.954	22261
865.086	22261
865.217	22238
865.349	22109
865.48	22166
865.612	22158
865.743	22341
865.875	22139
866.006	22044
866.137	22131
866.269	22128
866.4	22219
866.531	22082
866.662	22158
866.793	22070
866.924	22082
867.055	22200
867.186	22188
867.317	22124
867.448	22093
867.579	22090
867.71	21960
867.841	22036
867.972	22044
868.103	22120
868.233	22116
868.364	22188
868.495	22177
868.625	22337
868.756	22443
868.886	22268
869.017	22375
869.147	22310
869.278	22493
869.408	22398
869.539	22299
869.669	22386
869.799	22402
869.929	22550
870.06	22409
870.19	22691
870.32	22611
870.45	22561
870.58	22790
870.71	22854
870.84	22797
870.97	22744
871.1	22649
871.23	22934
871.36	23044
871.489	22831
871.619	22866
871.749	23048
871.879	23037
872.008	23052
872.138	22881
872.267	22953
872.397	22771
872.526	22763
872.656	22771
872.785	22805
872.915	23029
873.044	22991
873.173	22980
873.303	22999
873.432	22949
873.561	23147
873.69	22995
873.819	22972
873.948	23037
874.077	23086
874.206	22877
874.335	23056
874.464	23075
874.593	23200
874.722	23064
874.851	23345
874.979	23185
875.108	23273
875.237	23174
875.365	23235
875.494	23189
875.623	23212
875.751	23128
875.88	23216
876.008	23330
876.136	23326
876.265	23703
876.393	23771
876.521	23676
876.65	23665
876.778	23562
876.906	23528
877.034	23649
877.162	23516
877.29	23531
877.418	23596
877.546	23474
877.674	23535
877.802	23486
877.93	23573
878.058	23429
878.185	23330
878.313	23516
878.441	23387
878.568	23410
878.696	23410
878.824	23497
878.951	23547
879.079	23653
879.206	23783
879.333	23547
879.461	23611
879.588	23627
879.715	23695
879.842	23771
879.97	23630
880.097	23440
880.224	23372
880.351	23512
880.478	23311
880.605	23349
880.732	23299
880.859	23573
880.986	23318
881.112	23349
881.239	23181
881.366	23117
881.493	22942
881.619	22949
881.746	22862
881.872	22839
881.999	22934
882.125	22820
882.252	23041
882.378	22938
882.505	22885
882.631	22816
882.757	22580
882.883	22630
883.01	22641
883.136	22512
883.262	22382
883.388	22459
883.514	22516
883.64	22649
883.766	22379
883.892	22375
884.018	22398
884.143	22481
884.269	22489
884.395	22265
884.52	22181
884.646	22242
884.772	22070
884.897	22051
885.023	22284
885.148	22322
885.274	22337
885.399	22272
885.524	22120
885.65	22147
885.775	22200
885.9	22101
886.025	22421
886.15	22173
886.275	22246
886.4	22166
886.525	22226
886.65	22112
886.775	22063
886.9	22234
887.025	22367
887.149	22131
887.274	22051
887.399	21991
887.523	21895
887.648	21964
887.773	21857
887.897	22128
888.021	21968
888.146	21953
888.27	22090
888.395	22074
888.519	21934
888.643	22078
888.767	21979
888.891	21816
889.015	21717
889.139	21770
889.263	21686
889.387	21915
889.511	21854
889.635	21945
889.759	21728
889.883	21873
890.006	21842
890.13	21869
890.254	21690
890.377	21633
890.501	21549
890.624	21633
890.748	21507
890.871	21466
890.995	21389
891.118	21348
891.241	21294
891.364	21370
891.488	21439
891.611	21272
891.734	21180
891.857	21321
891.98	21317
892.103	21344
892.226	21310
892.349	21272
892.471	21036
892.594	21222
892.717	21268
892.839	21104
892.962	21199
893.085	21260
893.207	21230
893.33	21024
893.452	21081
893.575	21252
893.697	21051
893.819	21268
893.941	21424
894.064	21294
894.186	21207
894.308	21119
894.43	21298
894.552	21359
894.674	21157
894.796	21077
894.918	21146
895.04	21211
895.161	21150
895.283	21150
895.405	21176
895.526	21146
895.648	21165
895.769	21275
895.891	21161
896.012	21188
896.134	21127
896.255	21112
896.376	21112
896.498	21108
896.619	21192
896.74	21218
896.861	21195
896.982	21610
897.103	21641
897.224	21496
897.345	21359
897.466	21317
897.587	21306
897.708	21488
897.828	21412
897.949	21226
898.07	21138
898.19	21260
898.311	21344
898.431	21256
898.552	21405
898.672	21386
898.792	21428
898.913	21378
899.033	21252
899.153	21272
899.273	21055
899.393	21051
899.513	21085
899.633	21142
899.753	21180
899.873	21001
899.993	21074
900.113	21062
900.232	21043
900.352	21020
900.472	20872
900.591	20777
900.711	20956
900.83	20750
900.95	20902
901.069	20891
901.189	20826
901.308	20526
901.427	20412
901.546	20465
901.665	20362
901.784	20347
901.904	20244
902.023	20298
902.141	20020
902.26	19921
902.379	19997
902.498	19925
902.617	19833
902.735	19887
902.854	19845
902.973	19909
903.091	19632
903.21	19464
903.328	19594
903.446	19559
903.565	19339
903.683	19415
903.801	19266
903.919	19282
904.038	19354
904.156	19217
904.274	19217
904.392	19099
904.51	19206
904.627	19027
904.745	19050
904.863	19179
904.981	18996
905.098	18749
905.216	18810
905.334	18947
905.451	18833
905.569	18806
905.686	18890
905.803	18783
905.921	18601
906.038	18608
906.155	18566
906.272	18563
906.389	18464
906.506	18353
906.623	18376
906.74	18292
906.857	18304
906.974	18334
907.091	18308
907.208	18270
907.324	18369
907.441	18079
907.557	18045
907.674	18022
907.79	18015
907.907	17939
908.023	18011
908.139	18045
908.256	17923
908.372	17923
908.488	17901
908.604	17840
908.72	17805
908.836	17741
908.952	17874
909.068	17752
909.184	17855
909.3	17752
909.415	17805
909.531	17729
909.647	17501
909.762	17455
909.878	17379
909.993	17436
910.108	17322
910.224	17429
910.339	17554
910.454	17326
910.57	17376
910.685	17140
910.8	17379
910.915	17360
911.03	17254
911.145	17075
911.259	17022
911.374	17025
911.489	16919
911.604	16930
911.718	16812
911.833	16752
911.947	16664
912.062	16603
912.176	16828
912.291	16812
912.405	16793
912.519	16885
912.633	16854
912.748	16759
912.862	16736
912.976	16641
913.09	16538
913.204	16417
913.318	16497
913.431	16645
913.545	16691
913.659	16687
913.772	16519
913.886	16508
914	16295
914.113	16432
914.226	16459
914.34	16375
914.453	16265
914.566	16409
914.68	16306
914.793	16356
914.906	16051
915.019	15956
915.132	15987
915.245	15911
915.358	16036
915.47	16105
915.583	15983
915.696	15918
915.809	15956
915.921	16036
916.034	15816
916.146	15778
916.259	15869
916.371	15922
916.483	15861
916.595	15755
916.708	15800
916.82	15778
916.932	15610
917.044	15743
917.156	15633
917.268	15542
917.38	15686
917.491	15481
917.603	15584
917.715	15614
917.826	15587
917.938	15477
918.049	15458
918.161	15447
918.272	15686
918.384	15656
918.495	15534
918.606	15344
918.717	15233
918.828	15321
918.939	15374
919.05	15252
919.161	15241
919.272	15100
919.383	15203
919.494	15321
919.604	15462
919.715	15264
919.826	15226
919.936	15237
920.047	15317
920.157	15252
920.267	15523
920.378	15256
920.488	15173
920.598	15370
920.708	15530
920.818	15306
920.928	15351
921.038	15530
921.148	15439
921.258	15165
921.368	15131
921.477	14971
921.587	15017
921.697	14891
921.806	14914
921.916	14781
922.025	14727
922.134	14678
922.244	14617
922.353	14678
922.462	14393
922.571	14370
922.68	14298
922.789	14343
922.898	14347
923.007	14252
923.116	14290
923.224	14290
923.333	14221
923.442	14107
923.55	14088
923.659	14138
923.767	14123
923.876	14043
923.984	14024
924.092	13913
924.201	14050
924.309	14039
924.417	14039
924.525	13909
924.633	13887
924.741	14762
924.849	13772
924.956	13784
925.064	13772
925.172	13647
925.279	13776
925.387	13647
925.494	13647
925.602	13738
925.709	13655
925.816	13594
925.924	13666
926.031	13670
926.138	13578
926.245	13666
926.352	13468
926.459	13620
926.566	13594
926.673	13464
926.779	13251
926.886	13312
926.993	13266
927.099	13175
927.206	13190
927.312	13076
927.419	13232
927.525	13194
927.631	13209
927.737	13057
927.843	12943
927.95	12863
928.056	13008
928.162	12916
928.267	13046
928.373	13590
928.479	13076
928.585	12802
928.69	12894
928.796	12981
928.901	12840
929.007	12806
929.112	12768
929.218	12837
929.323	12757
929.428	12696
929.533	12859
929.638	12623
929.743	12642
929.848	12719
929.953	12604
930.058	12555
930.163	12452
930.267	12433
930.372	12570
930.477	12296
930.581	12582
930.685	12410
930.79	12281
930.894	12243
930.998	12247
931.103	12365
931.207	12034
931.311	11859
931.415	11821
931.519	11661
931.623	11589
