Data from test_V78500241_1933.txt Node
Date: Fri Mar 25 15:55:11 CST 2022
User: usil
Spectrometer: V785-0024
Trigger mode: 0
Integration Time (sec): 4.000000E-1
Scans to average: 1
Nonlinearity correction enabled: false
Boxcar width: 0
Storing dark spectrum: false
XAxis mode: Wavelengths
Number of Pixels in Spectrum: 1024
>>>>>Begin Spectral Data<<<<<
801.071	28580
801.214	28508
801.356	28086
801.499	28173
801.641	28192
801.783	27994
801.926	28249
802.068	28143
802.211	28013
802.353	27934
802.496	27838
802.638	27846
802.78	27861
802.923	27759
803.065	27614
803.208	27728
803.35	27717
803.492	27884
803.635	27918
803.777	27800
803.919	27972
804.061	28234
804.204	28082
804.346	27793
804.488	27968
804.63	27998
804.773	27911
804.915	28021
805.057	28086
805.199	28017
805.341	28147
805.483	28291
805.626	28021
805.768	28029
805.91	28333
806.052	28097
806.194	28093
806.336	28306
806.478	28093
806.62	28116
806.762	28322
806.904	28421
807.046	28736
807.188	28577
807.33	28573
807.472	28725
807.614	28542
807.756	28599
807.898	28512
808.04	28306
808.182	28462
808.324	28481
808.465	28516
808.607	28710
808.749	28881
808.891	28938
809.033	29025
809.174	28881
809.316	28797
809.458	28877
809.6	28774
809.741	28923
809.883	28965
810.025	29136
810.166	29121
810.308	29094
810.45	29143
810.591	28881
810.733	28790
810.875	28866
811.016	28767
811.158	28656
811.299	28999
811.441	28965
811.582	28991
811.724	28877
811.865	28713
812.007	28816
812.148	28809
812.29	28778
812.431	29044
812.573	29220
812.714	29216
812.855	29322
812.997	29436
813.138	29695
813.279	29566
813.421	29360
813.562	29273
813.703	29375
813.845	29025
813.986	28748
814.127	28675
814.268	28516
814.41	28557
814.551	28626
814.692	28485
814.833	28272
814.974	28405
815.115	28580
815.256	28306
815.397	28455
815.539	28508
815.68	28432
815.821	28303
815.962	28367
816.103	28386
816.244	28109
816.385	28200
816.526	28021
816.666	27899
816.807	27770
816.948	27926
817.089	27991
817.23	27838
817.371	27808
817.512	27808
817.653	27709
817.793	27778
817.934	27907
818.075	27926
818.216	27846
818.356	27808
818.497	27705
818.638	27618
818.778	27595
818.919	27572
819.06	27762
819.2	27880
819.341	27831
819.481	27835
819.622	27903
819.762	28211
819.903	28070
820.043	28120
820.184	28067
820.324	27892
820.465	28013
820.605	28017
820.746	27987
820.886	27816
821.026	28048
821.167	27827
821.307	27991
821.447	27827
821.588	27709
821.728	27637
821.868	27500
822.008	27401
822.149	27211
822.289	27336
822.429	27131
822.569	27024
822.709	27009
822.849	26758
822.99	26804
823.13	26750
823.27	26811
823.41	26629
823.55	26598
823.69	26678
823.83	26530
823.97	26663
824.11	26396
824.25	26541
824.389	26427
824.529	26571
824.669	26526
824.809	26549
824.949	26552
825.089	26621
825.228	26427
825.368	26362
825.508	26328
825.648	26377
825.787	26366
825.927	26377
826.067	26339
826.206	26370
826.346	26419
826.485	26537
826.625	26328
826.765	26457
826.904	26343
827.044	26191
827.183	26069
827.323	25940
827.462	26149
827.601	26069
827.741	26100
827.88	26039
828.02	25944
828.159	26065
828.298	25955
828.437	26088
828.577	25921
828.716	26069
828.855	25925
828.994	25750
829.134	25586
829.273	25769
829.412	25632
829.551	25647
829.69	25780
829.829	25864
829.968	25921
830.107	25974
830.246	25731
830.385	25590
830.524	25635
830.663	25594
830.802	25567
830.941	25392
831.08	25217
831.219	25422
831.357	25453
831.496	25556
831.635	25369
831.774	25289
831.913	25107
832.051	25179
832.19	25289
832.329	25156
832.467	25095
832.606	24951
832.744	25091
832.883	25000
833.022	25050
833.16	24989
833.299	24989
833.437	25114
833.576	24966
833.714	25019
833.852	25114
833.991	25084
834.129	25137
834.267	25126
834.406	25015
834.544	25164
834.682	25088
834.821	25004
834.959	25057
835.097	25050
835.235	25095
835.373	25080
835.511	25019
835.65	24871
835.788	24852
835.926	24760
836.064	24787
836.202	24753
836.34	24817
836.478	24875
836.615	24821
836.753	24791
836.891	24928
837.029	24954
837.167	24844
837.305	24791
837.443	24631
837.58	24677
837.718	24764
837.856	24897
837.993	24745
838.131	24711
838.269	24623
838.406	24601
838.544	24540
838.681	24422
838.819	24296
838.956	24205
839.094	24277
839.231	24327
839.369	24429
839.506	24585
839.643	24460
839.781	24213
839.918	24258
840.055	24121
840.193	24152
840.33	24041
840.467	24117
840.604	24148
840.742	24384
840.879	23973
841.016	23882
841.153	24114
841.29	24178
841.427	23973
841.564	24110
841.701	24079
841.838	24068
841.975	23904
842.112	23950
842.249	23920
842.385	23920
842.522	24148
842.659	23999
842.796	23813
842.933	23935
843.069	23775
843.206	23840
843.343	24038
843.479	23885
843.616	23783
843.752	23604
843.889	23710
844.025	23843
844.162	23611
844.298	23790
844.435	23474
844.571	23627
844.708	23733
844.844	23756
844.98	23733
845.117	23817
845.253	23630
845.389	23459
845.525	23490
845.661	23493
845.798	23364
845.934	23353
846.07	23425
846.206	23379
846.342	23558
846.478	23383
846.614	23174
846.75	23105
846.886	23178
847.022	23090
847.158	23147
847.294	23098
847.429	23136
847.565	22980
847.701	23425
847.837	22972
847.972	22797
848.108	23003
848.244	22866
848.379	22793
848.515	22801
848.65	22569
848.786	22710
848.921	22645
849.057	22691
849.192	22793
849.328	22630
849.463	22634
849.598	22535
849.734	22569
849.869	22569
850.004	22363
850.14	22485
850.275	22443
850.41	22390
850.545	22470
850.68	22432
850.815	22436
850.95	22493
851.085	22519
851.22	22538
851.355	22398
851.49	22390
851.625	22417
851.76	22443
851.895	22249
852.03	22379
852.165	22542
852.299	22409
852.434	22516
852.569	22523
852.703	22500
852.838	22588
852.973	22489
853.107	22626
853.242	22310
853.376	22200
853.511	22166
853.645	22276
853.78	22306
853.914	22382
854.048	22253
854.183	22188
854.317	22196
854.451	22360
854.585	22223
854.72	22226
854.854	22356
854.988	22147
855.122	22322
855.256	22238
855.39	22287
855.524	22287
855.658	22371
855.792	22303
855.926	22284
856.06	22226
856.194	22295
856.327	22223
856.461	22154
856.595	22192
856.729	22253
856.862	22474
856.996	22207
857.13	22356
857.263	22417
857.397	22318
857.53	22268
857.664	22249
857.797	22226
857.931	22409
858.064	22249
858.197	22428
858.331	22219
858.464	22154
858.597	22166
858.731	22249
858.864	22162
858.997	22291
859.13	22185
859.263	22200
859.396	22253
859.529	22303
859.662	22173
859.795	22204
859.928	22352
860.061	22417
860.194	22242
860.327	22230
860.46	22246
860.592	22280
860.725	22428
860.858	22432
860.99	22200
861.123	22223
861.256	22070
861.388	22295
861.521	23098
861.653	22238
861.786	22048
861.918	22139
862.05	22276
862.183	22112
862.315	22219
862.447	22207
862.58	22303
862.712	21953
862.844	22021
862.976	22090
863.108	21911
863.24	22485
863.372	21911
863.504	21869
863.636	21903
863.768	21983
863.9	21975
864.032	21945
864.164	21819
864.296	21907
864.428	22078
864.559	21994
864.691	22059
864.823	21949
864.954	21941
865.086	21907
865.217	21888
865.349	21903
865.48	21888
865.612	21774
865.743	21994
865.875	21819
866.006	21717
866.137	22006
866.269	21865
866.4	21717
866.531	21755
866.662	21690
866.793	21686
866.924	21774
867.055	21785
867.186	21705
867.317	21819
867.448	21747
867.579	21850
867.71	21766
867.841	21762
867.972	21804
868.103	21728
868.233	21778
868.364	21781
868.495	21964
868.625	21998
868.756	22055
868.886	21994
869.017	22070
869.147	22093
869.278	22234
869.408	22105
869.539	21949
869.669	22147
869.799	22082
869.929	22169
870.06	22082
870.19	22382
870.32	22234
870.45	22287
870.58	22367
870.71	22386
870.84	22565
870.97	22432
871.1	22386
871.23	22649
871.36	22596
871.489	22542
871.619	22565
871.749	22561
871.879	22637
872.008	22729
872.138	22615
872.267	22634
872.397	22588
872.526	22493
872.656	22402
872.785	22352
872.915	22641
873.044	22675
873.173	22622
873.303	22713
873.432	22611
873.561	22653
873.69	22675
873.819	22679
873.948	22634
874.077	22698
874.206	22546
874.335	22694
874.464	22820
874.593	22904
874.722	22831
874.851	22774
874.979	22873
875.108	22824
875.237	22828
875.365	22733
875.494	22740
875.623	22968
875.751	22824
875.88	22774
876.008	22953
876.136	22995
876.265	23239
876.393	23421
876.521	23398
876.65	23208
876.778	23254
876.906	23143
877.034	23181
877.162	23277
877.29	23288
877.418	23197
877.546	23284
877.674	23200
877.802	23162
877.93	23189
878.058	23185
878.185	22987
878.313	23064
878.441	23094
878.568	22953
878.696	23052
878.824	23250
878.951	23220
879.079	23410
879.206	23414
879.333	23444
879.461	23235
879.588	23258
879.715	23330
879.842	23421
879.97	23356
880.097	23003
880.224	23064
880.351	23083
880.478	23022
880.605	22995
880.732	23121
880.859	23181
880.986	23067
881.112	22980
881.239	22854
881.366	22683
881.493	22763
881.619	22489
881.746	22691
881.872	22733
881.999	22637
882.125	22432
882.252	22691
882.378	22577
882.505	22634
882.631	22440
882.757	22363
882.883	22257
883.01	22200
883.136	22234
883.262	22139
883.388	22154
883.514	22204
883.64	22287
883.766	22238
883.892	21964
884.018	22032
884.143	22177
884.269	22177
884.395	21975
884.52	21892
884.646	21907
884.772	21895
884.897	21804
885.023	21831
885.148	21918
885.274	22067
885.399	21949
885.524	21930
885.65	21823
885.775	21903
885.9	21888
886.025	22147
886.15	21972
886.275	21800
886.4	21770
886.525	21865
886.65	21781
886.775	21739
886.9	22010
887.025	22036
887.149	21892
887.274	21553
887.399	21599
887.523	21717
887.648	21511
887.773	21523
887.897	21663
888.021	21732
888.146	21599
888.27	21778
888.395	21778
888.519	21641
888.643	21580
888.767	21637
888.891	21515
889.015	21420
889.139	21359
889.263	21454
889.387	21618
889.511	21515
889.635	21504
889.759	21382
889.883	21431
890.006	21538
890.13	21443
890.254	21260
890.377	21374
890.501	21226
890.624	21112
890.748	21157
890.871	21058
890.995	21005
891.118	20914
891.241	21100
891.364	20952
891.488	21173
891.611	21013
891.734	20960
891.857	21119
891.98	20990
892.103	20925
892.226	20956
892.349	20941
892.471	20918
892.594	20857
892.717	20914
892.839	20891
892.962	20864
893.085	20864
893.207	20838
893.33	20750
893.452	20746
893.575	20853
893.697	20830
893.819	20982
893.941	21020
894.064	20994
894.186	20853
894.308	20758
894.43	20845
894.552	21028
894.674	21119
894.796	20861
894.918	20887
895.04	20754
895.161	20960
895.283	20979
895.405	20834
895.526	20948
895.648	20845
895.769	20906
895.891	20998
896.012	20952
896.134	20876
896.255	20963
896.376	20750
896.498	20796
896.619	20872
896.74	20842
896.861	20967
896.982	21214
897.103	21252
897.224	21051
897.345	21074
897.466	20910
897.587	21081
897.708	21104
897.828	21051
897.949	20941
898.07	20804
898.19	20937
898.311	21089
898.431	21009
898.552	21150
898.672	21093
898.792	21123
898.913	21066
899.033	20914
899.153	20899
899.273	20769
899.393	20781
899.513	20864
899.633	20754
899.753	20925
899.873	20727
899.993	20895
900.113	20800
900.232	20689
900.352	20625
900.472	20758
900.591	20556
900.711	20613
900.83	20560
900.95	20625
901.069	20541
901.189	20355
901.308	20256
901.427	20180
901.546	20225
901.665	20233
901.784	20164
901.904	20005
902.023	19951
902.141	19670
902.26	19655
902.379	19784
902.498	19635
902.617	19502
902.735	19719
902.854	19487
902.973	19674
903.091	19259
903.21	19289
903.328	19373
903.446	19187
903.565	19187
903.683	19099
903.801	19069
903.919	19152
904.038	19069
904.156	19031
904.274	18939
904.392	18882
904.51	18840
904.627	18867
904.745	18901
904.863	18760
904.981	18726
905.098	18502
905.216	18559
905.334	18479
905.451	18616
905.569	18471
905.686	18563
905.803	18452
905.921	18216
906.038	18376
906.155	18330
906.272	18213
906.389	18277
906.506	17961
906.623	18140
906.74	18102
906.857	17977
906.974	18015
907.091	18064
907.208	18106
907.324	18140
907.441	17927
907.557	17840
907.674	17741
907.79	17783
907.907	17703
908.023	17790
908.139	17897
908.256	17699
908.372	17566
908.488	17661
908.604	17402
908.72	17581
908.836	17573
908.952	17459
909.068	17509
909.184	17657
909.3	17448
909.415	17524
909.531	17478
909.647	17364
909.762	17239
909.878	17239
909.993	17258
910.108	17174
910.224	17178
910.339	17162
910.454	17071
910.57	17117
910.685	16972
910.8	17193
910.915	17181
911.03	16949
911.145	16896
911.259	16782
911.374	16763
911.489	16790
911.604	16675
911.718	16462
911.833	16554
911.947	16489
912.062	16424
912.176	16599
912.291	16550
912.405	16504
912.519	16771
912.633	16759
912.748	16626
912.862	16535
912.976	16348
913.09	16188
913.204	16360
913.318	16356
913.431	16504
913.545	16409
913.659	16386
913.772	16325
913.886	16055
914	16147
914.113	16200
914.226	16306
914.34	16261
914.453	15983
914.566	16196
914.68	16059
914.793	15998
914.906	15720
915.019	15827
915.132	15694
915.245	15751
915.358	15743
915.47	15724
915.583	15709
915.696	15819
915.809	15854
915.921	15861
916.034	15724
916.146	15610
916.259	15641
916.371	15629
916.483	15610
916.595	15618
916.708	15542
916.82	15511
916.932	15553
917.044	15504
917.156	15447
917.268	15355
917.38	15386
917.491	15336
917.603	15397
917.715	15397
917.826	15439
917.938	15256
918.049	15123
918.161	15351
918.272	15389
918.384	15374
918.495	15275
918.606	15100
918.717	15058
918.828	15135
918.939	15169
919.05	15142
919.161	15077
919.272	14895
919.383	14986
919.494	15135
919.604	15203
919.715	15062
919.826	14925
919.936	15020
920.047	15051
920.157	15039
920.267	15222
920.378	15039
920.488	15081
920.598	15245
920.708	15332
920.818	15199
920.928	15188
921.038	15272
921.148	15370
921.258	15005
921.368	14891
921.477	14815
921.587	14735
921.697	14636
921.806	14842
921.916	14632
922.025	14404
922.134	14431
922.244	14324
922.353	14442
922.462	14404
922.571	14275
922.68	14138
922.789	14115
922.898	14020
923.007	13970
923.116	14103
923.224	14027
923.333	14103
923.442	13906
923.55	13830
923.659	13932
923.767	13959
923.876	13868
923.984	13883
924.092	13799
924.201	13814
924.309	13753
924.417	13738
924.525	13681
924.633	13681
924.741	14724
924.849	13487
924.956	13670
925.064	13476
925.172	13430
925.279	13495
925.387	13483
925.494	13487
925.602	13620
925.709	13548
925.816	13312
925.924	13346
926.031	13491
926.138	13369
926.245	13346
926.352	13164
926.459	13438
926.566	13445
926.673	13354
926.779	13209
926.886	13183
926.993	12962
927.099	13057
927.206	12989
927.312	12973
927.419	13061
927.525	13057
927.631	13057
927.737	12935
927.843	12795
927.95	12692
928.056	12776
928.162	12768
928.267	12825
928.373	13483
928.479	12920
928.585	12684
928.69	12757
928.796	12760
928.901	12684
929.007	12536
929.112	12722
929.218	12631
929.323	12570
929.428	12475
929.533	12555
929.638	12467
929.743	12448
929.848	12574
929.953	12513
930.058	12407
930.163	12201
930.267	12235
930.372	12251
930.477	12239
930.581	12437
930.685	12159
930.79	12106
930.894	12110
930.998	12102
931.103	12186
931.207	11817
931.311	11752
931.415	11668
931.519	11478
931.623	11440
