Data from test_V78500241_2860.txt Node
Date: Fri Mar 25 16:01:36 CST 2022
User: usil
Spectrometer: V785-0024
Trigger mode: 0
Integration Time (sec): 4.000000E-1
Scans to average: 1
Nonlinearity correction enabled: false
Boxcar width: 0
Storing dark spectrum: false
XAxis mode: Wavelengths
Number of Pixels in Spectrum: 1024
>>>>>Begin Spectral Data<<<<<
801.071	29136
801.214	29010
801.356	28862
801.499	28698
801.641	28698
801.783	28748
801.926	28675
802.068	28580
802.211	28615
802.353	28607
802.496	28493
802.638	28592
802.78	28367
802.923	28341
803.065	28398
803.208	28405
803.35	28478
803.492	28565
803.635	28691
803.777	28497
803.919	28440
804.061	28965
804.204	28835
804.346	28626
804.488	28557
804.63	28599
804.773	28500
804.915	28748
805.057	28771
805.199	28733
805.341	28790
805.483	28862
805.626	28782
805.768	28812
805.91	28869
806.052	28877
806.194	28599
806.336	28972
806.478	28877
806.62	28908
806.762	28961
806.904	28987
807.046	29448
807.188	29318
807.33	29288
807.472	29345
807.614	29391
807.756	29307
807.898	29136
808.04	29143
808.182	29044
808.324	29162
808.465	29242
808.607	29444
808.749	29592
808.891	29684
809.033	29589
809.174	29570
809.316	29543
809.458	29448
809.6	29528
809.741	29737
809.883	29745
810.025	29920
810.166	29752
810.308	29802
810.45	29821
810.591	29805
810.733	29520
810.875	29649
811.016	29589
811.158	29349
811.299	29657
811.441	29821
811.582	29722
811.724	29570
811.865	29482
812.007	29577
812.148	29585
812.29	29577
812.431	29608
812.573	29874
812.714	29973
812.855	30182
812.997	30110
813.138	30315
813.279	30247
813.421	30102
813.562	30102
813.703	29859
813.845	29748
813.986	29581
814.127	29364
814.268	29375
814.41	29368
814.551	29185
814.692	29235
814.833	29208
814.974	29337
815.115	29277
815.256	29124
815.397	29292
815.539	29109
815.68	29143
815.821	29109
815.962	29117
816.103	29117
816.244	28995
816.385	28987
816.526	28850
816.666	28717
816.807	28523
816.948	28752
817.089	28721
817.23	28656
817.371	28561
817.512	28573
817.653	28603
817.793	28546
817.934	28630
818.075	28573
818.216	28516
818.356	28512
818.497	28421
818.638	28356
818.778	28356
818.919	28352
819.06	28538
819.2	28390
819.341	28672
819.481	28584
819.622	28839
819.762	28896
819.903	28987
820.043	28801
820.184	28911
820.324	28679
820.465	28862
820.605	28683
820.746	28694
820.886	28637
821.026	28691
821.167	28759
821.307	28843
821.447	28683
821.588	28504
821.728	28451
821.868	28295
822.008	28105
822.149	28040
822.289	28090
822.429	27846
822.569	27846
822.709	27759
822.849	27736
822.99	27656
823.13	27633
823.27	27557
823.41	27545
823.55	27298
823.69	27511
823.83	27481
823.97	27458
824.11	27142
824.25	27245
824.389	27252
824.529	27416
824.669	27157
824.809	27545
824.949	27298
825.089	27431
825.228	27275
825.368	27180
825.508	26857
825.648	27096
825.787	27180
825.927	27127
826.067	27009
826.206	27062
826.346	27260
826.485	27203
826.625	27180
826.765	27211
826.904	27157
827.044	26979
827.183	26956
827.323	26891
827.462	26925
827.601	26872
827.741	26842
827.88	26960
828.02	26739
828.159	26750
828.298	26891
828.437	26830
828.577	26739
828.716	26979
828.855	26811
828.994	26609
829.134	26488
829.273	26629
829.412	26492
829.551	26389
829.69	26495
829.829	26549
829.968	26697
830.107	26511
830.246	26549
830.385	26579
830.524	26465
830.663	26313
830.802	26313
830.941	26176
831.08	26119
831.219	26210
831.357	26237
831.496	26473
831.635	26149
831.774	26065
831.913	26039
832.051	25936
832.19	25936
832.329	26065
832.467	25864
832.606	25788
832.744	25734
832.883	25902
833.022	25795
833.16	25841
833.299	25830
833.437	25799
833.576	25989
833.714	25826
833.852	25928
833.991	25868
834.129	25913
834.267	26054
834.406	25833
834.544	25883
834.682	25902
834.821	25921
834.959	25856
835.097	25875
835.235	25860
835.373	25788
835.511	25982
835.65	25761
835.788	25837
835.926	25529
836.064	25468
836.202	25540
836.34	25655
836.478	25753
836.615	25662
836.753	25685
836.891	25875
837.029	25563
837.167	25647
837.305	25628
837.443	25582
837.58	25415
837.718	25666
837.856	25586
837.993	25449
838.131	25476
838.269	25285
838.406	25514
838.544	25358
838.681	25118
838.819	25179
838.956	25042
839.094	24989
839.231	24966
839.369	25107
839.506	25438
839.643	25225
839.781	25008
839.918	24916
840.055	24954
840.193	24977
840.33	24966
840.467	24867
840.604	24787
840.742	25072
840.879	24757
841.016	24840
841.153	24833
841.29	25012
841.427	24935
841.564	24848
841.701	24920
841.838	24802
841.975	24764
842.112	24734
842.249	24757
842.385	24544
842.522	24935
842.659	24665
842.796	24540
842.933	24570
843.069	24658
843.206	24585
843.343	24585
843.479	24730
843.616	24631
843.752	24338
843.889	24292
844.025	24563
844.162	24403
844.298	24350
844.435	24399
844.571	24391
844.708	24578
844.844	24502
844.98	24547
845.117	24467
845.253	24407
845.389	24308
845.525	24258
845.661	24243
845.798	24159
845.934	24292
846.07	24125
846.206	24273
846.342	24304
846.478	24125
846.614	23889
846.75	23817
846.886	23828
847.022	23847
847.158	23805
847.294	23893
847.429	23866
847.565	23783
847.701	24114
847.837	23577
847.972	23429
848.108	23646
848.244	23668
848.379	23520
848.515	23581
848.65	23516
848.786	23539
848.921	23512
849.057	23368
849.192	23478
849.328	23501
849.463	23402
849.598	23433
849.734	23368
849.869	23239
850.004	23189
850.14	23227
850.275	23060
850.41	23121
850.545	23200
850.68	23124
850.815	23220
850.95	23151
851.085	23326
851.22	23269
851.355	23193
851.49	23128
851.625	23204
851.76	23193
851.895	23132
852.03	23094
852.165	23075
852.299	23254
852.434	23337
852.569	23326
852.703	23277
852.838	23318
852.973	23254
853.107	23261
853.242	23227
853.376	23056
853.511	22949
853.645	23025
853.78	23090
853.914	23083
854.048	23029
854.183	23056
854.317	23155
854.451	23258
854.585	23121
854.72	23083
854.854	23113
854.988	23048
855.122	22980
855.256	23037
855.39	22968
855.524	23143
855.658	23117
855.792	23037
855.926	23113
856.06	23151
856.194	23166
856.327	23006
856.461	23067
856.595	22942
856.729	23090
856.862	23128
856.996	23090
857.13	23178
857.263	23159
857.397	23151
857.53	23086
857.664	23064
857.797	23102
857.931	23242
858.064	23132
858.197	23204
858.331	23041
858.464	22953
858.597	22976
858.731	23003
858.864	22957
858.997	23003
859.13	23098
859.263	23083
859.396	23128
859.529	22923
859.662	23022
859.795	22915
859.928	23033
860.061	23208
860.194	23246
860.327	23128
860.46	23048
860.592	23197
860.725	23185
860.858	23197
860.99	23060
861.123	23014
861.256	23044
861.388	23048
861.521	23752
861.653	22987
861.786	22949
861.918	22949
862.05	22908
862.183	23037
862.315	23025
862.447	23064
862.58	22869
862.712	22786
862.844	22866
862.976	22885
863.108	22755
863.24	23200
863.372	22683
863.504	22793
863.636	22805
863.768	22805
863.9	22679
864.032	22733
864.164	22828
864.296	22869
864.428	22881
864.559	22809
864.691	22778
864.823	22752
864.954	22641
865.086	22725
865.217	22580
865.349	22554
865.48	22611
865.612	22569
865.743	22793
865.875	22588
866.006	22527
866.137	22691
866.269	22615
866.4	22554
866.531	22481
866.662	22569
866.793	22580
866.924	22577
867.055	22550
867.186	22622
867.317	22577
867.448	22405
867.579	22679
867.71	22462
867.841	22390
867.972	22493
868.103	22538
868.233	22683
868.364	22546
868.495	22748
868.625	22793
868.756	22919
868.886	22752
869.017	22653
869.147	22889
869.278	22854
869.408	22698
869.539	22729
869.669	22847
869.799	22797
869.929	22938
870.06	22930
870.19	23143
870.32	23121
870.45	23109
870.58	23098
870.71	23200
870.84	23277
870.97	23220
871.1	23113
871.23	23429
871.36	23341
871.489	23379
871.619	23406
871.749	23376
871.879	23406
872.008	23558
872.138	23505
872.267	23436
872.397	23341
872.526	23307
872.656	23204
872.785	23273
872.915	23497
873.044	23482
873.173	23444
873.303	23414
873.432	23379
873.561	23573
873.69	23410
873.819	23459
873.948	23406
874.077	23444
874.206	23379
874.335	23376
874.464	23463
874.593	23657
874.722	23459
874.851	23638
874.979	23653
875.108	23699
875.237	23668
875.365	23516
875.494	23623
875.623	23630
875.751	23554
875.88	23566
876.008	23741
876.136	23821
876.265	24011
876.393	24045
876.521	23961
876.65	23996
876.778	24045
876.906	23965
877.034	24026
877.162	23984
877.29	23901
877.418	23999
877.546	23916
877.674	24087
877.802	24022
877.93	23878
878.058	23961
878.185	23859
878.313	23813
878.441	23851
878.568	23695
878.696	24018
878.824	23901
878.951	24121
879.079	24121
879.206	24300
879.333	24197
879.461	23988
879.588	24106
879.715	24091
879.842	24197
879.97	23999
880.097	23920
880.224	23813
880.351	23863
880.478	23615
880.605	23798
880.732	23794
880.859	24152
880.986	23794
881.112	23832
881.239	23638
881.366	23493
881.493	23360
881.619	23269
881.746	23299
881.872	23292
881.999	23220
882.125	23170
882.252	23239
882.378	23265
882.505	23421
882.631	23083
882.757	23140
882.883	23056
883.01	23044
883.136	22953
883.262	22896
883.388	22786
883.514	22904
883.64	22972
883.766	22869
883.892	22767
884.018	22812
884.143	22968
884.269	22961
884.395	22774
884.52	22683
884.646	22717
884.772	22542
884.897	22584
885.023	22641
885.148	22599
885.274	22831
885.399	22675
885.524	22580
885.65	22694
885.775	22596
885.9	22618
886.025	22748
886.15	22752
886.275	22497
886.4	22485
886.525	22535
886.65	22516
886.775	22500
886.9	22713
887.025	22744
887.149	22596
887.274	22382
887.399	22363
887.523	22386
887.648	22280
887.773	22234
887.897	22367
888.021	22329
888.146	22348
888.27	22409
888.395	22516
888.519	22405
888.643	22436
888.767	22382
888.891	22230
889.015	22185
889.139	22352
889.263	22105
889.387	22329
889.511	22382
889.635	22276
889.759	22177
889.883	22074
890.006	22181
890.13	22154
890.254	22101
890.377	21991
890.501	21778
890.624	21770
890.748	21926
890.871	21781
890.995	21614
891.118	21606
891.241	21717
891.364	21618
891.488	21762
891.611	21686
891.734	21690
891.857	21781
891.98	21656
892.103	21679
892.226	21663
892.349	21629
892.471	21629
892.594	21488
892.717	21595
892.839	21553
892.962	21629
893.085	21637
893.207	21519
893.33	21378
893.452	21572
893.575	21675
893.697	21576
893.819	21720
893.941	21743
894.064	21724
894.186	21534
894.308	21420
894.43	21606
894.552	21724
894.674	21644
894.796	21424
894.918	21526
895.04	21500
895.161	21701
895.283	21549
895.405	21511
895.526	21450
895.648	21568
895.769	21515
895.891	21564
896.012	21682
896.134	21534
896.255	21507
896.376	21397
896.498	21591
896.619	21507
896.74	21568
896.861	21500
896.982	21808
897.103	22025
897.224	21838
897.345	21690
897.466	21591
897.587	21732
897.708	21911
897.828	21736
897.949	21641
898.07	21614
898.19	21671
898.311	21770
898.431	21694
898.552	21812
898.672	21682
898.792	21778
898.913	21816
899.033	21629
899.153	21389
899.273	21393
899.393	21519
899.513	21450
899.633	21389
899.753	21462
899.873	21359
899.993	21367
900.113	21420
900.232	21428
900.352	21351
900.472	21336
900.591	21169
900.711	21298
900.83	21131
900.95	21367
901.069	21321
901.189	21081
901.308	20861
901.427	20746
901.546	20705
901.665	20834
901.784	20815
901.904	20651
902.023	20427
902.141	20362
902.26	20446
902.379	20309
902.498	20400
902.617	20237
902.735	20362
902.854	20187
902.973	20164
903.091	20020
903.21	19955
903.328	19864
903.446	19769
903.565	19662
903.683	19639
903.801	19643
903.919	19704
904.038	19681
904.156	19506
904.274	19529
904.392	19502
904.51	19510
904.627	19411
904.745	19510
904.863	19525
904.981	19327
905.098	19050
905.216	19175
905.334	19164
905.451	19194
905.569	19038
905.686	19103
905.803	19168
905.921	18856
906.038	19076
906.155	18814
906.272	18894
906.389	18894
906.506	18722
906.623	18665
906.74	18669
906.857	18627
906.974	18547
907.091	18646
907.208	18745
907.324	18722
907.441	18547
907.557	18441
907.674	18334
907.79	18304
907.907	18357
908.023	18433
908.139	18445
908.256	18270
908.372	18281
908.488	18216
908.604	18091
908.72	18106
908.836	18167
908.952	18076
909.068	18110
909.184	18152
909.3	18003
909.415	18152
909.531	18072
909.647	17798
909.762	17817
909.878	17722
909.993	17775
910.108	17786
910.224	17783
910.339	17680
910.454	17581
910.57	17490
910.685	17490
910.8	17726
910.915	17619
911.03	17634
911.145	17376
911.259	17372
911.374	17360
911.489	17227
911.604	17284
911.718	17067
911.833	17029
911.947	17071
912.062	16896
912.176	17075
912.291	17052
912.405	17041
912.519	17254
912.633	17220
912.748	17128
912.862	17098
912.976	16904
913.09	16790
913.204	16908
913.318	16915
913.431	16927
913.545	16942
913.659	16904
913.772	16862
913.886	16725
914	16736
914.113	16748
914.226	16752
914.34	16679
914.453	16580
914.566	16622
914.68	16447
914.793	16459
914.906	16257
915.019	16185
915.132	16154
915.245	16265
915.358	16219
915.47	16215
915.583	16211
915.696	16223
915.809	16329
915.921	16246
916.034	16169
916.146	16253
916.259	16086
916.371	16200
916.483	16169
916.595	16082
916.708	16112
916.82	16109
916.932	16010
917.044	15987
917.156	16013
917.268	15823
917.38	15880
917.491	15884
917.603	15797
917.715	15991
917.826	15911
917.938	15743
918.049	15732
918.161	15800
918.272	15998
918.384	15869
918.495	15717
918.606	15694
918.717	15644
918.828	15492
918.939	15652
919.05	15500
919.161	15568
919.272	15405
919.383	15412
919.494	15625
919.604	15766
919.715	15572
919.826	15454
919.936	15507
920.047	15614
920.157	15549
920.267	15728
920.378	15549
920.488	15587
920.598	15789
920.708	15850
920.818	15705
920.928	15622
921.038	15804
921.148	15770
921.258	15526
921.368	15325
921.477	15192
921.587	15237
921.697	15089
921.806	15310
921.916	15112
922.025	14891
922.134	14804
922.244	14826
922.353	14906
922.462	14716
922.571	14735
922.68	14549
922.789	14575
922.898	14583
923.007	14427
923.116	14533
923.224	14465
923.333	14568
923.442	14298
923.55	14393
923.659	14393
923.767	14400
923.876	14298
923.984	14358
924.092	14199
924.201	14339
924.309	14324
924.417	14202
924.525	14157
924.633	14244
924.741	15199
924.849	14058
924.956	14123
925.064	13921
925.172	13852
925.279	13830
925.387	13974
925.494	13959
925.602	13986
925.709	13833
925.816	13860
925.924	13841
926.031	13879
926.138	13803
926.245	13906
926.352	13700
926.459	13826
926.566	13811
926.673	13849
926.779	13666
926.886	13643
926.993	13457
927.099	13434
927.206	13304
927.312	13388
927.419	13487
927.525	13339
927.631	13434
927.737	13244
927.843	13293
927.95	13141
928.056	13179
928.162	13232
928.267	13228
928.373	13944
928.479	13289
928.585	13050
928.69	13168
928.796	13152
928.901	13103
929.007	12916
929.112	13126
929.218	13023
929.323	12920
929.428	12954
929.533	12935
929.638	12776
929.743	12977
929.848	12977
929.953	12833
930.058	12848
930.163	12635
930.267	12593
930.372	12707
930.477	12601
930.581	12688
930.685	12635
930.79	12483
930.894	12467
930.998	12422
931.103	12559
931.207	12190
931.311	12144
931.415	12079
931.519	11863
931.623	11775
