Data from test_V78500241_392.txt Node
Date: Fri Mar 25 15:44:31 CST 2022
User: usil
Spectrometer: V785-0024
Trigger mode: 0
Integration Time (sec): 4.000000E-1
Scans to average: 1
Nonlinearity correction enabled: false
Boxcar width: 0
Storing dark spectrum: false
XAxis mode: Wavelengths
Number of Pixels in Spectrum: 1024
>>>>>Begin Spectral Data<<<<<
801.071	29474
801.214	29429
801.356	29159
801.499	29094
801.641	29124
801.783	29029
801.926	28991
802.068	29071
802.211	28980
802.353	28786
802.496	28831
802.638	28710
802.78	28672
802.923	28622
803.065	28599
803.208	28599
803.35	28599
803.492	28698
803.635	28915
803.777	28774
803.919	28744
804.061	29216
804.204	28938
804.346	28691
804.488	28843
804.63	28896
804.773	28736
804.915	28911
805.057	28984
805.199	28736
805.341	29041
805.483	28885
805.626	28934
805.768	28877
805.91	28965
806.052	28934
806.194	28957
806.336	29147
806.478	29018
806.62	28995
806.762	29200
806.904	29334
807.046	29478
807.188	29406
807.33	29452
807.472	29543
807.614	29318
807.756	29417
807.898	29178
808.04	29280
808.182	29170
808.324	29296
808.465	29372
808.607	29379
808.749	29649
808.891	29726
809.033	29859
809.174	29821
809.316	29752
809.458	29695
809.6	29741
809.741	29672
809.883	29733
810.025	29935
810.166	29889
810.308	30026
810.45	30018
810.591	29904
810.733	29840
810.875	29596
811.016	29615
811.158	29668
811.299	29783
811.441	29779
811.582	29733
811.724	29752
811.865	29573
812.007	29672
812.148	29417
812.29	29646
812.431	29821
812.573	29939
812.714	30072
812.855	30224
812.997	30334
813.138	30410
813.279	30129
813.421	30133
813.562	30053
813.703	29935
813.845	29859
813.986	29505
814.127	29398
814.268	29353
814.41	29322
814.551	29360
814.692	29478
814.833	29284
814.974	29265
815.115	29398
815.256	29075
815.397	29227
815.539	29147
815.68	29067
815.821	28957
815.962	29109
816.103	29254
816.244	28934
816.385	28968
816.526	28866
816.666	28717
816.807	28371
816.948	28557
817.089	28702
817.23	28668
817.371	28603
817.512	28607
817.653	28546
817.793	28599
817.934	28577
818.075	28603
818.216	28668
818.356	28504
818.497	28379
818.638	28261
818.778	28348
818.919	28401
819.06	28409
819.2	28512
819.341	28535
819.481	28489
819.622	28615
819.762	28892
819.903	28930
820.043	28691
820.184	28630
820.324	28599
820.465	28645
820.605	28733
820.746	28615
820.886	28592
821.026	28649
821.167	28580
821.307	28717
821.447	28508
821.588	28409
821.728	28474
821.868	28211
822.008	28101
822.149	28010
822.289	27956
822.429	27720
822.569	27728
822.709	27538
822.849	27485
822.99	27580
823.13	27526
823.27	27454
823.41	27332
823.55	27066
823.69	27176
823.83	27252
823.97	27150
824.11	27272
824.25	27055
824.389	27150
824.529	27138
824.669	27150
824.809	27112
824.949	27157
825.089	27222
825.228	27138
825.368	26918
825.508	26899
825.648	26929
825.787	26918
825.927	27024
826.067	26906
826.206	26994
826.346	26963
826.485	27081
826.625	26956
826.765	27112
826.904	26956
827.044	26617
827.183	26609
827.323	26632
827.462	26575
827.601	26674
827.741	26678
827.88	26640
828.02	26511
828.159	26549
828.298	26552
828.437	26571
828.577	26609
828.716	26727
828.855	26564
828.994	26336
829.134	26366
829.273	26514
829.412	26324
829.551	26317
829.69	26161
829.829	26271
829.968	26347
830.107	26320
830.246	26256
830.385	26081
830.524	26199
830.663	26153
830.802	25944
830.941	25947
831.08	25818
831.219	25959
831.357	25951
831.496	26161
831.635	25909
831.774	25761
831.913	25719
832.051	25529
832.19	25559
832.329	25632
832.467	25464
832.606	25438
832.744	25464
832.883	25537
833.022	25510
833.16	25464
833.299	25582
833.437	25453
833.576	25502
833.714	25419
833.852	25700
833.991	25594
834.129	25655
834.267	25635
834.406	25476
834.544	25449
834.682	25476
834.821	25449
834.959	25685
835.097	25571
835.235	25597
835.373	25502
835.511	25468
835.65	25304
835.788	25282
835.926	25324
836.064	25198
836.202	25118
836.34	25384
836.478	25468
836.615	25396
836.753	25350
836.891	25301
837.029	25259
837.167	25358
837.305	25270
837.443	25069
837.58	25145
837.718	25259
837.856	25304
837.993	25152
838.131	25114
838.269	25061
838.406	25103
838.544	24992
838.681	24833
838.819	24779
838.956	24585
839.094	24601
839.231	24681
839.369	24623
839.506	24928
839.643	24859
839.781	24616
839.918	24563
840.055	24578
840.193	24475
840.33	24498
840.467	24574
840.604	24566
840.742	24646
840.879	24357
841.016	24254
841.153	24418
841.29	24547
841.427	24452
841.564	24566
841.701	24380
841.838	24262
841.975	24361
842.112	24391
842.249	24289
842.385	24209
842.522	24570
842.659	24285
842.796	24197
842.933	24220
843.069	24270
843.206	24034
843.343	24197
843.479	24194
843.616	24087
843.752	23977
843.889	23999
844.025	24079
844.162	23809
844.298	24041
844.435	23992
844.571	23942
844.708	23870
844.844	24068
844.98	24148
845.117	23999
845.253	23878
845.389	23649
845.525	23878
845.661	23802
845.798	23672
845.934	23733
846.07	23665
846.206	23691
846.342	23805
846.478	23623
846.614	23360
846.75	23235
846.886	23383
847.022	23376
847.158	23436
847.294	23429
847.429	23334
847.565	23353
847.701	23547
847.837	23105
847.972	23048
848.108	23147
848.244	23178
848.379	23010
848.515	22976
848.65	22908
848.786	22915
848.921	22984
849.057	22995
849.192	22942
849.328	22938
849.463	22923
849.598	22911
849.734	22790
849.869	22763
850.004	22672
850.14	22618
850.275	22736
850.41	22664
850.545	22599
850.68	22554
850.815	22748
850.95	22679
851.085	22843
851.22	22725
851.355	22694
851.49	22546
851.625	22611
851.76	22698
851.895	22573
852.03	22542
852.165	22672
852.299	22660
852.434	22763
852.569	22752
852.703	22637
852.838	22713
852.973	22786
853.107	22698
853.242	22538
853.376	22497
853.511	22409
853.645	22489
853.78	22626
853.914	22523
854.048	22451
854.183	22459
854.317	22512
854.451	22599
854.585	22542
854.72	22280
854.854	22481
854.988	22371
855.122	22447
855.256	22318
855.39	22447
855.524	22497
855.658	22455
855.792	22481
855.926	22485
856.06	22588
856.194	22641
856.327	22409
856.461	22447
856.595	22322
856.729	22337
856.862	22615
856.996	22485
857.13	22618
857.263	22504
857.397	22550
857.53	22538
857.664	22485
857.797	22618
857.931	22622
858.064	22599
858.197	22485
858.331	22382
858.464	22375
858.597	22253
858.731	22394
858.864	22375
858.997	22363
859.13	22424
859.263	22443
859.396	22577
859.529	22394
859.662	22382
859.795	22348
859.928	22440
860.061	22531
860.194	22592
860.327	22379
860.46	22474
860.592	22649
860.725	22649
860.858	22535
860.99	22356
861.123	22466
861.256	22341
861.388	22634
861.521	23147
861.653	22360
861.786	22219
861.918	22402
862.05	22382
862.183	22257
862.315	22478
862.447	22500
862.58	22363
862.712	22295
862.844	22112
862.976	22246
863.108	22299
863.24	22691
863.372	22158
863.504	22188
863.636	22074
863.768	22207
863.9	22082
864.032	22063
864.164	22158
864.296	22120
864.428	22135
864.559	22249
864.691	22154
864.823	22139
864.954	22154
865.086	22101
865.217	21945
865.349	21797
865.48	22082
865.612	22017
865.743	22093
865.875	22021
866.006	21960
866.137	22006
866.269	22188
866.4	21899
866.531	22059
866.662	21915
866.793	21880
866.924	21968
867.055	22029
867.186	21865
867.317	21854
867.448	21736
867.579	21884
867.71	21937
867.841	21831
867.972	21956
868.103	21915
868.233	21987
868.364	21918
868.495	22002
868.625	22238
868.756	22181
868.886	22112
869.017	22032
869.147	22257
869.278	22181
869.408	22162
869.539	22154
869.669	22200
869.799	22204
869.929	22322
870.06	22246
870.19	22550
870.32	22466
870.45	22466
870.58	22550
870.71	22630
870.84	22637
870.97	22622
871.1	22459
871.23	22660
871.36	22797
871.489	22725
871.619	22691
871.749	22793
871.879	22653
872.008	22801
872.138	22694
872.267	22786
872.397	22516
872.526	22535
872.656	22683
872.785	22504
872.915	22824
873.044	22649
873.173	22736
873.303	22793
873.432	22835
873.561	22881
873.69	22771
873.819	22835
873.948	22774
874.077	22854
874.206	22793
874.335	22809
874.464	22889
874.593	22980
874.722	22942
874.851	23094
874.979	23102
875.108	23064
875.237	22957
875.365	22877
875.494	23056
875.623	22987
875.751	22828
875.88	23025
876.008	23044
876.136	23128
876.265	23391
876.393	23531
876.521	23334
876.65	23478
876.778	23360
876.906	23288
877.034	23265
877.162	23261
877.29	23277
877.418	23296
877.546	23311
877.674	23345
877.802	23318
877.93	23299
878.058	23242
878.185	23136
878.313	23284
878.441	23246
878.568	23147
878.696	23212
878.824	23315
878.951	23398
879.079	23528
879.206	23585
879.333	23577
879.461	23288
879.588	23471
879.715	23501
879.842	23634
879.97	23387
880.097	23105
880.224	23044
880.351	23204
880.478	23044
880.605	23121
880.732	23143
880.859	23277
880.986	23288
881.112	23166
881.239	22953
881.366	22892
881.493	22793
881.619	22847
881.746	22725
881.872	22664
881.999	22733
882.125	22649
882.252	22710
882.378	22725
882.505	22729
882.631	22550
882.757	22596
882.883	22466
883.01	22291
883.136	22344
883.262	22230
883.388	22348
883.514	22405
883.64	22386
883.766	22238
883.892	22124
884.018	22223
884.143	22341
884.269	22341
884.395	22196
884.52	21987
884.646	21998
884.772	21865
884.897	21930
885.023	22067
885.148	22219
885.274	22230
885.399	22032
885.524	22082
885.65	22150
885.775	22021
885.9	21915
886.025	22128
886.15	22143
886.275	21991
886.4	21876
886.525	21937
886.65	21884
886.775	21918
886.9	22090
887.025	22196
887.149	21926
887.274	21854
887.399	21804
887.523	21774
887.648	21701
887.773	21618
887.897	21778
888.021	21781
888.146	21637
888.27	21846
888.395	21884
888.519	21850
888.643	21808
888.767	21804
888.891	21709
889.015	21439
889.139	21663
889.263	21660
889.387	21686
889.511	21762
889.635	21713
889.759	21435
889.883	21466
890.006	21545
890.13	21743
890.254	21504
890.377	21488
890.501	21287
890.624	21180
890.748	21291
890.871	21298
890.995	21176
891.118	21154
891.241	21104
891.364	21108
891.488	21188
891.611	21051
891.734	21157
891.857	21104
891.98	21192
892.103	21104
892.226	20990
892.349	21093
892.471	20956
892.594	21036
892.717	20982
892.839	20956
892.962	20956
893.085	21028
893.207	20929
893.33	20967
893.452	20830
893.575	21070
893.697	20857
893.819	21207
893.941	21222
894.064	21081
894.186	21024
894.308	20887
894.43	21066
894.552	21089
894.674	21085
894.796	20971
894.918	20937
895.04	20891
895.161	20986
895.283	21039
895.405	20979
895.526	20967
895.648	20929
895.769	20937
895.891	21043
896.012	21161
896.134	21043
896.255	21039
896.376	21017
896.498	21081
896.619	20994
896.74	20910
896.861	21058
896.982	21424
897.103	21530
897.224	21264
897.345	21298
897.466	21173
897.587	21237
897.708	21302
897.828	21237
897.949	21058
898.07	21074
898.19	21203
898.311	21218
898.431	21062
898.552	21173
898.672	21302
898.792	21199
898.913	21093
899.033	21005
899.153	21051
899.273	20861
899.393	20948
899.513	20944
899.633	20910
899.753	20861
899.873	20773
899.993	20883
900.113	20895
900.232	20857
900.352	20815
900.472	20651
900.591	20724
900.711	20743
900.83	20674
900.95	20701
901.069	20773
901.189	20598
901.308	20278
901.427	20244
901.546	20267
901.665	20313
901.784	20225
901.904	20134
902.023	20046
902.141	19822
902.26	19807
902.379	19833
902.498	19776
902.617	19731
902.735	19765
902.854	19731
902.973	19734
903.091	19327
903.21	19499
903.328	19419
903.446	19346
903.565	19217
903.683	19217
903.801	19065
903.919	19118
904.038	19202
904.156	18985
904.274	18989
904.392	18894
904.51	18802
904.627	18943
904.745	18973
904.863	19012
904.981	18859
905.098	18719
905.216	18604
905.334	18616
905.451	18616
905.569	18612
905.686	18650
905.803	18673
905.921	18330
906.038	18502
906.155	18395
906.272	18300
906.389	18235
906.506	18148
906.623	18197
906.74	18186
906.857	18003
906.974	18011
907.091	18178
907.208	18251
907.324	18209
907.441	18038
907.557	17992
907.674	17843
907.79	17756
907.907	17767
908.023	17794
908.139	17748
908.256	17798
908.372	17634
908.488	17699
908.604	17414
908.72	17627
908.836	17581
908.952	17391
909.068	17585
909.184	17623
909.3	17543
909.415	17535
909.531	17429
909.647	17258
909.762	17166
909.878	17185
909.993	17170
910.108	17280
910.224	17117
910.339	17242
910.454	17064
910.57	17010
910.685	16957
910.8	17181
910.915	17079
911.03	17060
911.145	16881
911.259	16767
911.374	16805
911.489	16702
911.604	16573
911.718	16489
911.833	16603
911.947	16402
912.062	16382
912.176	16561
912.291	16607
912.405	16497
912.519	16679
912.633	16725
912.748	16558
912.862	16291
912.976	16360
913.09	16276
913.204	16360
913.318	16352
913.431	16398
913.545	16379
913.659	16462
913.772	16306
913.886	16166
914	16166
914.113	16204
914.226	16249
914.34	16181
914.453	16006
914.566	16112
914.68	15956
914.793	16029
914.906	15876
915.019	15816
915.132	15747
915.245	15747
915.358	15656
915.47	15778
915.583	15641
915.696	15747
915.809	15804
915.921	15743
916.034	15591
916.146	15648
916.259	15576
916.371	15675
916.483	15633
916.595	15507
916.708	15519
916.82	15507
916.932	15553
917.044	15466
917.156	15504
917.268	15264
917.38	15363
917.491	15260
917.603	15298
917.715	15363
917.826	15454
917.938	15241
918.049	15169
918.161	15317
918.272	15405
918.384	15393
918.495	15264
918.606	15127
918.717	14998
918.828	15157
918.939	15135
919.05	14933
919.161	15070
919.272	14857
919.383	14876
919.494	15173
919.604	15275
919.715	14990
919.826	14979
919.936	14952
920.047	15009
920.157	14994
920.267	15127
920.378	15100
920.488	15055
920.598	15146
920.708	15340
920.818	15214
920.928	15157
921.038	15298
921.148	15138
921.258	14933
921.368	14849
921.477	14826
921.587	14765
921.697	14636
921.806	14804
921.916	14552
922.025	14381
922.134	14412
922.244	14370
922.353	14286
922.462	14275
922.571	14183
922.68	14084
922.789	13959
922.898	14046
923.007	13967
923.116	14081
923.224	13940
923.333	13974
923.442	13890
923.55	13837
923.659	13887
923.767	13871
923.876	13772
923.984	13704
924.092	13666
924.201	13845
924.309	13746
924.417	13746
924.525	13727
924.633	13723
924.741	14480
924.849	13411
924.956	13495
925.064	13445
925.172	13301
925.279	13354
925.387	13434
925.494	13369
925.602	13487
925.709	13392
925.816	13358
925.924	13400
926.031	13430
926.138	13468
926.245	13278
926.352	13198
926.459	13358
926.566	13346
926.673	13206
926.779	13110
926.886	13126
926.993	12928
927.099	12954
927.206	12958
927.312	12863
927.419	12947
927.525	12833
927.631	13031
927.737	12840
927.843	12867
927.95	12745
928.056	12734
928.162	12787
928.267	12749
928.373	13373
928.479	12745
928.585	12498
928.69	12612
928.796	12654
928.901	12642
929.007	12582
929.112	12589
929.218	12540
929.323	12536
929.428	12426
929.533	12544
929.638	12403
929.743	12346
929.848	12414
929.953	12418
930.058	12235
930.163	12117
930.267	12110
930.372	12300
930.477	12140
930.581	12323
930.685	12197
930.79	11973
930.894	12038
930.998	11984
931.103	12026
931.207	11680
931.311	11676
931.415	11661
931.519	11372
931.623	11383
