Data from test_V78500241_1449.txt Node
Date: Fri Mar 25 15:51:50 CST 2022
User: usil
Spectrometer: V785-0024
Trigger mode: 0
Integration Time (sec): 4.000000E-1
Scans to average: 1
Nonlinearity correction enabled: false
Boxcar width: 0
Storing dark spectrum: false
XAxis mode: Wavelengths
Number of Pixels in Spectrum: 1024
>>>>>Begin Spectral Data<<<<<
801.071	28641
801.214	28497
801.356	28314
801.499	28204
801.641	28306
801.783	28013
801.926	28048
802.068	28162
802.211	27972
802.353	28010
802.496	27835
802.638	27895
802.78	27739
802.923	27656
803.065	27557
803.208	27808
803.35	27797
803.492	27907
803.635	28067
803.777	27899
803.919	27979
804.061	28246
804.204	28101
804.346	27949
804.488	27892
804.63	28135
804.773	27899
804.915	28025
805.057	28234
805.199	27884
805.341	27991
805.483	28230
805.626	28196
805.768	28185
805.91	28173
806.052	28177
806.194	28040
806.336	28230
806.478	28215
806.62	28131
806.762	28280
806.904	28474
807.046	28660
807.188	28516
807.33	28588
807.472	28759
807.614	28565
807.756	28557
807.898	28512
808.04	28466
808.182	28386
808.324	28504
808.465	28588
808.607	28801
808.749	28835
808.891	28843
809.033	28927
809.174	28752
809.316	28835
809.458	28805
809.6	28763
809.741	28888
809.883	28972
810.025	29178
810.166	29258
810.308	29121
810.45	29083
810.591	28908
810.733	28862
810.875	28843
811.016	28607
811.158	28782
811.299	29083
811.441	29029
811.582	29079
811.724	28961
811.865	28839
812.007	28717
812.148	28831
812.29	28888
812.431	29014
812.573	29204
812.714	29288
812.855	29356
812.997	29459
813.138	29642
813.279	29505
813.421	29436
813.562	29200
813.703	29315
813.845	28949
813.986	28664
814.127	28615
814.268	28462
814.41	28561
814.551	28611
814.692	28573
814.833	28519
814.974	28542
815.115	28592
815.256	28443
815.397	28375
815.539	28428
815.68	28371
815.821	28333
815.962	28447
816.103	28356
816.244	28276
816.385	28139
816.526	28211
816.666	27914
816.807	27660
816.948	27884
817.089	27892
817.23	27861
817.371	27880
817.512	27793
817.653	27926
817.793	27880
817.934	27907
818.075	27934
818.216	27846
818.356	27846
818.497	27755
818.638	27629
818.778	27557
818.919	27587
819.06	27614
819.2	27732
819.341	27739
819.481	27831
819.622	27922
819.762	28196
819.903	27968
820.043	28109
820.184	27956
820.324	27918
820.465	28067
820.605	27987
820.746	27857
820.886	27823
821.026	27903
821.167	27880
821.307	28044
821.447	27903
821.588	27774
821.728	27603
821.868	27606
822.008	27313
822.149	27313
822.289	27249
822.429	26979
822.569	27020
822.709	27176
822.849	26739
822.99	26815
823.13	26811
823.27	26819
823.41	26514
823.55	26583
823.69	26651
823.83	26670
823.97	26518
824.11	26450
824.25	26355
824.389	26476
824.529	26552
824.669	26465
824.809	26651
824.949	26602
825.089	26453
825.228	26587
825.368	26381
825.508	26423
825.648	26248
825.787	26431
825.927	26408
826.067	26412
826.206	26431
826.346	26431
826.485	26450
826.625	26191
826.765	26377
826.904	26587
827.044	26084
827.183	26195
827.323	25940
827.462	26221
827.601	26062
827.741	26088
827.88	26088
828.02	25894
828.159	25970
828.298	26164
828.437	26206
828.577	26020
828.716	26065
828.855	25913
828.994	25715
829.134	25742
829.273	25868
829.412	25757
829.551	25700
829.69	25693
829.829	25788
829.968	25753
830.107	25978
830.246	25635
830.385	25693
830.524	25670
830.663	25419
830.802	25514
830.941	25244
831.08	25346
831.219	25266
831.357	25377
831.496	25533
831.635	25411
831.774	25350
831.913	25339
832.051	25095
832.19	25114
832.329	25183
832.467	25050
832.606	25012
832.744	24947
832.883	24913
833.022	24867
833.16	25103
833.299	25072
833.437	25057
833.576	25221
833.714	25137
833.852	25179
833.991	25263
834.129	25137
834.267	25152
834.406	25175
834.544	25259
834.682	25076
834.821	25057
834.959	25084
835.097	25042
835.235	25194
835.373	24996
835.511	25099
835.65	24894
835.788	25000
835.926	24726
836.064	24700
836.202	24726
836.34	24890
836.478	25023
836.615	24844
836.753	25000
836.891	24886
837.029	24882
837.167	24947
837.305	24814
837.443	24772
837.58	24886
837.718	24802
837.856	24783
837.993	24555
838.131	24665
838.269	24521
838.406	24604
838.544	24517
838.681	24300
838.819	24429
838.956	24209
839.094	24357
839.231	24281
839.369	24357
839.506	24578
839.643	24380
839.781	24292
839.918	24076
840.055	24205
840.193	24277
840.33	24194
840.467	24171
840.604	24171
840.742	24289
840.879	23859
841.016	23965
841.153	24057
841.29	24213
841.427	24140
841.564	24129
841.701	24152
841.838	24034
841.975	24030
842.112	23984
842.249	23832
842.385	23802
842.522	24079
842.659	23904
842.796	23946
842.933	23901
843.069	23783
843.206	23813
843.343	23973
843.479	23939
843.616	23851
843.752	23627
843.889	23596
844.025	23783
844.162	23623
844.298	23752
844.435	23543
844.571	23646
844.708	23699
844.844	23908
844.98	23786
845.117	23668
845.253	23710
845.389	23501
845.525	23471
845.661	23410
845.798	23353
845.934	23516
846.07	23376
846.206	23402
846.342	23368
846.478	23379
846.614	23136
846.75	22976
846.886	23079
847.022	23162
847.158	23033
847.294	23128
847.429	23060
847.565	23064
847.701	23311
847.837	22755
847.972	22778
848.108	23003
848.244	22812
848.379	22729
848.515	22748
848.65	22645
848.786	22607
848.921	22755
849.057	22919
849.192	22767
849.328	22752
849.463	22672
849.598	22637
849.734	22577
849.869	22565
850.004	22603
850.14	22535
850.275	22493
850.41	22341
850.545	22398
850.68	22485
850.815	22424
850.95	22447
851.085	22622
851.22	22546
851.355	22394
851.49	22390
851.625	22409
851.76	22500
851.895	22352
852.03	22390
852.165	22497
852.299	22523
852.434	22455
852.569	22493
852.703	22455
852.838	22580
852.973	22497
853.107	22500
853.242	22421
853.376	22287
853.511	22120
853.645	22192
853.78	22363
853.914	22325
854.048	22162
854.183	22230
854.317	22291
854.451	22489
854.585	22177
854.72	22215
854.854	22398
854.988	22192
855.122	22314
855.256	22204
855.39	22162
855.524	22322
855.658	22337
855.792	22177
855.926	22352
856.06	22310
856.194	22409
856.327	22158
856.461	22204
856.595	22044
856.729	22070
856.862	22291
856.996	22207
857.13	22226
857.263	22265
857.397	22223
857.53	22295
857.664	22280
857.797	22219
857.931	22440
858.064	22280
858.197	22131
858.331	22204
858.464	22276
858.597	22101
858.731	22219
858.864	22166
858.997	22192
859.13	22299
859.263	22337
859.396	22287
859.529	22226
859.662	22192
859.795	22120
859.928	22230
860.061	22356
860.194	22470
860.327	22268
860.46	22299
860.592	22363
860.725	22451
860.858	22421
860.99	22306
861.123	22215
861.256	22147
861.388	22348
861.521	23041
861.653	22131
861.786	22029
861.918	22147
862.05	22135
862.183	22226
862.315	22181
862.447	22188
862.58	22207
862.712	21994
862.844	21968
862.976	22044
863.108	22013
863.24	22322
863.372	21899
863.504	21899
863.636	21873
863.768	21918
863.9	21979
864.032	21922
864.164	21949
864.296	21926
864.428	22013
864.559	22029
864.691	22006
864.823	21949
864.954	21930
865.086	21979
865.217	21854
865.349	21850
865.48	21838
865.612	21873
865.743	21903
865.875	22032
866.006	21686
866.137	21888
866.269	21717
866.4	21816
866.531	21675
866.662	21652
866.793	21808
866.924	21865
867.055	21778
867.186	21816
867.317	21804
867.448	21686
867.579	21747
867.71	21686
867.841	21671
867.972	21663
868.103	21682
868.233	21873
868.364	21728
868.495	21888
868.625	22021
868.756	22128
868.886	21842
869.017	22006
869.147	22112
869.278	22158
869.408	22017
869.539	22070
869.669	21956
869.799	21983
869.929	22173
870.06	22207
870.19	22337
870.32	22287
870.45	22257
870.58	22314
870.71	22504
870.84	22500
870.97	22455
871.1	22329
871.23	22592
871.36	22618
871.489	22474
871.619	22626
871.749	22580
871.879	22687
872.008	22816
872.138	22637
872.267	22645
872.397	22584
872.526	22428
872.656	22550
872.785	22386
872.915	22675
873.044	22577
873.173	22645
873.303	22736
873.432	22554
873.561	22603
873.69	22736
873.819	22706
873.948	22618
874.077	22733
874.206	22641
874.335	22683
874.464	22637
874.593	22717
874.722	22812
874.851	22904
874.979	22946
875.108	22938
875.237	22831
875.365	22866
875.494	22881
875.623	22801
875.751	22816
875.88	22866
876.008	22980
876.136	23029
876.265	23345
876.393	23330
876.521	23254
876.65	23436
876.778	23318
876.906	23170
877.034	23223
877.162	23155
877.29	23132
877.418	23052
877.546	23288
877.674	23170
877.802	23136
877.93	23261
878.058	23132
878.185	23056
878.313	23124
878.441	23220
878.568	23037
878.696	23197
878.824	23307
878.951	23239
879.079	23406
879.206	23478
879.333	23383
879.461	23159
879.588	23284
879.715	23311
879.842	23429
879.97	23246
880.097	23162
880.224	23044
880.351	22987
880.478	23048
880.605	23037
880.732	23060
880.859	23200
880.986	23014
881.112	23029
881.239	22908
881.366	22694
881.493	22668
881.619	22557
881.746	22588
881.872	22653
881.999	22550
882.125	22569
882.252	22645
882.378	22538
882.505	22812
882.631	22493
882.757	22265
882.883	22322
883.01	22265
883.136	22238
883.262	22120
883.388	22166
883.514	22185
883.64	22356
883.766	22226
883.892	21892
884.018	22082
884.143	22249
884.269	22246
884.395	21915
884.52	21960
884.646	21880
884.772	21835
884.897	21778
885.023	21876
885.148	21964
885.274	22063
885.399	21941
885.524	21956
885.65	21926
885.775	21808
885.9	21876
886.025	21979
886.15	22044
886.275	21823
886.4	21766
886.525	21930
886.65	21831
886.775	21793
886.9	21911
887.025	22101
887.149	21960
887.274	21694
887.399	21610
887.523	21698
887.648	21812
887.773	21595
887.897	21770
888.021	21743
888.146	21690
888.27	21675
888.395	21671
888.519	21629
888.643	21774
888.767	21755
888.891	21534
889.015	21504
889.139	21686
889.263	21492
889.387	21523
889.511	21694
889.635	21625
889.759	21363
889.883	21416
890.006	21348
890.13	21447
890.254	21378
890.377	21329
890.501	21142
890.624	21283
890.748	21249
890.871	21047
890.995	20963
891.118	20735
891.241	20842
891.364	20861
891.488	21173
891.611	20941
891.734	21062
891.857	21066
891.98	21039
892.103	21001
892.226	20979
892.349	20910
892.471	20773
892.594	20811
892.717	20891
892.839	20895
892.962	20842
893.085	20986
893.207	20944
893.33	20830
893.452	20750
893.575	21005
893.697	20849
893.819	21017
893.941	21154
894.064	21047
894.186	20819
894.308	20857
894.43	20914
894.552	20963
894.674	21043
894.796	20724
894.918	20918
895.04	20762
895.161	20838
895.283	20899
895.405	20769
895.526	20796
895.648	20823
895.769	20891
895.891	20952
896.012	20861
896.134	20967
896.255	20963
896.376	20864
896.498	20925
896.619	20838
896.74	20910
896.861	20948
896.982	21123
897.103	21230
897.224	21173
897.345	21039
897.466	21055
897.587	21058
897.708	21104
897.828	21043
897.949	21062
898.07	20883
898.19	20899
898.311	21138
898.431	20956
898.552	21085
898.672	21070
898.792	21051
898.913	21062
899.033	21047
899.153	20777
899.273	20838
899.393	20785
899.513	20792
899.633	20872
899.753	20792
899.873	20739
899.993	20804
900.113	20743
900.232	20781
900.352	20674
900.472	20632
900.591	20454
900.711	20564
900.83	20636
900.95	20762
901.069	20594
901.189	20526
901.308	20301
901.427	20199
901.546	20187
901.665	20081
901.784	20164
901.904	19989
902.023	19906
902.141	19772
902.26	19628
902.379	19719
902.498	19685
902.617	19613
902.735	19609
902.854	19643
902.973	19681
903.091	19335
903.21	19339
903.328	19297
903.446	19244
903.565	19133
903.683	19141
903.801	19019
903.919	19008
904.038	19076
904.156	18935
904.274	19061
904.392	18928
904.51	18894
904.627	18806
904.745	18913
904.863	18833
904.981	18738
905.098	18506
905.216	18631
905.334	18471
905.451	18620
905.569	18521
905.686	18536
905.803	18570
905.921	18437
906.038	18422
906.155	18448
906.272	18205
906.389	18277
906.506	18041
906.623	18053
906.74	18057
906.857	17969
906.974	17988
907.091	18072
907.208	18152
907.324	18110
907.441	17927
907.557	17821
907.674	17775
907.79	17600
907.907	17809
908.023	17695
908.139	17859
908.256	17619
908.372	17653
908.488	17604
908.604	17471
908.72	17539
908.836	17482
908.952	17436
909.068	17524
909.184	17532
909.3	17558
909.415	17482
909.531	17459
909.647	17246
909.762	17181
909.878	17151
909.993	17174
910.108	17143
910.224	17124
910.339	17094
910.454	17105
910.57	16991
910.685	16869
910.8	17254
910.915	17052
911.03	16896
911.145	16839
911.259	16767
911.374	16759
911.489	16626
911.604	16694
911.718	16561
911.833	16504
911.947	16489
912.062	16265
912.176	16489
912.291	16618
912.405	16592
912.519	16687
912.633	16687
912.748	16596
912.862	16443
912.976	16371
913.09	16310
913.204	16249
913.318	16246
913.431	16390
913.545	16424
913.659	16527
913.772	16246
913.886	16162
914	16162
914.113	16143
914.226	16230
914.34	16154
914.453	15987
914.566	16150
914.68	16082
914.793	16006
914.906	15816
915.019	15736
915.132	15709
915.245	15717
915.358	15831
915.47	15762
915.583	15660
915.696	15766
915.809	15816
915.921	15842
916.034	15690
916.146	15523
916.259	15526
916.371	15736
916.483	15591
916.595	15542
916.708	15595
916.82	15473
916.932	15473
917.044	15469
917.156	15405
917.268	15317
917.38	15386
917.491	15260
917.603	15310
917.715	15344
917.826	15473
917.938	15264
918.049	15173
918.161	15279
918.272	15363
918.384	15321
918.495	15264
918.606	15043
918.717	15017
918.828	15077
918.939	15131
919.05	14918
919.161	15036
919.272	14883
919.383	14876
919.494	15127
919.604	15268
919.715	15066
919.826	14963
919.936	14994
920.047	15070
920.157	15028
920.267	15161
920.378	14982
920.488	15032
920.598	15214
920.708	15291
920.818	15230
920.928	15218
921.038	15203
921.148	15268
921.258	15051
921.368	14906
921.477	14773
921.587	14720
921.697	14629
921.806	14785
921.916	14743
922.025	14457
922.134	14374
922.244	14495
922.353	14473
922.462	14225
922.571	14237
922.68	14058
922.789	14020
922.898	14016
923.007	13982
923.116	14008
923.224	14005
923.333	13947
923.442	13864
923.55	13864
923.659	13913
923.767	13909
923.876	13776
923.984	13997
924.092	13803
924.201	13818
924.309	13738
924.417	13712
924.525	13639
924.633	13693
924.741	14457
924.849	13495
924.956	13563
925.064	13422
925.172	13388
925.279	13441
925.387	13419
925.494	13457
925.602	13472
925.709	13388
925.816	13228
925.924	13316
926.031	13407
926.138	13316
926.245	13373
926.352	13304
926.459	13350
926.566	13422
926.673	13350
926.779	13297
926.886	13126
926.993	12993
927.099	13008
927.206	12890
927.312	12856
927.419	13076
927.525	12935
927.631	12901
927.737	12852
927.843	12810
927.95	12722
928.056	12768
928.162	12753
928.267	12741
928.373	13514
928.479	12810
928.585	12585
928.69	12741
928.796	12840
928.901	12551
929.007	12544
929.112	12734
929.218	12604
929.323	12486
929.428	12433
929.533	12631
929.638	12270
929.743	12464
929.848	12464
929.953	12414
930.058	12346
930.163	12083
930.267	12186
930.372	12289
930.477	12163
930.581	12372
930.685	12167
930.79	11980
930.894	11980
930.998	12095
931.103	12262
931.207	11756
931.311	11615
931.415	11596
931.519	11429
931.623	11391
