Data from test_V78500241_2561.txt Node
Date: Fri Mar 25 15:59:32 CST 2022
User: usil
Spectrometer: V785-0024
Trigger mode: 0
Integration Time (sec): 4.000000E-1
Scans to average: 1
Nonlinearity correction enabled: false
Boxcar width: 0
Storing dark spectrum: false
XAxis mode: Wavelengths
Number of Pixels in Spectrum: 1024
>>>>>Begin Spectral Data<<<<<
801.071	28862
801.214	28615
801.356	28649
801.499	28706
801.641	28485
801.783	28417
801.926	28474
802.068	28390
802.211	28246
802.353	28303
802.496	28135
802.638	28112
802.78	28207
802.923	28048
803.065	28048
803.208	27892
803.35	28120
803.492	28306
803.635	28280
803.777	28276
803.919	28344
804.061	28656
804.204	28462
804.346	28234
804.488	28223
804.63	28299
804.773	28280
804.915	28257
805.057	28523
805.199	28325
805.341	28390
805.483	28401
805.626	28394
805.768	28386
805.91	28485
806.052	28580
806.194	28462
806.336	28713
806.478	28489
806.62	28546
806.762	28504
806.904	28797
807.046	29037
807.188	28812
807.33	28885
807.472	28930
807.614	28771
807.756	28831
807.898	28839
808.04	28698
808.182	28729
808.324	28729
808.465	28752
808.607	29056
808.749	29220
808.891	29235
809.033	29391
809.174	29303
809.316	29235
809.458	29121
809.6	29048
809.741	29360
809.883	29326
810.025	29608
810.166	29543
810.308	29459
810.45	29520
810.591	29220
810.733	29197
810.875	29246
811.016	29212
811.158	29140
811.299	29197
811.441	29341
811.582	29326
811.724	29242
811.865	29090
812.007	29113
812.148	29261
812.29	29147
812.431	29402
812.573	29543
812.714	29471
812.855	29684
812.997	29889
813.138	29939
813.279	29885
813.421	29649
813.562	29566
813.703	29604
813.845	29459
813.986	29227
814.127	29037
814.268	28999
814.41	28957
814.551	28831
814.692	29056
814.833	28835
814.974	28805
815.115	29014
815.256	28866
815.397	28847
815.539	28816
815.68	28653
815.821	28615
815.962	28725
816.103	28774
816.244	28622
816.385	28569
816.526	28459
816.666	28306
816.807	28246
816.948	28181
817.089	28257
817.23	28105
817.371	28348
817.512	28162
817.653	28051
817.793	28074
817.934	28265
818.075	28303
818.216	28303
818.356	28249
818.497	28154
818.638	27857
818.778	27899
818.919	28040
819.06	28082
819.2	28177
819.341	28150
819.481	28253
819.622	28356
819.762	28607
819.903	28603
820.043	28527
820.184	28363
820.324	28333
820.465	28306
820.605	28394
820.746	28314
820.886	28177
821.026	28223
821.167	28318
821.307	28367
821.447	28348
821.588	28135
821.728	27960
821.868	27857
822.008	27660
822.149	27717
822.289	27717
822.429	27580
822.569	27466
822.709	27302
822.849	27302
822.99	27329
823.13	27127
823.27	27203
823.41	26979
823.55	26823
823.69	27089
823.83	27066
823.97	27058
824.11	26800
824.25	26796
824.389	26891
824.529	26967
824.669	26998
824.809	27081
824.949	26925
825.089	26929
825.228	26899
825.368	26727
825.508	26746
825.648	26864
825.787	26899
825.927	26853
826.067	26902
826.206	26815
826.346	26960
826.485	26830
826.625	26849
826.765	26826
826.904	26727
827.044	26697
827.183	26571
827.323	26404
827.462	26613
827.601	26571
827.741	26545
827.88	26507
828.02	26431
828.159	26351
828.298	26575
828.437	26625
828.577	26473
828.716	26629
828.855	26389
828.994	26271
829.134	26214
829.273	26218
829.412	26294
829.551	26046
829.69	26240
829.829	26275
829.968	26240
830.107	26214
830.246	26256
830.385	26054
830.524	26062
830.663	25997
830.802	25966
830.941	25772
831.08	25708
831.219	25791
831.357	25799
831.496	26024
831.635	25780
831.774	25742
831.913	25685
832.051	25685
832.19	25537
832.329	25422
832.467	25533
832.606	25343
832.744	25445
832.883	25388
833.022	25392
833.16	25495
833.299	25518
833.437	25400
833.576	25499
833.714	25609
833.852	25586
833.991	25635
834.129	25601
834.267	25586
834.406	25537
834.544	25540
834.682	25578
834.821	25514
834.959	25655
835.097	25426
835.235	25525
835.373	25510
835.511	25457
835.65	25331
835.788	25384
835.926	25206
836.064	25133
836.202	25118
836.34	25460
836.478	25445
836.615	25373
836.753	25308
836.891	25521
837.029	25278
837.167	25179
837.305	25251
837.443	25084
837.58	25057
837.718	25217
837.856	25133
837.993	25057
838.131	25202
838.269	25084
838.406	25088
838.544	24901
838.681	24867
838.819	24768
838.956	24601
839.094	24601
839.231	24821
839.369	24779
839.506	25034
839.643	24928
839.781	24719
839.918	24528
840.055	24661
840.193	24570
840.33	24505
840.467	24665
840.604	24627
840.742	24867
840.879	24467
841.016	24471
841.153	24376
841.29	24551
841.427	24494
841.564	24566
841.701	24471
841.838	24502
841.975	24437
842.112	24486
842.249	24338
842.385	24171
842.522	24494
842.659	24251
842.796	24334
842.933	24205
843.069	24254
843.206	24239
843.343	24361
843.479	24262
843.616	24209
843.752	24117
843.889	24057
844.025	24068
844.162	24106
844.298	24136
844.435	24038
844.571	24106
844.708	24155
844.844	24190
844.98	24239
845.117	24194
845.253	23973
845.389	23984
845.525	23916
845.661	23885
845.798	23805
845.934	23870
846.07	23737
846.206	23866
846.342	23912
846.478	23775
846.614	23547
846.75	23535
846.886	23459
847.022	23539
847.158	23604
847.294	23539
847.429	23463
847.565	23497
847.701	23703
847.837	23216
847.972	23193
848.108	23440
848.244	23360
848.379	23083
848.515	23178
848.65	23010
848.786	23189
848.921	23044
849.057	23143
849.192	23075
849.328	23109
849.463	23090
849.598	23071
849.734	22949
849.869	22869
850.004	22839
850.14	22957
850.275	23003
850.41	22809
850.545	22713
850.68	22812
850.815	22843
850.95	22881
851.085	23025
851.22	22835
851.355	22858
851.49	22809
851.625	22824
851.76	22972
851.895	22755
852.03	22717
852.165	22835
852.299	22835
852.434	23025
852.569	22946
852.703	22866
852.838	23010
852.973	23067
853.107	22831
853.242	22786
853.376	22656
853.511	22615
853.645	22645
853.78	22767
853.914	22656
854.048	22675
854.183	22771
854.317	22740
854.451	22839
854.585	22736
854.72	22626
854.854	22645
854.988	22565
855.122	22603
855.256	22706
855.39	22577
855.524	22790
855.658	22740
855.792	22729
855.926	22755
856.06	22805
856.194	22782
856.327	22713
856.461	22584
856.595	22634
856.729	22557
856.862	22713
856.996	22622
857.13	22767
857.263	22698
857.397	22683
857.53	22660
857.664	22763
857.797	22706
857.931	22778
858.064	22759
858.197	22759
858.331	22592
858.464	22516
858.597	22679
858.731	22683
858.864	22603
858.997	22664
859.13	22478
859.263	22687
859.396	22740
859.529	22656
859.662	22474
859.795	22634
859.928	22660
860.061	22771
860.194	22816
860.327	22740
860.46	22683
860.592	22744
860.725	22679
860.858	22961
860.99	22538
861.123	22622
861.256	22611
861.388	22607
861.521	23421
861.653	22626
861.786	22344
861.918	22557
862.05	22725
862.183	22561
862.315	22702
862.447	22645
862.58	22557
862.712	22462
862.844	22306
862.976	22382
863.108	22451
863.24	22885
863.372	22348
863.504	22485
863.636	22409
863.768	22375
863.9	22443
864.032	22375
864.164	22459
864.296	22348
864.428	22451
864.559	22447
864.691	22398
864.823	22363
864.954	22276
865.086	22367
865.217	22238
865.349	22246
865.48	22177
865.612	22375
865.743	22291
865.875	22295
866.006	22291
866.137	22230
866.269	22265
866.4	22223
866.531	22090
866.662	22120
866.793	22116
866.924	22200
867.055	22196
867.186	22025
867.317	22280
867.448	22097
867.579	22078
867.71	22070
867.841	22188
867.972	22173
868.103	22097
868.233	22196
868.364	22143
868.495	22325
868.625	22405
868.756	22531
868.886	22390
869.017	22436
869.147	22462
869.278	22592
869.408	22512
869.539	22504
869.669	22451
869.799	22447
869.929	22523
870.06	22459
870.19	22790
870.32	22603
870.45	22740
870.58	22801
870.71	22953
870.84	22763
870.97	22908
871.1	22790
871.23	22995
871.36	22995
871.489	22911
871.619	23052
871.749	23029
871.879	23029
872.008	23162
872.138	23067
872.267	23143
872.397	22968
872.526	22873
872.656	22892
872.785	22812
872.915	23105
873.044	23178
873.173	23098
873.303	23124
873.432	23029
873.561	23216
873.69	23052
873.819	22991
873.948	23200
874.077	22923
874.206	22984
874.335	22999
874.464	23136
874.593	23269
874.722	23136
874.851	23261
874.979	23235
875.108	23288
875.237	23185
875.365	23181
875.494	23181
875.623	23250
875.751	23159
875.88	23341
876.008	23414
876.136	23425
876.265	23634
876.393	23863
876.521	23646
876.65	23604
876.778	23665
876.906	23535
877.034	23573
877.162	23581
877.29	23474
877.418	23619
877.546	23657
877.674	23600
877.802	23528
877.93	23554
878.058	23680
878.185	23364
878.313	23551
878.441	23547
878.568	23326
878.696	23551
878.824	23524
878.951	23570
879.079	23813
879.206	23927
879.333	23714
879.461	23528
879.588	23600
879.715	23775
879.842	23950
879.97	23627
880.097	23383
880.224	23387
880.351	23490
880.478	23482
880.605	23353
880.732	23486
880.859	23524
880.986	23448
881.112	23448
881.239	23151
881.366	23136
881.493	23079
881.619	23010
881.746	22995
881.872	22923
881.999	23033
882.125	22885
882.252	22934
882.378	22942
882.505	23071
882.631	22831
882.757	22626
882.883	22702
883.01	22622
883.136	22622
883.262	22485
883.388	22546
883.514	22596
883.64	22607
883.766	22596
883.892	22356
884.018	22299
884.143	22607
884.269	22664
884.395	22386
884.52	22280
884.646	22280
884.772	22333
884.897	22139
885.023	22341
885.148	22287
885.274	22493
885.399	22382
885.524	22268
885.65	22219
885.775	22375
885.9	22181
886.025	22424
886.15	22299
886.275	22234
886.4	22230
886.525	22352
886.65	22063
886.775	22150
886.9	22337
887.025	22295
887.149	22276
887.274	22044
887.399	22021
887.523	22006
887.648	22010
887.773	21960
887.897	22055
888.021	21972
888.146	21888
888.27	22109
888.395	22067
888.519	22070
888.643	22036
888.767	22010
888.891	21956
889.015	21983
889.139	21907
889.263	21724
889.387	21884
889.511	22040
889.635	21892
889.759	21778
889.883	21713
890.006	21660
890.13	21850
890.254	21751
890.377	21705
890.501	21606
890.624	21462
890.748	21610
890.871	21416
890.995	21450
891.118	21237
891.241	21378
891.364	21393
891.488	21424
891.611	21355
891.734	21344
891.857	21447
891.98	21291
892.103	21325
892.226	21351
892.349	21279
892.471	21260
892.594	21260
892.717	21294
892.839	21199
892.962	21279
893.085	21317
893.207	21283
893.33	21127
893.452	21245
893.575	21252
893.697	21161
893.819	21279
893.941	21401
894.064	21329
894.186	21173
894.308	21241
894.43	21401
894.552	21424
894.674	21237
894.796	21123
894.918	21218
895.04	21237
895.161	21233
895.283	21306
895.405	21142
895.526	21310
895.648	21211
895.769	21287
895.891	21157
896.012	21138
896.134	21321
896.255	21176
896.376	21116
896.498	21237
896.619	21241
896.74	21112
896.861	21230
896.982	21519
897.103	21641
897.224	21519
897.345	21519
897.466	21378
897.587	21477
897.708	21576
897.828	21549
897.949	21389
898.07	21306
898.19	21214
898.311	21405
898.431	21302
898.552	21447
898.672	21557
898.792	21439
898.913	21397
899.033	21420
899.153	21112
899.273	21173
899.393	21039
899.513	21226
899.633	21096
899.753	21108
899.873	21184
899.993	21184
900.113	21161
900.232	21127
900.352	21070
900.472	20998
900.591	20887
900.711	20986
900.83	20830
900.95	20952
901.069	20979
901.189	20807
901.308	20598
901.427	20507
901.546	20480
901.665	20442
901.784	20518
901.904	20377
902.023	20172
902.141	20043
902.26	19967
902.379	20096
902.498	19963
902.617	19909
902.735	20119
902.854	20043
902.973	19799
903.091	19662
903.21	19693
903.328	19582
903.446	19480
903.565	19419
903.683	19392
903.801	19422
903.919	19430
904.038	19327
904.156	19164
904.274	19213
904.392	19156
904.51	19187
904.627	19168
904.745	19217
904.863	19301
904.981	18947
905.098	18913
905.216	18859
905.334	18863
905.451	18844
905.569	18878
905.686	18878
905.803	18791
905.921	18639
906.038	18871
906.155	18601
906.272	18521
906.389	18658
906.506	18456
906.623	18357
906.74	18414
906.857	18194
906.974	18197
907.091	18467
907.208	18475
907.324	18410
907.441	18304
907.557	18167
907.674	18076
907.79	17961
907.907	18133
908.023	18159
908.139	18114
908.256	17977
908.372	17961
908.488	17935
908.604	17767
908.72	17733
908.836	17752
908.952	17764
909.068	17870
909.184	17824
909.3	17733
909.415	17836
909.531	17786
909.647	17547
909.762	17436
909.878	17383
909.993	17452
910.108	17360
910.224	17444
910.339	17501
910.454	17368
910.57	17277
910.685	17246
910.8	17414
910.915	17406
911.03	17265
911.145	17117
911.259	17075
911.374	17067
911.489	16991
911.604	16892
911.718	16778
911.833	16801
911.947	16615
912.062	16679
912.176	16702
912.291	16786
912.405	16862
912.519	17014
912.633	17094
912.748	16828
912.862	16801
912.976	16603
913.09	16546
913.204	16588
913.318	16569
913.431	16713
913.545	16679
913.659	16790
913.772	16577
913.886	16371
914	16428
914.113	16447
914.226	16485
914.34	16481
914.453	16272
914.566	16299
914.68	16287
914.793	16230
914.906	16105
915.019	15934
915.132	15869
915.245	15922
915.358	16059
915.47	15991
915.583	15975
915.696	16021
915.809	16101
915.921	16207
916.034	15941
916.146	15865
916.259	15865
916.371	15823
916.483	15960
916.595	15641
916.708	15816
916.82	15823
916.932	15694
917.044	15774
917.156	15663
917.268	15542
917.38	15732
917.491	15614
917.603	15641
917.715	15720
917.826	15591
917.938	15492
918.049	15542
918.161	15542
918.272	15675
918.384	15641
918.495	15523
918.606	15348
918.717	15233
918.828	15321
918.939	15313
919.05	15268
919.161	15275
919.272	15123
919.383	15135
919.494	15370
919.604	15625
919.715	15226
919.826	15241
919.936	15249
920.047	15382
920.157	15256
920.267	15435
920.378	15298
920.488	15226
920.598	15496
920.708	15591
920.818	15462
920.928	15424
921.038	15610
921.148	15564
921.258	15260
921.368	15203
921.477	14990
921.587	14960
921.697	14929
921.806	14990
921.916	14815
922.025	14701
922.134	14640
922.244	14549
922.353	14640
922.462	14549
922.571	14484
922.68	14294
922.789	14385
922.898	14263
923.007	14259
923.116	14347
923.224	14244
923.333	14278
923.442	14084
923.55	14069
923.659	14084
923.767	14153
923.876	14016
923.984	14126
924.092	13955
924.201	13947
924.309	13982
924.417	13963
924.525	13928
924.633	13955
924.741	14906
924.849	13807
924.956	13788
925.064	13719
925.172	13567
925.279	13628
925.387	13639
925.494	13677
925.602	13734
925.709	13609
925.816	13548
925.924	13586
926.031	13613
926.138	13556
926.245	13590
926.352	13453
926.459	13670
926.566	13605
926.673	13537
926.779	13426
926.886	13377
926.993	13266
927.099	13285
927.206	13206
927.312	13187
927.419	13217
927.525	13145
927.631	13228
927.737	13122
927.843	12993
927.95	12920
928.056	12989
928.162	12977
928.267	13031
928.373	13491
928.479	13069
928.585	12787
928.69	12935
928.796	12939
928.901	12886
929.007	12749
929.112	12856
929.218	12806
929.323	12753
929.428	12707
929.533	12791
929.638	12707
929.743	12665
929.848	12772
929.953	12635
930.058	12559
930.163	12277
930.267	12456
930.372	12555
930.477	12334
930.581	12551
930.685	12391
930.79	12232
930.894	12292
930.998	12277
931.103	12338
931.207	11992
931.311	11851
931.415	11855
931.519	11604
931.623	11615
