Data from test_V78500241_295.txt Node
Date: Fri Mar 25 15:43:50 CST 2022
User: usil
Spectrometer: V785-0024
Trigger mode: 0
Integration Time (sec): 4.000000E-1
Scans to average: 1
Nonlinearity correction enabled: false
Boxcar width: 0
Storing dark spectrum: false
XAxis mode: Wavelengths
Number of Pixels in Spectrum: 1024
>>>>>Begin Spectral Data<<<<<
801.071	29292
801.214	29280
801.356	28934
801.499	29044
801.641	28805
801.783	29033
801.926	28930
802.068	28691
802.211	28763
802.353	28721
802.496	28725
802.638	28546
802.78	28470
802.923	28478
803.065	28291
803.208	28447
803.35	28497
803.492	28698
803.635	28653
803.777	28512
803.919	28717
804.061	28995
804.204	28645
804.346	28603
804.488	28493
804.63	28577
804.773	28504
804.915	28596
805.057	28672
805.199	28653
805.341	28656
805.483	28816
805.626	28630
805.768	28656
805.91	28729
806.052	28790
806.194	28649
806.336	28984
806.478	28744
806.62	28759
806.762	28911
806.904	29102
807.046	29189
807.188	29254
807.33	29208
807.472	29273
807.614	29136
807.756	29010
807.898	29102
808.04	28980
808.182	28885
808.324	29041
808.465	29022
808.607	29265
808.749	29341
808.891	29501
809.033	29421
809.174	29322
809.316	29482
809.458	29364
809.6	29254
809.741	29326
809.883	29573
810.025	29707
810.166	29695
810.308	29657
810.45	29608
810.591	29547
810.733	29379
810.875	29334
811.016	29280
811.158	29265
811.299	29512
811.441	29512
811.582	29539
811.724	29543
811.865	29341
812.007	29220
812.148	29273
812.29	29433
812.431	29570
812.573	29649
812.714	29836
812.855	29851
812.997	29851
813.138	29988
813.279	29897
813.421	29699
813.562	29862
813.703	29676
813.845	29642
813.986	29353
814.127	29200
814.268	29056
814.41	29071
814.551	29010
814.692	29086
814.833	28843
814.974	28972
815.115	28946
815.256	28801
815.397	28675
815.539	28888
815.68	28824
815.821	28774
815.962	28801
816.103	28645
816.244	28706
816.385	28546
816.526	28481
816.666	28341
816.807	28223
816.948	28325
817.089	28314
817.23	28421
817.371	28204
817.512	28200
817.653	28196
817.793	28093
817.934	28181
818.075	28154
818.216	28230
818.356	28200
818.497	28116
818.638	27873
818.778	27949
818.919	27846
819.06	27907
819.2	27972
819.341	28166
819.481	28166
819.622	28109
819.762	28508
819.903	28394
820.043	28230
820.184	28211
820.324	28360
820.465	28443
820.605	28192
820.746	28318
820.886	28200
821.026	28173
821.167	28196
821.307	28257
821.447	28162
821.588	27975
821.728	27926
821.868	27667
822.008	27682
822.149	27675
822.289	27656
822.429	27405
822.569	27393
822.709	27397
822.849	27070
822.99	27032
823.13	27043
823.27	27096
823.41	26986
823.55	26872
823.69	26895
823.83	26876
823.97	26796
824.11	26845
824.25	26712
824.389	26659
824.529	26762
824.669	26731
824.809	26735
824.949	26792
825.089	26864
825.228	26765
825.368	26587
825.508	26533
825.648	26705
825.787	26389
825.927	26648
826.067	26549
826.206	26530
826.346	26598
826.485	26579
826.625	26533
826.765	26594
826.904	26682
827.044	26370
827.183	26301
827.323	26164
827.462	26256
827.601	26210
827.741	26145
827.88	26286
828.02	26153
828.159	26103
828.298	26275
828.437	26294
828.577	26020
828.716	26202
828.855	26088
828.994	25970
829.134	25868
829.273	26062
829.412	25906
829.551	25780
829.69	25734
829.829	25909
829.968	26054
830.107	25826
830.246	25940
830.385	25860
830.524	25674
830.663	25795
830.802	25578
830.941	25430
831.08	25502
831.219	25529
831.357	25449
831.496	25708
831.635	25457
831.774	25354
831.913	25327
832.051	25228
832.19	25160
832.329	25187
832.467	25228
832.606	25000
832.744	25114
832.883	25145
833.022	24996
833.16	25133
833.299	25110
833.437	25244
833.576	25221
833.714	25152
833.852	25278
833.991	25129
834.129	25316
834.267	25122
834.406	25160
834.544	25091
834.682	25209
834.821	24977
834.959	25301
835.097	25065
835.235	25206
835.373	25031
835.511	25118
835.65	25023
835.788	24943
835.926	24764
836.064	24703
836.202	24852
836.34	25008
836.478	24897
836.615	24909
836.753	24875
836.891	25019
837.029	24935
837.167	24776
837.305	24837
837.443	24829
837.58	24791
837.718	24909
837.856	24776
837.993	24669
838.131	24677
838.269	24661
838.406	24563
838.544	24631
838.681	24445
838.819	24334
838.956	24159
839.094	24106
839.231	24117
839.369	24346
839.506	24608
839.643	24441
839.781	24106
839.918	24148
840.055	24140
840.193	24182
840.33	24003
840.467	24098
840.604	24171
840.742	24350
840.879	24041
841.016	24068
841.153	23961
841.29	24148
841.427	23999
841.564	24129
841.701	23961
841.838	24007
841.975	23851
842.112	24076
842.249	23798
842.385	23893
842.522	24015
842.659	23996
842.796	23878
842.933	23630
843.069	23729
843.206	23687
843.343	23790
843.479	23821
843.616	23897
843.752	23524
843.889	23592
844.025	23634
844.162	23512
844.298	23577
844.435	23539
844.571	23490
844.708	23501
844.844	23646
844.98	23695
845.117	23680
845.253	23391
845.389	23231
845.525	23429
845.661	23364
845.798	23212
845.934	23410
846.07	23181
846.206	23220
846.342	23345
846.478	23151
846.614	22923
846.75	22961
846.886	22900
847.022	23037
847.158	22995
847.294	22980
847.429	23006
847.565	22949
847.701	23159
847.837	22672
847.972	22577
848.108	22828
848.244	22755
848.379	22599
848.515	22504
848.65	22440
848.786	22634
848.921	22675
849.057	22599
849.192	22573
849.328	22577
849.463	22550
849.598	22538
849.734	22405
849.869	22341
850.004	22219
850.14	22257
850.275	22344
850.41	22192
850.545	22109
850.68	22200
850.815	22318
850.95	22253
851.085	22413
851.22	22402
851.355	22325
851.49	22162
851.625	22246
851.76	22124
851.895	22109
852.03	22188
852.165	22310
852.299	22249
852.434	22276
852.569	22303
852.703	22314
852.838	22249
852.973	22379
853.107	22409
853.242	22147
853.376	22131
853.511	21934
853.645	22036
853.78	22116
853.914	22128
854.048	21880
854.183	22101
854.317	22063
854.451	22192
854.585	22055
854.72	21991
854.854	22162
854.988	21915
855.122	22078
855.256	21960
855.39	22017
855.524	22154
855.658	22120
855.792	22055
855.926	21964
856.06	22059
856.194	22128
856.327	22070
856.461	21873
856.595	21945
856.729	22150
856.862	22090
856.996	22150
857.13	22234
857.263	22215
857.397	22082
857.53	22021
857.664	22002
857.797	22120
857.931	22112
858.064	22059
858.197	22112
858.331	21861
858.464	21949
858.597	21846
858.731	22059
858.864	22093
858.997	21918
859.13	22025
859.263	22010
859.396	22135
859.529	21922
859.662	21994
859.795	22021
859.928	21991
860.061	22090
860.194	22177
860.327	22021
860.46	22013
860.592	22090
860.725	22185
860.858	21979
860.99	21918
861.123	21930
861.256	22036
861.388	22055
861.521	22687
861.653	21823
861.786	21797
861.918	21915
862.05	21827
862.183	21979
862.315	22063
862.447	22029
862.58	21979
862.712	21603
862.844	21641
862.976	21785
863.108	21793
863.24	22173
863.372	21576
863.504	21797
863.636	21698
863.768	21762
863.9	21778
864.032	21614
864.164	21603
864.296	21637
864.428	21831
864.559	21766
864.691	21724
864.823	21610
864.954	21720
865.086	21679
865.217	21713
865.349	21492
865.48	21644
865.612	21644
865.743	21694
865.875	21610
866.006	21481
866.137	21561
866.269	21431
866.4	21545
866.531	21648
866.662	21462
866.793	21504
866.924	21576
867.055	21530
867.186	21408
867.317	21454
867.448	21313
867.579	21389
867.71	21252
867.841	21431
867.972	21340
868.103	21500
868.233	21492
868.364	21447
868.495	21625
868.625	21759
868.756	21804
868.886	21641
869.017	21732
869.147	21846
869.278	21823
869.408	21690
869.539	21701
869.669	21812
869.799	21823
869.929	21854
870.06	21800
870.19	22074
870.32	22006
870.45	22078
870.58	22040
870.71	22249
870.84	22215
870.97	22013
871.1	22116
871.23	22337
871.36	22344
871.489	22226
871.619	22219
871.749	22367
871.879	22280
872.008	22394
872.138	22249
872.267	22341
872.397	22181
872.526	22158
872.656	22082
872.785	22188
872.915	22242
873.044	22413
873.173	22329
873.303	22432
873.432	22417
873.561	22455
873.69	22375
873.819	22371
873.948	22535
874.077	22398
874.206	22177
874.335	22352
874.464	22337
874.593	22603
874.722	22554
874.851	22569
874.979	22615
875.108	22763
875.237	22596
875.365	22417
875.494	22649
875.623	22580
875.751	22504
875.88	22580
876.008	22759
876.136	22641
876.265	22866
876.393	22984
876.521	23033
876.65	22953
876.778	22946
876.906	22877
877.034	23006
877.162	22984
877.29	22885
877.418	22938
877.546	23067
877.674	22896
877.802	22900
877.93	22889
878.058	22858
878.185	22797
878.313	22828
878.441	22869
878.568	22748
878.696	22919
878.824	22927
878.951	23079
879.079	23128
879.206	23162
879.333	23166
879.461	23022
879.588	23086
879.715	23064
879.842	23223
879.97	23086
880.097	22763
880.224	22733
880.351	22752
880.478	22812
880.605	22698
880.732	22767
880.859	22938
880.986	22843
881.112	22892
881.239	22500
881.366	22588
881.493	22421
881.619	22409
881.746	22325
881.872	22322
881.999	22257
882.125	22337
882.252	22207
882.378	22318
882.505	22363
882.631	22143
882.757	21960
882.883	21972
883.01	22067
883.136	21975
883.262	21869
883.388	21907
883.514	21998
883.64	22097
883.766	21842
883.892	21747
884.018	21781
884.143	21934
884.269	22036
884.395	21717
884.52	21675
884.646	21732
884.772	21504
884.897	21523
885.023	21557
885.148	21937
885.274	21835
885.399	21698
885.524	21698
885.65	21610
885.775	21701
885.9	21477
886.025	21690
886.15	21587
886.275	21606
886.4	21466
886.525	21572
886.65	21595
886.775	21504
886.9	21739
887.025	21755
887.149	21587
887.274	21458
887.399	21340
887.523	21428
887.648	21283
887.773	21348
887.897	21416
888.021	21466
888.146	21378
888.27	21443
888.395	21477
888.519	21454
888.643	21393
888.767	21359
888.891	21298
889.015	21188
889.139	21157
889.263	21142
889.387	21310
889.511	21466
889.635	21272
889.759	21180
889.883	21119
890.006	21192
890.13	21214
890.254	21180
890.377	21104
890.501	20815
890.624	20849
890.748	21009
890.871	20773
890.995	20655
891.118	20564
891.241	20861
891.364	20705
891.488	20804
891.611	20807
891.734	20686
891.857	20708
891.98	20842
892.103	20769
892.226	20823
892.349	20777
892.471	20545
892.594	20625
892.717	20686
892.839	20670
892.962	20655
893.085	20659
893.207	20632
893.33	20427
893.452	20571
893.575	20606
893.697	20625
893.819	20731
893.941	20777
894.064	20834
894.186	20602
894.308	20461
894.43	20678
894.552	20758
894.674	20689
894.796	20450
894.918	20522
895.04	20556
895.161	20701
895.283	20533
895.405	20522
895.526	20533
895.648	20530
895.769	20697
895.891	20659
896.012	20583
896.134	20606
896.255	20648
896.376	20571
896.498	20663
896.619	20735
896.74	20556
896.861	20678
896.982	21039
897.103	21146
897.224	20910
897.345	20842
897.466	20659
897.587	20861
897.708	21001
897.828	20830
897.949	20830
898.07	20625
898.19	20716
898.311	20937
898.431	20731
898.552	20815
898.672	20807
898.792	20933
898.913	20921
899.033	20716
899.153	20625
899.273	20552
899.393	20518
899.513	20522
899.633	20644
899.753	20507
899.873	20518
899.993	20556
900.113	20461
900.232	20602
900.352	20446
900.472	20336
900.591	20278
900.711	20393
900.83	20225
900.95	20370
901.069	20389
901.189	20130
901.308	19868
901.427	19894
901.546	19970
901.665	19738
901.784	19883
901.904	19837
902.023	19666
902.141	19506
902.26	19495
902.379	19506
902.498	19339
902.617	19084
902.735	19457
902.854	19346
902.973	19304
903.091	19038
903.21	18981
903.328	18993
903.446	18943
903.565	18837
903.683	18772
903.801	18715
903.919	18863
904.038	18844
904.156	18608
904.274	18608
904.392	18536
904.51	18688
904.627	18563
904.745	18688
904.863	18563
904.981	18422
905.098	18247
905.216	18273
905.334	18357
905.451	18292
905.569	18247
905.686	18300
905.803	18167
905.921	18159
906.038	18178
906.155	18068
906.272	17942
906.389	17817
906.506	17889
906.623	17897
906.74	17786
906.857	17726
906.974	17764
907.091	17897
907.208	17874
907.324	17786
907.441	17672
907.557	17482
907.674	17547
907.79	17376
907.907	17463
908.023	17501
908.139	17395
908.256	17395
908.372	17387
908.488	17334
908.604	17185
908.72	17147
908.836	17242
908.952	17083
909.068	16991
909.184	17315
909.3	17200
909.415	17197
909.531	17185
909.647	16938
909.762	16908
909.878	16805
909.993	16896
910.108	16782
910.224	16744
910.339	16866
910.454	16656
910.57	16649
910.685	16660
910.8	16915
910.915	16748
911.03	16637
911.145	16421
911.259	16402
911.374	16417
911.489	16318
911.604	16398
911.718	16166
911.833	16166
911.947	16090
912.062	16025
912.176	16238
912.291	16287
912.405	16211
912.519	16421
912.633	16363
912.748	16287
912.862	16044
912.976	16048
913.09	15899
913.204	15987
913.318	16025
913.431	16135
913.545	16017
913.659	16044
913.772	15945
913.886	15857
914	15812
914.113	15884
914.226	15823
914.34	15888
914.453	15701
914.566	15781
914.68	15694
914.793	15694
914.906	15523
915.019	15389
915.132	15249
915.245	15351
915.358	15348
915.47	15275
915.583	15348
915.696	15401
915.809	15534
915.921	15431
916.034	15222
916.146	15252
916.259	15302
916.371	15374
916.483	15370
916.595	15237
916.708	15264
916.82	15211
916.932	15180
917.044	15195
917.156	15192
917.268	15100
917.38	15097
917.491	15001
917.603	15074
917.715	15169
917.826	15119
917.938	14986
918.049	14880
918.161	14925
918.272	15013
918.384	15043
918.495	15062
918.606	14842
918.717	14712
918.828	14689
918.939	14792
919.05	14693
919.161	14746
919.272	14545
919.383	14617
919.494	14868
919.604	14925
919.715	14815
919.826	14682
919.936	14781
920.047	14754
920.157	14716
920.267	14887
920.378	14697
920.488	14651
920.598	14804
920.708	14990
920.818	14826
920.928	14815
921.038	15032
921.148	14883
921.258	14689
921.368	14568
921.477	14530
921.587	14412
921.697	14290
921.806	14473
921.916	14301
922.025	14221
922.134	14145
922.244	14050
922.353	14027
922.462	13917
922.571	13928
922.68	13731
922.789	13689
922.898	13734
923.007	13628
923.116	13788
923.224	13674
923.333	13586
923.442	13540
923.55	13495
923.659	13529
923.767	13514
923.876	13400
923.984	13495
924.092	13430
924.201	13400
924.309	13464
924.417	13495
924.525	13434
924.633	13362
924.741	14305
924.849	13110
924.956	13415
925.064	13107
925.172	13110
925.279	13129
925.387	13061
925.494	13110
925.602	13236
925.709	13118
925.816	12943
925.924	13076
926.031	13145
926.138	13053
926.245	13145
926.352	13004
926.459	13050
926.566	13076
926.673	12970
926.779	12837
926.886	12848
926.993	12738
927.099	12627
927.206	12650
927.312	12646
927.419	12692
927.525	12764
927.631	12673
927.737	12528
927.843	12570
927.95	12403
928.056	12506
928.162	12437
928.267	12437
928.373	13084
928.479	12544
928.585	12270
928.69	12456
928.796	12475
928.901	12311
929.007	12057
929.112	12327
929.218	12311
929.323	12281
929.428	12239
929.533	12372
929.638	12197
929.743	12201
929.848	12247
929.953	12076
930.058	12125
930.163	11954
930.267	11843
930.372	12133
930.477	11840
930.581	12041
930.685	11935
930.79	11741
930.894	11805
930.998	11688
931.103	11863
931.207	11505
931.311	11452
931.415	11356
931.519	11143
931.623	11045
