Data from test_V78500241_393.txt Node
Date: Fri Mar 25 15:44:31 CST 2022
User: usil
Spectrometer: V785-0024
Trigger mode: 0
Integration Time (sec): 4.000000E-1
Scans to average: 1
Nonlinearity correction enabled: false
Boxcar width: 0
Storing dark spectrum: false
XAxis mode: Wavelengths
Number of Pixels in Spectrum: 1024
>>>>>Begin Spectral Data<<<<<
801.071	29356
801.214	29337
801.356	29102
801.499	29041
801.641	29014
801.783	28965
801.926	29140
802.068	29060
802.211	28824
802.353	28847
802.496	28618
802.638	28721
802.78	28793
802.923	28626
803.065	28497
803.208	28725
803.35	28622
803.492	28759
803.635	28877
803.777	28588
803.919	28740
804.061	29014
804.204	28835
804.346	28790
804.488	28706
804.63	28767
804.773	28607
804.915	28831
805.057	29022
805.199	28915
805.341	28877
805.483	28976
805.626	28953
805.768	28786
805.91	28782
806.052	28854
806.194	28839
806.336	29083
806.478	29102
806.62	28930
806.762	29079
806.904	29204
807.046	29562
807.188	29398
807.33	29379
807.472	29315
807.614	29162
807.756	29261
807.898	29166
808.04	29151
808.182	29136
808.324	29200
808.465	29326
808.607	29265
808.749	29501
808.891	29699
809.033	29745
809.174	29642
809.316	29573
809.458	29687
809.6	29665
809.741	29646
809.883	29566
810.025	29684
810.166	29874
810.308	29817
810.45	29718
810.591	29733
810.733	29627
810.875	29551
811.016	29551
811.158	29509
811.299	29718
811.441	29939
811.582	29786
811.724	29623
811.865	29524
812.007	29611
812.148	29520
812.29	29562
812.431	29821
812.573	29817
812.714	30022
812.855	30163
812.997	30311
813.138	30330
813.279	30243
813.421	29999
813.562	30072
813.703	29927
813.845	29813
813.986	29539
814.127	29303
814.268	29372
814.41	29433
814.551	29067
814.692	29410
814.833	29079
814.974	29170
815.115	29212
815.256	29102
815.397	29098
815.539	29166
815.68	29102
815.821	28790
815.962	28961
816.103	29060
816.244	28843
816.385	28748
816.526	28915
816.666	28668
816.807	28508
816.948	28500
817.089	28656
817.23	28531
817.371	28474
817.512	28618
817.653	28554
817.793	28485
817.934	28367
818.075	28519
818.216	28409
818.356	28485
818.497	28341
818.638	28181
818.778	28196
818.919	28226
819.06	28382
819.2	28337
819.341	28481
819.481	28386
819.622	28679
819.762	28847
819.903	28702
820.043	28622
820.184	28649
820.324	28569
820.465	28668
820.605	28584
820.746	28645
820.886	28409
821.026	28565
821.167	28470
821.307	28565
821.447	28318
821.588	28367
821.728	28360
821.868	28131
822.008	27873
822.149	27823
822.289	27827
822.429	27595
822.569	27599
822.709	27507
822.849	27450
822.99	27427
823.13	27424
823.27	27416
823.41	27195
823.55	27100
823.69	27325
823.83	27199
823.97	27123
824.11	26933
824.25	26807
824.389	27043
824.529	26998
824.669	27138
824.809	27233
824.949	27017
825.089	27020
825.228	27104
825.368	26804
825.508	26891
825.648	26872
825.787	26944
825.927	26864
826.067	26883
826.206	26902
826.346	26807
826.485	26823
826.625	26887
826.765	26986
826.904	26899
827.044	26465
827.183	26640
827.323	26507
827.462	26720
827.601	26609
827.741	26385
827.88	26564
828.02	26385
828.159	26556
828.298	26598
828.437	26526
828.577	26320
828.716	26522
828.855	26374
828.994	26256
829.134	26176
829.273	26336
829.412	26305
829.551	26138
829.69	26305
829.829	26202
829.968	26180
830.107	26168
830.246	26202
830.385	26096
830.524	26046
830.663	26031
830.802	25959
830.941	25811
831.08	25769
831.219	25925
831.357	25902
831.496	26043
831.635	25738
831.774	25784
831.913	25681
832.051	25643
832.19	25533
832.329	25556
832.467	25548
832.606	25434
832.744	25441
832.883	25400
833.022	25396
833.16	25426
833.299	25384
833.437	25533
833.576	25586
833.714	25415
833.852	25582
833.991	25559
834.129	25559
834.267	25597
834.406	25575
834.544	25464
834.682	25533
834.821	25441
834.959	25635
835.097	25476
835.235	25510
835.373	25346
835.511	25388
835.65	25244
835.788	25247
835.926	25251
836.064	25152
836.202	25217
836.34	25190
836.478	25362
836.615	25126
836.753	25327
836.891	25331
837.029	25202
837.167	25095
837.305	25236
837.443	25175
837.58	25145
837.718	25175
837.856	25145
837.993	24981
838.131	25095
838.269	24989
838.406	25129
838.544	24802
838.681	24642
838.819	24688
838.956	24498
839.094	24467
839.231	24445
839.369	24574
839.506	24837
839.643	24688
839.781	24578
839.918	24483
840.055	24509
840.193	24505
840.33	24452
840.467	24490
840.604	24528
840.742	24711
840.879	24228
841.016	24346
841.153	24380
841.29	24380
841.427	24357
841.564	24384
841.701	24475
841.838	24277
841.975	24300
842.112	24224
842.249	24220
842.385	24117
842.522	24319
842.659	24258
842.796	24003
842.933	23973
843.069	24030
843.206	24003
843.343	24121
843.479	24064
843.616	24159
843.752	23904
843.889	23992
844.025	23893
844.162	23737
844.298	24038
844.435	23828
844.571	23977
844.708	23901
844.844	23935
844.98	24049
845.117	24015
845.253	23813
845.389	23684
845.525	23809
845.661	23608
845.798	23691
845.934	23714
846.07	23467
846.206	23627
846.342	23638
846.478	23585
846.614	23455
846.75	23197
846.886	23212
847.022	23178
847.158	23337
847.294	23303
847.429	23303
847.565	23235
847.701	23539
847.837	23113
847.972	22957
848.108	23143
848.244	23117
848.379	22987
848.515	22801
848.65	22946
848.786	22923
848.921	22805
849.057	22919
849.192	22972
849.328	22915
849.463	22847
849.598	22858
849.734	22687
849.869	22672
850.004	22679
850.14	22603
850.275	22607
850.41	22478
850.545	22557
850.68	22596
850.815	22717
850.95	22618
851.085	22706
851.22	22664
851.355	22557
851.49	22516
851.625	22550
851.76	22542
851.895	22500
852.03	22478
852.165	22546
852.299	22596
852.434	22615
852.569	22698
852.703	22546
852.838	22592
852.973	22630
853.107	22702
853.242	22561
853.376	22394
853.511	22322
853.645	22413
853.78	22493
853.914	22440
854.048	22382
854.183	22451
854.317	22440
854.451	22535
854.585	22402
854.72	22291
854.854	22443
854.988	22246
855.122	22398
855.256	22295
855.39	22291
855.524	22413
855.658	22466
855.792	22413
855.926	22398
856.06	22371
856.194	22413
856.327	22314
856.461	22333
856.595	22398
856.729	22314
856.862	22432
856.996	22303
857.13	22557
857.263	22561
857.397	22474
857.53	22360
857.664	22318
857.797	22550
857.931	22493
858.064	22535
858.197	22497
858.331	22325
858.464	22356
858.597	22253
858.731	22306
858.864	22322
858.997	22215
859.13	22344
859.263	22360
859.396	22466
859.529	22432
859.662	22299
859.795	22261
859.928	22337
860.061	22618
860.194	22474
860.327	22428
860.46	22409
860.592	22531
860.725	22618
860.858	22546
860.99	22329
861.123	22249
861.256	22253
861.388	22329
861.521	22980
861.653	22188
861.786	22211
861.918	22211
862.05	22272
862.183	22363
862.315	22306
862.447	22382
862.58	22257
862.712	22116
862.844	22006
862.976	22181
863.108	22120
863.24	22535
863.372	22044
863.504	22032
863.636	22025
863.768	22097
863.9	22017
864.032	21937
864.164	22063
864.296	22112
864.428	22135
864.559	22078
864.691	21983
864.823	22040
864.954	22063
865.086	22021
865.217	21915
865.349	21956
865.48	21778
865.612	21949
865.743	21975
865.875	21934
866.006	21778
866.137	21869
866.269	21911
866.4	21949
866.531	21960
866.662	21816
866.793	21800
866.924	21854
867.055	21713
867.186	21926
867.317	21876
867.448	21751
867.579	21759
867.71	21724
867.841	21713
867.972	21812
868.103	21876
868.233	21850
868.364	21816
868.495	21949
868.625	22059
868.756	22120
868.886	21968
869.017	22173
869.147	22238
869.278	22192
869.408	22116
869.539	22154
869.669	22120
869.799	22143
869.929	22185
870.06	22181
870.19	22466
870.32	22280
870.45	22360
870.58	22493
870.71	22584
870.84	22516
870.97	22466
871.1	22519
871.23	22618
871.36	22706
871.489	22504
871.619	22649
871.749	22630
871.879	22717
872.008	22691
872.138	22637
872.267	22649
872.397	22462
872.526	22390
872.656	22481
872.785	22584
872.915	22554
873.044	22767
873.173	22668
873.303	22782
873.432	22752
873.561	22801
873.69	22702
873.819	22653
873.948	22820
874.077	22782
874.206	22664
874.335	22793
874.464	22793
874.593	22987
874.722	22831
874.851	22946
874.979	22900
875.108	23010
875.237	22946
875.365	22748
875.494	22877
875.623	22961
875.751	22934
875.88	23010
876.008	22987
876.136	23041
876.265	23170
876.393	23486
876.521	23395
876.65	23406
876.778	23406
876.906	23231
877.034	23189
877.162	23185
877.29	23143
877.418	23315
877.546	23239
877.674	23258
877.802	23223
877.93	23216
878.058	23208
878.185	23037
878.313	23197
878.441	23132
878.568	23094
878.696	23121
878.824	23261
878.951	23322
879.079	23452
879.206	23566
879.333	23372
879.461	23326
879.588	23414
879.715	23425
879.842	23547
879.97	23417
880.097	23181
880.224	23071
880.351	23113
880.478	23060
880.605	23018
880.732	23022
880.859	23296
880.986	23159
881.112	23060
881.239	22858
881.366	22755
881.493	22664
881.619	22607
881.746	22626
881.872	22653
881.999	22550
882.125	22584
882.252	22626
882.378	22577
882.505	22733
882.631	22455
882.757	22466
882.883	22337
883.01	22356
883.136	22306
883.262	22154
883.388	22025
883.514	22356
883.64	22333
883.766	22348
883.892	22154
884.018	22147
884.143	22310
884.269	22367
884.395	21945
884.52	21915
884.646	22116
884.772	21895
884.897	21842
885.023	21994
885.148	22063
885.274	21972
885.399	22051
885.524	21975
885.65	22032
885.775	22002
885.9	22044
886.025	21987
886.15	22021
886.275	21865
886.4	21774
886.525	21994
886.65	21949
886.775	21911
886.9	21937
887.025	22067
887.149	21823
887.274	21656
887.399	21629
887.523	21671
887.648	21705
887.773	21671
887.897	21698
888.021	21808
888.146	21526
888.27	21724
888.395	21827
888.519	21663
888.643	21743
888.767	21743
888.891	21603
889.015	21473
889.139	21530
889.263	21485
889.387	21618
889.511	21747
889.635	21542
889.759	21496
889.883	21340
890.006	21393
890.13	21580
890.254	21294
890.377	21401
890.501	21165
890.624	21226
890.748	21291
890.871	21150
890.995	21043
891.118	20937
891.241	21039
891.364	20956
891.488	21214
891.611	20921
891.734	21043
891.857	21100
891.98	21154
892.103	21058
892.226	21047
892.349	21043
892.471	20758
892.594	20914
892.717	20944
892.839	20853
892.962	20872
893.085	20998
893.207	20830
893.33	20777
893.452	20914
893.575	20967
893.697	20979
893.819	21039
893.941	21089
894.064	21104
894.186	20823
894.308	20853
894.43	21142
894.552	20998
894.674	20994
894.796	20838
894.918	20857
895.04	20830
895.161	20864
895.283	21024
895.405	20762
895.526	20891
895.648	20868
895.769	20872
895.891	20986
896.012	20944
896.134	20933
896.255	20845
896.376	20853
896.498	20998
896.619	20990
896.74	20998
896.861	20971
896.982	21237
897.103	21469
897.224	21081
897.345	21150
897.466	21119
897.587	20990
897.708	21233
897.828	21241
897.949	21123
898.07	20994
898.19	21051
898.311	21249
898.431	21146
898.552	21165
898.672	21268
898.792	21108
898.913	21112
899.033	21070
899.153	20975
899.273	20826
899.393	20811
899.513	20811
899.633	20842
899.753	20853
899.873	20804
899.993	20842
900.113	20754
900.232	20994
900.352	20743
900.472	20697
900.591	20549
900.711	20731
900.83	20552
900.95	20697
901.069	20670
901.189	20499
901.308	20290
901.427	20096
901.546	20206
901.665	20210
901.784	20081
901.904	20012
902.023	19925
902.141	19753
902.26	19670
902.379	19814
902.498	19738
902.617	19639
902.735	19738
902.854	19552
902.973	19571
903.091	19491
903.21	19335
903.328	19297
903.446	19266
903.565	19171
903.683	19141
903.801	18973
903.919	19164
904.038	18970
904.156	19004
904.274	18939
904.392	18935
904.51	18905
904.627	18848
904.745	18951
904.863	18939
904.981	18738
905.098	18559
905.216	18601
905.334	18635
905.451	18513
905.569	18441
905.686	18597
905.803	18528
905.921	18361
906.038	18376
906.155	18369
906.272	18155
906.389	18201
906.506	18117
906.623	18011
906.74	17973
906.857	17946
906.974	17939
907.091	17999
907.208	18190
907.324	18022
907.441	17885
907.557	17760
907.674	17870
907.79	17676
907.907	17657
908.023	17798
908.139	17863
908.256	17707
908.372	17535
908.488	17596
908.604	17448
908.72	17532
908.836	17474
908.952	17436
909.068	17417
909.184	17520
909.3	17448
909.415	17604
909.531	17433
909.647	17231
909.762	17083
909.878	17140
909.993	17124
910.108	17109
910.224	17113
910.339	17140
910.454	17060
910.57	16908
910.685	16767
910.8	17242
910.915	17060
911.03	16896
911.145	16759
911.259	16656
911.374	16691
911.489	16634
911.604	16672
911.718	16485
911.833	16535
911.947	16462
912.062	16333
912.176	16554
912.291	16504
912.405	16500
912.519	16713
912.633	16622
912.748	16459
912.862	16413
912.976	16253
913.09	16150
913.204	16150
913.318	16272
913.431	16360
913.545	16360
913.659	16337
913.772	16249
913.886	16051
914	15998
914.113	16120
914.226	16112
914.34	16082
914.453	15835
914.566	16109
914.68	15899
914.793	15926
914.906	15728
915.019	15644
915.132	15580
915.245	15686
915.358	15633
915.47	15622
915.583	15656
915.696	15622
915.809	15762
915.921	15747
916.034	15553
916.146	15481
916.259	15572
916.371	15622
916.483	15610
916.595	15587
916.708	15523
916.82	15477
916.932	15447
917.044	15420
917.156	15401
917.268	15279
917.38	15279
917.491	15306
917.603	15374
917.715	15329
917.826	15454
917.938	15214
918.049	15074
918.161	15222
918.272	15351
918.384	15374
918.495	15264
918.606	15047
918.717	15093
918.828	15070
918.939	15070
919.05	14929
919.161	15047
919.272	14811
919.383	14880
919.494	14956
919.604	15176
919.715	15062
919.826	14921
919.936	14929
920.047	15005
920.157	15024
920.267	15142
920.378	14998
920.488	14849
920.598	15074
920.708	15249
920.818	15112
920.928	15089
921.038	15176
921.148	15226
921.258	14891
921.368	14804
921.477	14670
921.587	14762
921.697	14590
921.806	14735
921.916	14590
922.025	14355
922.134	14248
922.244	14290
922.353	14336
922.462	14248
922.571	14191
922.68	13955
922.789	13890
922.898	13955
923.007	13830
923.116	13944
923.224	13955
923.333	13883
923.442	13879
923.55	13811
923.659	13807
923.767	13852
923.876	13693
923.984	13814
924.092	13776
924.201	13704
924.309	13605
924.417	13651
924.525	13647
924.633	13563
924.741	14476
924.849	13441
924.956	13529
925.064	13426
925.172	13304
925.279	13293
925.387	13419
925.494	13270
925.602	13430
925.709	13464
925.816	13244
925.924	13320
926.031	13388
926.138	13331
926.245	13263
926.352	13183
926.459	13373
926.566	13350
926.673	13232
926.779	13065
926.886	13152
926.993	12973
927.099	12977
927.206	12894
927.312	12920
927.419	12947
927.525	12863
927.631	12916
927.737	12817
927.843	12753
927.95	12654
928.056	12730
928.162	12730
928.267	12738
928.373	13358
928.479	12829
928.585	12544
928.69	12631
928.796	12757
928.901	12532
929.007	12448
929.112	12589
929.218	12525
929.323	12384
929.428	12369
929.533	12471
929.638	12376
929.743	12395
929.848	12486
929.953	12471
930.058	12186
930.163	12140
930.267	12140
930.372	12251
930.477	12083
930.581	12247
930.685	12175
930.79	11916
930.894	11950
930.998	11942
931.103	12136
931.207	11680
931.311	11619
931.415	11573
931.519	11292
931.623	11292
