Data from test_V78500241_1643.txt Node
Date: Fri Mar 25 15:53:10 CST 2022
User: usil
Spectrometer: V785-0024
Trigger mode: 0
Integration Time (sec): 4.000000E-1
Scans to average: 1
Nonlinearity correction enabled: false
Boxcar width: 0
Storing dark spectrum: false
XAxis mode: Wavelengths
Number of Pixels in Spectrum: 1024
>>>>>Begin Spectral Data<<<<<
801.071	28109
801.214	28006
801.356	27759
801.499	27774
801.641	27641
801.783	27553
801.926	27469
802.068	27622
802.211	27572
802.353	27481
802.496	27359
802.638	27119
802.78	27119
802.923	27112
803.065	27047
803.208	27154
803.35	27176
803.492	27241
803.635	27382
803.777	27340
803.919	27466
804.061	27610
804.204	27336
804.346	27382
804.488	27241
804.63	27431
804.773	27317
804.915	27386
805.057	27599
805.199	27435
805.341	27523
805.483	27530
805.626	27591
805.768	27443
805.91	27648
806.052	27587
806.194	27439
806.336	27610
806.478	27698
806.62	27690
806.762	27663
806.904	27785
807.046	27975
807.188	27926
807.33	27781
807.472	28029
807.614	27812
807.756	27842
807.898	27770
808.04	27819
808.182	27739
808.324	27930
808.465	28025
808.607	28097
808.749	28234
808.891	28261
809.033	28325
809.174	28272
809.316	28223
809.458	28120
809.6	28257
809.741	28451
809.883	28333
810.025	28641
810.166	28485
810.308	28668
810.45	28535
810.591	28405
810.733	28173
810.875	28086
811.016	28154
811.158	28040
811.299	28204
811.441	28265
811.582	28284
811.724	28265
811.865	28261
812.007	28207
812.148	28112
812.29	28234
812.431	28436
812.573	28516
812.714	28622
812.855	28858
812.997	28858
813.138	28915
813.279	28717
813.421	28847
813.562	28675
813.703	28668
813.845	28421
813.986	28116
814.127	27895
814.268	27907
814.41	27880
814.551	27972
814.692	27914
814.833	27789
814.974	27797
815.115	27895
815.256	27816
815.397	27701
815.539	27884
815.68	27804
815.821	27629
815.962	27778
816.103	27770
816.244	27568
816.385	27370
816.526	27500
816.666	27378
816.807	27142
816.948	27351
817.089	27367
817.23	27226
817.371	27157
817.512	27195
817.653	27230
817.793	27211
817.934	27180
818.075	27313
818.216	27233
818.356	27112
818.497	27070
818.638	26849
818.778	26891
818.919	26948
819.06	26921
819.2	26979
819.341	27279
819.481	26994
819.622	27214
819.762	27526
819.903	27287
820.043	27351
820.184	27420
820.324	27359
820.465	27325
820.605	27192
820.746	27173
820.886	27192
821.026	27096
821.167	27218
821.307	27340
821.447	27146
821.588	27135
821.728	26956
821.868	26796
822.008	26804
822.149	26746
822.289	26659
822.429	26385
822.569	26385
822.709	26374
822.849	26195
822.99	26183
823.13	26183
823.27	26180
823.41	25860
823.55	25993
823.69	25974
823.83	26096
823.97	26092
824.11	25757
824.25	25814
824.389	25890
824.529	25963
824.669	25814
824.809	25875
824.949	25925
825.089	25811
825.228	25799
825.368	25704
825.508	25750
825.648	25647
825.787	25693
825.927	25784
826.067	25715
826.206	25613
826.346	25632
826.485	25693
826.625	25597
826.765	25597
826.904	25651
827.044	25403
827.183	25487
827.323	25464
827.462	25419
827.601	25327
827.741	25396
827.88	25346
828.02	25251
828.159	25358
828.298	25373
828.437	25422
828.577	25320
828.716	25434
828.855	25270
828.994	25110
829.134	25069
829.273	25183
829.412	25012
829.551	25019
829.69	25133
829.829	25190
829.968	25152
830.107	25129
830.246	24989
830.385	24992
830.524	24928
830.663	24932
830.802	24696
830.941	24745
831.08	24753
831.219	24753
831.357	24848
831.496	25061
831.635	24582
831.774	24623
831.913	24620
832.051	24555
832.19	24486
832.329	24471
832.467	24426
832.606	24395
832.744	24289
832.883	24319
833.022	24346
833.16	24467
833.299	24467
833.437	24311
833.576	24448
833.714	24323
833.852	24353
833.991	24536
834.129	24475
834.267	24445
834.406	24437
834.544	24513
834.682	24414
834.821	24220
834.959	24544
835.097	24452
835.235	24464
835.373	24323
835.511	24346
835.65	24201
835.788	24262
835.926	24011
836.064	24178
836.202	24174
836.34	24391
836.478	24327
836.615	24095
836.753	24327
836.891	24357
837.029	24292
837.167	24216
837.305	24197
837.443	24171
837.58	24144
837.718	23996
837.856	24083
837.993	23954
838.131	24209
838.269	23984
838.406	24015
838.544	23874
838.681	23794
838.819	23699
838.956	23554
839.094	23589
839.231	23497
839.369	23684
839.506	23874
839.643	23882
839.781	23459
839.918	23372
840.055	23646
840.193	23497
840.33	23379
840.467	23444
840.604	23509
840.742	23832
840.879	23341
841.016	23421
841.153	23288
841.29	23585
841.427	23478
841.564	23482
841.701	23482
841.838	23379
841.975	23311
842.112	23299
842.249	23337
842.385	23181
842.522	23444
842.659	23212
842.796	23105
842.933	23239
843.069	23121
843.206	23140
843.343	23258
843.479	23376
843.616	23124
843.752	22946
843.889	22961
844.025	23014
844.162	22908
844.298	23102
844.435	22949
844.571	23022
844.708	22953
844.844	23239
844.98	23044
845.117	23147
845.253	22980
845.389	22698
845.525	22759
845.661	22854
845.798	22649
845.934	22778
846.07	22694
846.206	22748
846.342	22786
846.478	22691
846.614	22512
846.75	22470
846.886	22428
847.022	22577
847.158	22538
847.294	22519
847.429	22428
847.565	22398
847.701	22615
847.837	22200
847.972	22185
848.108	22291
848.244	22348
848.379	22192
848.515	21987
848.65	22040
848.786	22036
848.921	22017
849.057	22131
849.192	22158
849.328	22051
849.463	22025
849.598	21964
849.734	21945
849.869	22025
850.004	21781
850.14	21857
850.275	21838
850.41	21648
850.545	21831
850.68	21857
850.815	21698
850.95	21823
851.085	21884
851.22	21979
851.355	21732
851.49	21873
851.625	21679
851.76	21713
851.895	21720
852.03	21644
852.165	21755
852.299	21827
852.434	21880
852.569	21781
852.703	21812
852.838	21827
852.973	21941
853.107	22051
853.242	21736
853.376	21713
853.511	21443
853.645	21481
853.78	21644
853.914	21698
854.048	21538
854.183	21633
854.317	21603
854.451	21713
854.585	21625
854.72	21591
854.854	21770
854.988	21633
855.122	21652
855.256	21473
855.39	21534
855.524	21583
855.658	21595
855.792	21561
855.926	21713
856.06	21641
856.194	21770
856.327	21534
856.461	21622
856.595	21557
856.729	21622
856.862	21739
856.996	21682
857.13	21755
857.263	21690
857.397	21671
857.53	21469
857.664	21663
857.797	21679
857.931	21694
858.064	21610
858.197	21637
858.331	21576
858.464	21587
858.597	21530
858.731	21751
858.864	21549
858.997	21526
859.13	21477
859.263	21545
859.396	21709
859.529	21473
859.662	21587
859.795	21538
859.928	21534
860.061	21778
860.194	21808
860.327	21557
860.46	21606
860.592	21774
860.725	21857
860.858	21850
860.99	21583
861.123	21477
861.256	21599
861.388	21671
861.521	22314
861.653	21542
861.786	21408
861.918	21488
862.05	21496
862.183	21587
862.315	21515
862.447	21603
862.58	21553
862.712	21230
862.844	21199
862.976	21507
863.108	21424
863.24	21861
863.372	21249
863.504	21367
863.636	21367
863.768	21317
863.9	21302
864.032	21294
864.164	21348
864.296	21424
864.428	21439
864.559	21488
864.691	21431
864.823	21336
864.954	21283
865.086	21214
865.217	21287
865.349	21036
865.48	21180
865.612	21222
865.743	21351
865.875	21264
866.006	21272
866.137	21195
866.269	21207
866.4	21264
866.531	21203
866.662	21074
866.793	21116
866.924	21074
867.055	21226
867.186	21138
867.317	21104
867.448	21112
867.579	21173
867.71	21043
867.841	21051
867.972	21135
868.103	21085
868.233	21226
868.364	21142
868.495	21272
868.625	21405
868.756	21534
868.886	21344
869.017	21382
869.147	21496
869.278	21549
869.408	21393
869.539	21466
869.669	21393
869.799	21485
869.929	21454
870.06	21477
870.19	21705
870.32	21720
870.45	21797
870.58	21816
870.71	21808
870.84	21854
870.97	21884
871.1	21751
871.23	21892
871.36	21964
871.489	21873
871.619	22048
871.749	22124
871.879	21926
872.008	22158
872.138	21953
872.267	22025
872.397	21876
872.526	21876
872.656	21766
872.785	21797
872.915	21979
873.044	21987
873.173	22006
873.303	22040
873.432	22143
873.561	22211
873.69	22204
873.819	22067
873.948	22109
874.077	22010
874.206	21972
874.335	22086
874.464	22147
874.593	22284
874.722	22128
874.851	22280
874.979	22211
875.108	22261
875.237	22169
875.365	22166
875.494	22367
875.623	22352
875.751	22200
875.88	22386
876.008	22337
876.136	22512
876.265	22641
876.393	22752
876.521	22653
876.65	22679
876.778	22618
876.906	22550
877.034	22580
877.162	22538
877.29	22580
877.418	22630
877.546	22592
877.674	22584
877.802	22683
877.93	22569
878.058	22603
878.185	22447
878.313	22538
878.441	22637
878.568	22474
878.696	22577
878.824	22497
878.951	22656
879.079	22790
879.206	22850
879.333	22691
879.461	22656
879.588	22675
879.715	22698
879.842	22820
879.97	22611
880.097	22371
880.224	22417
880.351	22500
880.478	22394
880.605	22367
880.732	22390
880.859	22573
880.986	22371
881.112	22306
881.239	22226
881.366	22173
881.493	22112
881.619	22032
881.746	22013
881.872	21934
881.999	21998
882.125	21991
882.252	21934
882.378	21960
882.505	22067
882.631	21861
882.757	21736
882.883	21705
883.01	21694
883.136	21656
883.262	21458
883.388	21622
883.514	21762
883.64	21800
883.766	21663
883.892	21439
884.018	21439
884.143	21629
884.269	21629
884.395	21428
884.52	21287
884.646	21443
884.772	21180
884.897	21188
885.023	21294
885.148	21378
885.274	21500
885.399	21340
885.524	21214
885.65	21310
885.775	21237
885.9	21329
886.025	21420
886.15	21340
886.275	21310
886.4	21176
886.525	21260
886.65	21279
886.775	21123
886.9	21351
887.025	21462
887.149	21150
887.274	21173
887.399	21127
887.523	21218
887.648	20990
887.773	21005
887.897	21188
888.021	21119
888.146	20914
888.27	21249
888.395	21226
888.519	21184
888.643	21169
888.767	21055
888.891	20960
889.015	20899
889.139	20899
889.263	20944
889.387	20960
889.511	21108
889.635	20967
889.759	20944
889.883	20937
890.006	20975
890.13	21009
890.254	20838
890.377	20830
890.501	20552
890.624	20644
890.748	20617
890.871	20514
890.995	20503
891.118	20427
891.241	20423
891.364	20412
891.488	20545
891.611	20484
891.734	20518
891.857	20560
891.98	20476
892.103	20461
892.226	20454
892.349	20423
892.471	20286
892.594	20313
892.717	20294
892.839	20336
892.962	20343
893.085	20431
893.207	20389
893.33	20077
893.452	20377
893.575	20339
893.697	20374
893.819	20514
893.941	20560
894.064	20465
894.186	20309
894.308	20290
894.43	20427
894.552	20617
894.674	20438
894.796	20233
894.918	20252
895.04	20358
895.161	20339
895.283	20301
895.405	20336
895.526	20351
895.648	20313
895.769	20278
895.891	20389
896.012	20374
896.134	20396
896.255	20419
896.376	20237
896.498	20263
896.619	20332
896.74	20339
896.861	20377
896.982	20609
897.103	20750
897.224	20655
897.345	20625
897.466	20530
897.587	20499
897.708	20724
897.828	20484
897.949	20480
898.07	20415
898.19	20423
898.311	20648
898.431	20461
898.552	20511
898.672	20644
898.792	20594
898.913	20541
899.033	20556
899.153	20278
899.273	20339
899.393	20278
899.513	20328
899.633	20275
899.753	20309
899.873	20195
899.993	20385
900.113	20191
900.232	20252
900.352	20275
900.472	20290
900.591	19963
900.711	20046
900.83	20050
900.95	20176
901.069	19997
901.189	19868
901.308	19757
901.427	19647
901.546	19734
901.665	19746
901.784	19719
901.904	19628
902.023	19460
902.141	19316
902.26	19110
902.379	19270
902.498	19247
902.617	19050
902.735	19110
902.854	19194
902.973	19122
903.091	18783
903.21	18795
903.328	18810
903.446	18791
903.565	18730
903.683	18707
903.801	18604
903.919	18574
904.038	18570
904.156	18422
904.274	18528
904.392	18304
904.51	18334
904.627	18422
904.745	18517
904.863	18361
904.981	18174
905.098	18110
905.216	18087
905.334	18060
905.451	18125
905.569	18076
905.686	18087
905.803	18072
905.921	17851
906.038	17996
906.155	17999
906.272	17843
906.389	17771
906.506	17687
906.623	17695
906.74	17623
906.857	17509
906.974	17501
907.091	17611
907.208	17729
907.324	17600
907.441	17425
907.557	17433
907.674	17334
907.79	17284
907.907	17292
908.023	17326
908.139	17387
908.256	17273
908.372	17174
908.488	17208
908.604	17102
908.72	17025
908.836	17037
908.952	17143
909.068	17090
909.184	17048
909.3	17140
909.415	17064
909.531	17105
909.647	16778
909.762	16767
909.878	16607
909.993	16824
910.108	16755
910.224	16634
910.339	16763
910.454	16611
910.57	16622
910.685	16637
910.8	16706
910.915	16634
911.03	16577
911.145	16379
911.259	16405
911.374	16417
911.489	16272
911.604	16143
911.718	16109
911.833	16101
911.947	15994
912.062	15960
912.176	16177
912.291	16147
912.405	16131
912.519	16299
912.633	16211
912.748	16143
912.862	16055
912.976	16036
913.09	15774
913.204	15888
913.318	15880
913.431	16029
913.545	16010
913.659	16025
913.772	15857
913.886	15747
914	15690
914.113	15819
914.226	15926
914.34	15800
914.453	15610
914.566	15724
914.68	15603
914.793	15492
914.906	15378
915.019	15355
915.132	15199
915.245	15317
915.358	15397
915.47	15313
915.583	15252
915.696	15275
915.809	15424
915.921	15485
916.034	15298
916.146	15252
916.259	15233
916.371	15382
916.483	15275
916.595	15131
916.708	15097
916.82	15100
916.932	15214
917.044	15089
917.156	14956
917.268	15005
917.38	15043
917.491	14876
917.603	14937
917.715	14998
917.826	15036
917.938	14906
918.049	14823
918.161	14937
918.272	15104
918.384	14971
918.495	14864
918.606	14739
918.717	14640
918.828	14804
918.939	14788
919.05	14640
919.161	14720
919.272	14503
919.383	14598
919.494	14792
919.604	14979
919.715	14842
919.826	14625
919.936	14644
920.047	14807
920.157	14712
920.267	14899
920.378	14632
920.488	14598
920.598	14838
920.708	14937
920.818	14701
920.928	14792
921.038	14967
921.148	14899
921.258	14655
921.368	14434
921.477	14355
921.587	14427
921.697	14286
921.806	14358
921.916	14320
922.025	14043
922.134	13989
922.244	14012
922.353	14001
922.462	13887
922.571	13841
922.68	13746
922.789	13620
922.898	13753
923.007	13662
923.116	13753
923.224	13658
923.333	13681
923.442	13510
923.55	13575
923.659	13521
923.767	13647
923.876	13400
923.984	13563
924.092	13430
924.201	13392
924.309	13460
924.417	13464
924.525	13457
924.633	13396
924.741	14267
924.849	13160
924.956	13362
925.064	13190
925.172	13076
925.279	13042
925.387	13088
925.494	13061
925.602	13236
925.709	13095
925.816	13000
925.924	13099
926.031	13171
926.138	13019
926.245	13145
926.352	12989
926.459	13031
926.566	13149
926.673	13023
926.779	12856
926.886	12791
926.993	12745
927.099	12654
927.206	12601
927.312	12620
927.419	12677
927.525	12604
927.631	12700
927.737	12513
927.843	12483
927.95	12471
928.056	12559
928.162	12509
928.267	12544
928.373	13228
928.479	12570
928.585	12239
928.69	12460
928.796	12471
928.901	12388
929.007	12205
929.112	12304
929.218	12350
929.323	12167
929.428	12232
929.533	12353
929.638	12136
929.743	12186
929.848	12159
929.953	12155
930.058	12068
930.163	11942
930.267	11912
930.372	12026
930.477	11912
930.581	12110
930.685	11939
930.79	11878
930.894	11817
930.998	11821
931.103	11794
931.207	11543
931.311	11440
931.415	11376
931.519	11109
931.623	11223
