Data from test_V78500241_1298.txt Node
Date: Fri Mar 25 15:50:47 CST 2022
User: usil
Spectrometer: V785-0024
Trigger mode: 0
Integration Time (sec): 4.000000E-1
Scans to average: 1
Nonlinearity correction enabled: false
Boxcar width: 0
Storing dark spectrum: false
XAxis mode: Wavelengths
Number of Pixels in Spectrum: 1024
>>>>>Begin Spectral Data<<<<<
801.071	28565
801.214	28382
801.356	28070
801.499	28078
801.641	27895
801.783	28055
801.926	27949
802.068	27968
802.211	27869
802.353	27911
802.496	27736
802.638	27660
802.78	27625
802.923	27603
803.065	27545
803.208	27671
803.35	27622
803.492	27850
803.635	27812
803.777	27724
803.919	27812
804.061	28204
804.204	27987
804.346	27770
804.488	27865
804.63	27903
804.773	27857
804.915	27903
805.057	27930
805.199	27983
805.341	27979
805.483	27960
805.626	28063
805.768	27884
805.91	28032
806.052	28188
806.194	27926
806.336	28207
806.478	28116
806.62	28135
806.762	28082
806.904	28287
807.046	28451
807.188	28554
807.33	28478
807.472	28542
807.614	28409
807.756	28432
807.898	28314
808.04	28306
808.182	28337
808.324	28401
808.465	28413
808.607	28603
808.749	28778
808.891	28828
809.033	28915
809.174	28748
809.316	28812
809.458	28698
809.6	28698
809.741	28786
809.883	28881
810.025	28987
810.166	28980
810.308	29090
810.45	28835
810.591	28740
810.733	28805
810.875	28752
811.016	28615
811.158	28542
811.299	28660
811.441	28904
811.582	28942
811.724	28675
811.865	28748
812.007	28660
812.148	28816
812.29	28900
812.431	28965
812.573	29109
812.714	29052
812.855	29277
812.997	29414
813.138	29505
813.279	29516
813.421	29258
813.562	29326
813.703	29128
813.845	28999
813.986	28744
814.127	28622
814.268	28386
814.41	28462
814.551	28440
814.692	28390
814.833	28432
814.974	28485
815.115	28390
815.256	28497
815.397	28291
815.539	28322
815.68	28238
815.821	28215
815.962	28352
816.103	28272
816.244	28207
816.385	28044
816.526	28074
816.666	27846
816.807	27751
816.948	27759
817.089	27835
817.23	27679
817.371	27819
817.512	27778
817.653	27705
817.793	27633
817.934	27675
818.075	27766
818.216	27812
818.356	27785
818.497	27591
818.638	27511
818.778	27450
818.919	27542
819.06	27587
819.2	27629
819.341	27690
819.481	27641
819.622	27884
819.762	28181
819.903	28120
820.043	27983
820.184	27793
820.324	27812
820.465	27964
820.605	27793
820.746	27724
820.886	27743
821.026	27823
821.167	27751
821.307	27857
821.447	27922
821.588	27774
821.728	27492
821.868	27389
822.008	27154
822.149	27275
822.289	27199
822.429	26979
822.569	26883
822.709	26952
822.849	26796
822.99	26682
823.13	26762
823.27	26598
823.41	26511
823.55	26442
823.69	26629
823.83	26564
823.97	26434
824.11	26309
824.25	26362
824.389	26381
824.529	26625
824.669	26301
824.809	26579
824.949	26457
825.089	26533
825.228	26564
825.368	26244
825.508	26206
825.648	26252
825.787	26286
825.927	26259
826.067	26374
826.206	26244
826.346	26263
826.485	26275
826.625	26134
826.765	26324
826.904	26370
827.044	26088
827.183	25982
827.323	26016
827.462	26115
827.601	25974
827.741	26054
827.88	25963
828.02	25780
828.159	25852
828.298	25940
828.437	25955
828.577	25982
828.716	26024
828.855	25864
828.994	25655
829.134	25693
829.273	25772
829.412	25662
829.551	25586
829.69	25696
829.829	25624
829.968	25875
830.107	25674
830.246	25795
830.385	25609
830.524	25540
830.663	25491
830.802	25487
830.941	25304
831.08	25190
831.219	25327
831.357	25373
831.496	25537
831.635	25419
831.774	25225
831.913	25095
832.051	25175
832.19	25168
832.329	25129
832.467	24920
832.606	25034
832.744	25038
832.883	24935
833.022	24817
833.16	24966
833.299	24939
833.437	25019
833.576	24985
833.714	25065
833.852	25103
833.991	25133
834.129	25141
834.267	25091
834.406	24966
834.544	25247
834.682	25091
834.821	24916
834.959	25152
835.097	24935
835.235	25008
835.373	25000
835.511	25122
835.65	24844
835.788	24977
835.926	24726
836.064	24734
836.202	24616
836.34	24795
836.478	24951
836.615	24787
836.753	24829
836.891	24905
837.029	24916
837.167	24703
837.305	24791
837.443	24768
837.58	24665
837.718	24741
837.856	24635
837.993	24616
838.131	24654
838.269	24578
838.406	24601
838.544	24505
838.681	24277
838.819	24308
838.956	24243
839.094	24213
839.231	24258
839.369	24323
839.506	24665
839.643	24475
839.781	24060
839.918	24228
840.055	24072
840.193	24018
840.33	24182
840.467	24095
840.604	24152
840.742	24460
840.879	23847
841.016	24087
841.153	23950
841.29	24148
841.427	24110
841.564	24133
841.701	23969
841.838	23996
841.975	23965
842.112	23988
842.249	23939
842.385	23817
842.522	23999
842.659	23828
842.796	23802
842.933	23843
843.069	23733
843.206	23741
843.343	23855
843.479	23851
843.616	23745
843.752	23535
843.889	23611
844.025	23752
844.162	23516
844.298	23676
844.435	23608
844.571	23471
844.708	23543
844.844	23748
844.98	23729
845.117	23699
845.253	23436
845.389	23448
845.525	23509
845.661	23467
845.798	23353
845.934	23433
846.07	23296
846.206	23315
846.342	23429
846.478	23227
846.614	23159
846.75	23003
846.886	22946
847.022	23147
847.158	23105
847.294	22987
847.429	23060
847.565	22961
847.701	23124
847.837	22778
847.972	22736
848.108	22820
848.244	22904
848.379	22573
848.515	22637
848.65	22653
848.786	22580
848.921	22611
849.057	22824
849.192	22573
849.328	22740
849.463	22683
849.598	22607
849.734	22546
849.869	22485
850.004	22352
850.14	22299
850.275	22367
850.41	22238
850.545	22440
850.68	22329
850.815	22341
850.95	22280
851.085	22565
851.22	22436
851.355	22485
851.49	22363
851.625	22325
851.76	22325
851.895	22291
852.03	22348
852.165	22348
852.299	22318
852.434	22588
852.569	22424
852.703	22276
852.838	22424
852.973	22474
853.107	22432
853.242	22344
853.376	22329
853.511	22067
853.645	22249
853.78	22257
853.914	22299
854.048	22219
854.183	22238
854.317	22314
854.451	22455
854.585	22162
854.72	22196
854.854	22322
854.988	22048
855.122	22207
855.256	22120
855.39	22226
855.524	22234
855.658	22238
855.792	22211
855.926	22215
856.06	22128
856.194	22219
856.327	22124
856.461	22192
856.595	22185
856.729	22128
856.862	22356
856.996	22257
857.13	22234
857.263	22337
857.397	22261
857.53	22139
857.664	22314
857.797	22402
857.931	22112
858.064	22200
858.197	22253
858.331	22226
858.464	22074
858.597	22234
858.731	22124
858.864	22253
858.997	22185
859.13	22147
859.263	22249
859.396	22257
859.529	22284
859.662	22070
859.795	22185
859.928	22223
860.061	22299
860.194	22310
860.327	22124
860.46	22162
860.592	22287
860.725	22436
860.858	22284
860.99	22162
861.123	22051
861.256	22124
861.388	22150
861.521	22900
861.653	22055
861.786	22120
861.918	22040
862.05	22185
862.183	22162
862.315	22150
862.447	22196
862.58	22128
862.712	21873
862.844	21907
862.976	21998
863.108	22025
863.24	22306
863.372	21861
863.504	21979
863.636	21998
863.768	21827
863.9	22025
864.032	21876
864.164	21907
864.296	21907
864.428	21934
864.559	21949
864.691	21979
864.823	21842
864.954	21895
865.086	21895
865.217	21793
865.349	21732
865.48	21663
865.612	21785
865.743	21937
865.875	21751
866.006	21709
866.137	21751
866.269	21739
866.4	21842
866.531	21755
866.662	21614
866.793	21717
866.924	21637
867.055	21736
867.186	21686
867.317	21705
867.448	21610
867.579	21690
867.71	21561
867.841	21637
867.972	21751
868.103	21629
868.233	21641
868.364	21709
868.495	21789
868.625	21899
868.756	21979
868.886	21930
869.017	22013
869.147	22070
869.278	21983
869.408	21956
869.539	21937
869.669	21983
869.799	21991
869.929	22010
870.06	21987
870.19	22261
870.32	22230
870.45	22284
870.58	22306
870.71	22398
870.84	22436
870.97	22363
871.1	22356
871.23	22489
871.36	22592
871.489	22512
871.619	22470
871.749	22481
871.879	22637
872.008	22607
872.138	22516
872.267	22550
872.397	22478
872.526	22371
872.656	22428
872.785	22291
872.915	22504
873.044	22694
873.173	22523
873.303	22569
873.432	22778
873.561	22771
873.69	22618
873.819	22519
873.948	22653
874.077	22580
874.206	22519
874.335	22649
874.464	22767
874.593	22645
874.722	22725
874.851	22862
874.979	22828
875.108	22839
875.237	22683
875.365	22622
875.494	22809
875.623	22812
875.751	22843
875.88	22736
876.008	22862
876.136	22980
876.265	23147
876.393	23296
876.521	23330
876.65	23254
876.778	23200
876.906	23079
877.034	22961
877.162	23086
877.29	23204
877.418	23109
877.546	23090
877.674	23113
877.802	23155
877.93	23197
878.058	23079
878.185	22942
878.313	23075
878.441	23117
878.568	22999
878.696	22991
878.824	23200
878.951	23239
879.079	23288
879.206	23421
879.333	23406
879.461	23037
879.588	23307
879.715	23246
879.842	23414
879.97	23098
880.097	22980
880.224	22900
880.351	22946
880.478	22904
880.605	22889
880.732	22953
880.859	23090
880.986	22946
881.112	22949
881.239	22854
881.366	22660
881.493	22607
881.619	22519
881.746	22470
881.872	22478
881.999	22451
882.125	22322
882.252	22462
882.378	22447
882.505	22531
882.631	22287
882.757	22223
882.883	22246
883.01	22226
883.136	22128
883.262	22124
883.388	22032
883.514	22257
883.64	22196
883.766	22147
883.892	21991
884.018	21953
884.143	22082
884.269	22181
884.395	21949
884.52	21663
884.646	21895
884.772	21713
884.897	21713
885.023	21804
885.148	21956
885.274	21903
885.399	21785
885.524	21808
885.65	21800
885.775	21739
885.9	21850
886.025	21937
886.15	21956
886.275	21732
886.4	21694
886.525	21808
886.65	21808
886.775	21660
886.9	21766
887.025	22059
887.149	21766
887.274	21561
887.399	21530
887.523	21599
887.648	21454
887.773	21408
887.897	21572
888.021	21663
888.146	21553
888.27	21694
888.395	21675
888.519	21526
888.643	21660
888.767	21572
888.891	21420
889.015	21401
889.139	21488
889.263	21477
889.387	21462
889.511	21618
889.635	21462
889.759	21389
889.883	21431
890.006	21317
890.13	21454
890.254	21233
890.377	21317
890.501	21074
890.624	21146
890.748	21116
890.871	21032
890.995	20914
891.118	20925
891.241	21062
891.364	20834
891.488	21043
891.611	21005
891.734	20864
891.857	20937
891.98	20880
892.103	20925
892.226	20967
892.349	20804
892.471	20640
892.594	20910
892.717	20880
892.839	20830
892.962	20815
893.085	20842
893.207	20792
893.33	20743
893.452	20792
893.575	20834
893.697	20906
893.819	21005
893.941	20998
894.064	20880
894.186	20708
894.308	20727
894.43	20864
894.552	20967
894.674	20815
894.796	20716
894.918	20701
895.04	20758
895.161	20807
895.283	20861
895.405	20678
895.526	20819
895.648	20746
895.769	20788
895.891	20800
896.012	20933
896.134	20929
896.255	20830
896.376	20773
896.498	20861
896.619	20735
896.74	20754
896.861	20765
896.982	21192
897.103	21313
897.224	21176
897.345	21096
897.466	20876
897.587	20918
897.708	21173
897.828	21077
897.949	20887
898.07	20765
898.19	20967
898.311	21165
898.431	20895
898.552	20880
898.672	20952
898.792	21135
898.913	20933
899.033	20956
899.153	20834
899.273	20648
899.393	20689
899.513	20678
899.633	20826
899.753	20788
899.873	20651
899.993	20769
900.113	20663
900.232	20777
900.352	20655
900.472	20708
900.591	20355
900.711	20526
900.83	20446
900.95	20697
901.069	20560
901.189	20301
901.308	20191
901.427	19986
901.546	20062
901.665	20103
901.784	20092
901.904	19997
902.023	19845
902.141	19753
902.26	19605
902.379	19795
902.498	19563
902.617	19472
902.735	19613
902.854	19506
902.973	19571
903.091	19266
903.21	19255
903.328	19377
903.446	19118
903.565	19031
903.683	19107
903.801	18932
903.919	19031
904.038	19015
904.156	18825
904.274	18852
904.392	18905
904.51	18814
904.627	18677
904.745	18856
904.863	18951
904.981	18620
905.098	18540
905.216	18509
905.334	18547
905.451	18521
905.569	18486
905.686	18475
905.803	18509
905.921	18308
906.038	18391
906.155	18452
906.272	18201
906.389	18285
906.506	18091
906.623	18053
906.74	17973
906.857	17821
906.974	17878
907.091	18205
907.208	18125
907.324	18034
907.441	18003
907.557	17794
907.674	17760
907.79	17756
907.907	17783
908.023	17790
908.139	17726
908.256	17687
908.372	17726
908.488	17649
908.604	17535
908.72	17429
908.836	17493
908.952	17433
909.068	17406
909.184	17592
909.3	17532
909.415	17509
909.531	17524
909.647	17162
909.762	17159
909.878	17102
909.993	17220
910.108	17155
910.224	17109
910.339	17178
910.454	17102
910.57	16889
910.685	16854
910.8	17197
910.915	17105
911.03	16930
911.145	16828
911.259	16729
911.374	16668
911.489	16744
911.604	16573
911.718	16577
911.833	16474
911.947	16413
912.062	16318
912.176	16500
912.291	16599
912.405	16512
912.519	16653
912.633	16592
912.748	16451
912.862	16459
912.976	16390
913.09	16276
913.204	16169
913.318	16314
913.431	16382
913.545	16287
913.659	16409
913.772	16181
913.886	16150
914	16055
914.113	16124
914.226	16196
914.34	16154
914.453	15941
914.566	16120
914.68	15968
914.793	15876
914.906	15720
915.019	15675
915.132	15641
915.245	15587
915.358	15686
915.47	15629
915.583	15641
915.696	15728
915.809	15800
915.921	15831
916.034	15618
916.146	15511
916.259	15584
916.371	15690
916.483	15618
916.595	15538
916.708	15523
916.82	15507
916.932	15466
917.044	15370
917.156	15450
917.268	15321
917.38	15424
917.491	15283
917.603	15332
917.715	15386
917.826	15386
917.938	15165
918.049	15119
918.161	15298
918.272	15329
918.384	15382
918.495	15275
918.606	15211
918.717	15020
918.828	15028
918.939	15100
919.05	14948
919.161	15161
919.272	14864
919.383	14933
919.494	15112
919.604	15321
919.715	15055
919.826	14994
919.936	14921
920.047	15123
920.157	15036
920.267	15173
920.378	15017
920.488	14967
920.598	15241
920.708	15351
920.818	15184
920.928	15214
921.038	15298
921.148	15199
921.258	14967
921.368	14834
921.477	14773
921.587	14769
921.697	14495
921.806	14792
921.916	14629
922.025	14545
922.134	14355
922.244	14328
922.353	14412
922.462	14347
922.571	14248
922.68	13993
922.789	14081
922.898	13982
923.007	13940
923.116	14005
923.224	14005
923.333	14058
923.442	13883
923.55	13906
923.659	13864
923.767	13902
923.876	13746
923.984	13879
924.092	13704
924.201	13788
924.309	13765
924.417	13818
924.525	13727
924.633	13677
924.741	14518
924.849	13518
924.956	13537
925.064	13464
925.172	13362
925.279	13426
925.387	13434
925.494	13346
925.602	13575
925.709	13396
925.816	13396
925.924	13320
926.031	13373
926.138	13369
926.245	13388
926.352	13263
926.459	13312
926.566	13400
926.673	13221
926.779	13168
926.886	13042
926.993	12962
927.099	12947
927.206	12970
927.312	12897
927.419	13027
927.525	12951
927.631	12905
927.737	12901
927.843	12768
927.95	12719
928.056	12814
928.162	12859
928.267	12859
928.373	13187
928.479	12856
928.585	12650
928.69	12623
928.796	12776
928.901	12646
929.007	12509
929.112	12639
929.218	12528
929.323	12555
929.428	12467
929.533	12673
929.638	12403
929.743	12486
929.848	12448
929.953	12380
930.058	12216
930.163	12163
930.267	12129
930.372	12403
930.477	12114
930.581	12338
930.685	12190
930.79	12045
930.894	12060
930.998	12022
931.103	12144
931.207	11767
931.311	11638
931.415	11547
931.519	11429
931.623	11356
