Data from test_V78500241_1567.txt Node
Date: Fri Mar 25 15:52:39 CST 2022
User: usil
Spectrometer: V785-0024
Trigger mode: 0
Integration Time (sec): 4.000000E-1
Scans to average: 1
Nonlinearity correction enabled: false
Boxcar width: 0
Storing dark spectrum: false
XAxis mode: Wavelengths
Number of Pixels in Spectrum: 1024
>>>>>Begin Spectral Data<<<<<
801.071	27964
801.214	27972
801.356	27812
801.499	27663
801.641	27644
801.783	27644
801.926	27603
802.068	27564
802.211	27401
802.353	27435
802.496	27192
802.638	27294
802.78	27169
802.923	27268
803.065	27009
803.208	27146
803.35	27188
803.492	27382
803.635	27420
803.777	27192
803.919	27488
804.061	27785
804.204	27401
804.346	27469
804.488	27435
804.63	27431
804.773	27332
804.915	27447
805.057	27469
805.199	27416
805.341	27405
805.483	27595
805.626	27625
805.768	27355
805.91	27564
806.052	27583
806.194	27511
806.336	27660
806.478	27568
806.62	27648
806.762	27633
806.904	27732
807.046	28006
807.188	27953
807.33	27979
807.472	28086
807.614	27876
807.756	27960
807.898	27827
808.04	27854
808.182	27652
808.324	27793
808.465	27819
808.607	28086
808.749	28101
808.891	28344
809.033	28440
809.174	28390
809.316	28105
809.458	28207
809.6	28253
809.741	28348
809.883	28318
810.025	28596
810.166	28455
810.308	28455
810.45	28459
810.591	28352
810.733	28223
810.875	28234
811.016	28219
811.158	28078
811.299	28223
811.441	28238
811.582	28314
811.724	28185
811.865	28166
812.007	28230
812.148	28249
812.29	28329
812.431	28333
812.573	28618
812.714	28569
812.855	28717
812.997	28824
813.138	28949
813.279	28850
813.421	28588
813.562	28725
813.703	28493
813.845	28375
813.986	28109
814.127	27926
814.268	27975
814.41	27926
814.551	27903
814.692	27956
814.833	27823
814.974	27804
815.115	27857
815.256	27675
815.397	27724
815.539	27625
815.68	27694
815.821	27519
815.962	27732
816.103	27717
816.244	27614
816.385	27454
816.526	27435
816.666	27176
816.807	27058
816.948	27302
817.089	27405
817.23	27070
817.371	27195
817.512	27150
817.653	27123
817.793	27199
817.934	27036
818.075	27157
818.216	27176
818.356	27237
818.497	26948
818.638	27017
818.778	26815
818.919	27028
819.06	27077
819.2	27055
819.341	27203
819.481	27317
819.622	27313
819.762	27504
819.903	27336
820.043	27348
820.184	27214
820.324	27157
820.465	27420
820.605	27169
820.746	27408
820.886	27165
821.026	27241
821.167	27302
821.307	27313
821.447	27252
821.588	27138
821.728	27039
821.868	26811
822.008	26731
822.149	26724
822.289	26659
822.429	26309
822.569	26290
822.709	26396
822.849	26168
822.99	26153
823.13	26115
823.27	26214
823.41	26111
823.55	26043
823.69	25944
823.83	25989
823.97	25974
824.11	25826
824.25	25681
824.389	25818
824.529	25868
824.669	25807
824.809	26031
824.949	25947
825.089	26035
825.228	25837
825.368	25696
825.508	25601
825.648	25746
825.787	25738
825.927	25647
826.067	25696
826.206	25666
826.346	25826
826.485	25731
826.625	25655
826.765	25746
826.904	25693
827.044	25426
827.183	25514
827.323	25495
827.462	25483
827.601	25381
827.741	25346
827.88	25369
828.02	25274
828.159	25339
828.298	25449
828.437	25468
828.577	25320
828.716	25514
828.855	25339
828.994	25076
829.134	25061
829.273	25133
829.412	25164
829.551	25061
829.69	25221
829.829	25069
829.968	25164
830.107	25099
830.246	25061
830.385	25107
830.524	25050
830.663	24989
830.802	24848
830.941	24604
831.08	24631
831.219	24795
831.357	24711
831.496	24817
831.635	24711
831.774	24661
831.913	24631
832.051	24483
832.19	24426
832.329	24574
832.467	24369
832.606	24372
832.744	24330
832.883	24399
833.022	24399
833.16	24350
833.299	24517
833.437	24456
833.576	24517
833.714	24604
833.852	24452
833.991	24391
834.129	24521
834.267	24521
834.406	24388
834.544	24620
834.682	24502
834.821	24445
834.959	24661
835.097	24475
835.235	24486
835.373	24414
835.511	24479
835.65	24327
835.788	24311
835.926	24110
836.064	24083
836.202	24038
836.34	24220
836.478	24251
836.615	24296
836.753	24220
836.891	24254
837.029	24365
837.167	24041
837.305	24224
837.443	24125
837.58	24007
837.718	24171
837.856	24136
837.993	24095
838.131	24038
838.269	23942
838.406	23969
838.544	23973
838.681	23870
838.819	23805
838.956	23577
839.094	23543
839.231	23573
839.369	23668
839.506	24038
839.643	23809
839.781	23566
839.918	23520
840.055	23501
840.193	23581
840.33	23482
840.467	23452
840.604	23570
840.742	23748
840.879	23326
841.016	23497
841.153	23337
841.29	23592
841.427	23490
841.564	23592
841.701	23455
841.838	23509
841.975	23353
842.112	23376
842.249	23353
842.385	23212
842.522	23421
842.659	23269
842.796	23174
842.933	23315
843.069	23162
843.206	23254
843.343	23200
843.479	23284
843.616	23155
843.752	23052
843.889	22930
844.025	23117
844.162	23010
844.298	23064
844.435	22987
844.571	22930
844.708	22957
844.844	23178
844.98	23117
845.117	23098
845.253	22991
845.389	22729
845.525	22923
845.661	22885
845.798	22744
845.934	22641
846.07	22847
846.206	22797
846.342	22858
846.478	22771
846.614	22462
846.75	22466
846.886	22531
847.022	22516
847.158	22542
847.294	22531
847.429	22474
847.565	22466
847.701	22622
847.837	22215
847.972	22093
848.108	22329
848.244	22234
848.379	22059
848.515	22048
848.65	21945
848.786	22135
848.921	22006
849.057	22135
849.192	22021
849.328	22120
849.463	22131
849.598	21994
849.734	22029
849.869	22010
850.004	21838
850.14	21842
850.275	21789
850.41	21812
850.545	21770
850.68	21812
850.815	21800
850.95	21781
851.085	22059
851.22	21911
851.355	21766
851.49	21865
851.625	21637
851.76	21739
851.895	21690
852.03	21724
852.165	21842
852.299	21915
852.434	21895
852.569	21816
852.703	21766
852.838	21876
852.973	21850
853.107	21857
853.242	21656
853.376	21625
853.511	21603
853.645	21614
853.78	21755
853.914	21667
854.048	21587
854.183	21614
854.317	21709
854.451	21755
854.585	21633
854.72	21686
854.854	21709
854.988	21561
855.122	21701
855.256	21447
855.39	21469
855.524	21629
855.658	21724
855.792	21473
855.926	21633
856.06	21720
856.194	21759
856.327	21644
856.461	21644
856.595	21641
856.729	21667
856.862	21709
856.996	21690
857.13	21785
857.263	21778
857.397	21808
857.53	21572
857.664	21736
857.797	21694
857.931	21713
858.064	21686
858.197	21850
858.331	21648
858.464	21572
858.597	21553
858.731	21576
858.864	21580
858.997	21572
859.13	21603
859.263	21751
859.396	21713
859.529	21679
859.662	21564
859.795	21595
859.928	21603
860.061	21751
860.194	21888
860.327	21660
860.46	21580
860.592	21701
860.725	21766
860.858	21762
860.99	21648
861.123	21526
861.256	21591
861.388	21625
861.521	22192
861.653	21492
861.786	21538
861.918	21504
862.05	21504
862.183	21561
862.315	21526
862.447	21633
862.58	21538
862.712	21408
862.844	21249
862.976	21481
863.108	21454
863.24	21903
863.372	21291
863.504	21367
863.636	21348
863.768	21393
863.9	21291
864.032	21325
864.164	21317
864.296	21294
864.428	21370
864.559	21496
864.691	21408
864.823	21450
864.954	21367
865.086	21192
865.217	21294
865.349	21241
865.48	21245
865.612	21317
865.743	21466
865.875	21241
866.006	21268
866.137	21264
866.269	21294
866.4	21237
866.531	21252
866.662	21116
866.793	21093
866.924	21230
867.055	21302
867.186	21252
867.317	21081
867.448	21108
867.579	21100
867.71	21180
867.841	21138
867.972	21195
868.103	21256
868.233	21135
868.364	21192
868.495	21226
868.625	21431
868.756	21473
868.886	21294
869.017	21416
869.147	21591
869.278	21564
869.408	21530
869.539	21424
869.669	21424
869.799	21424
869.929	21576
870.06	21538
870.19	21793
870.32	21694
870.45	21694
870.58	21774
870.71	21960
870.84	21884
870.97	21724
871.1	21663
871.23	22120
871.36	22154
871.489	21884
871.619	21903
871.749	21953
871.879	22067
872.008	22143
872.138	21998
872.267	22021
872.397	21873
872.526	21827
872.656	21865
872.785	21774
872.915	22036
873.044	22116
873.173	22048
873.303	22063
873.432	22090
873.561	22169
873.69	22021
873.819	22025
873.948	22051
874.077	22070
874.206	22032
874.335	21994
874.464	22112
874.593	22268
874.722	22352
874.851	22223
874.979	22314
875.108	22154
875.237	22276
875.365	22131
875.494	22344
875.623	22402
875.751	22268
875.88	22295
876.008	22344
876.136	22504
876.265	22615
876.393	22736
876.521	22740
876.65	22649
876.778	22569
876.906	22626
877.034	22546
877.162	22542
877.29	22542
877.418	22603
877.546	22637
877.674	22653
877.802	22622
877.93	22462
878.058	22622
878.185	22462
878.313	22516
878.441	22577
878.568	22485
878.696	22694
878.824	22550
878.951	22577
879.079	22774
879.206	22927
879.333	22691
879.461	22637
879.588	22664
879.715	22843
879.842	22927
879.97	22691
880.097	22443
880.224	22413
880.351	22485
880.478	22390
880.605	22409
880.732	22405
880.859	22706
880.986	22432
881.112	22356
881.239	22181
881.366	22257
881.493	22196
881.619	22090
881.746	21968
881.872	22074
881.999	22109
882.125	21979
882.252	21937
882.378	21953
882.505	22166
882.631	21747
882.757	21762
882.883	21778
883.01	21774
883.136	21660
883.262	21549
883.388	21557
883.514	21835
883.64	21641
883.766	21572
883.892	21473
884.018	21386
884.143	21549
884.269	21736
884.395	21454
884.52	21351
884.646	21241
884.772	21211
884.897	21294
885.023	21268
885.148	21397
885.274	21561
885.399	21496
885.524	21386
885.65	21370
885.775	21389
885.9	21363
886.025	21504
886.15	21283
886.275	21294
886.4	21180
886.525	21214
886.65	21127
886.775	21287
886.9	21473
887.025	21431
887.149	21355
887.274	21195
887.399	21062
887.523	21055
887.648	21028
887.773	20998
887.897	21222
888.021	21195
888.146	20918
888.27	21184
888.395	21165
888.519	21142
888.643	21237
888.767	21074
888.891	20948
889.015	20925
889.139	20910
889.263	20876
889.387	21009
889.511	20994
889.635	21081
889.759	20834
889.883	20872
890.006	21058
890.13	20956
890.254	20823
890.377	20739
890.501	20686
890.624	20674
890.748	20701
890.871	20579
890.995	20431
891.118	20309
891.241	20469
891.364	20438
891.488	20636
891.611	20560
891.734	20503
891.857	20537
891.98	20446
892.103	20537
892.226	20415
892.349	20499
892.471	20206
892.594	20366
892.717	20564
892.839	20385
892.962	20385
893.085	20389
893.207	20328
893.33	20206
893.452	20199
893.575	20476
893.697	20267
893.819	20533
893.941	20495
894.064	20484
894.186	20286
894.308	20210
894.43	20385
894.552	20514
894.674	20351
894.796	20206
894.918	20404
895.04	20301
895.161	20278
895.283	20419
895.405	20195
895.526	20374
895.648	20362
895.769	20313
895.891	20263
896.012	20404
896.134	20374
896.255	20290
896.376	20362
896.498	20480
896.619	20320
896.74	20343
896.861	20320
896.982	20640
897.103	20807
897.224	20693
897.345	20606
897.466	20476
897.587	20564
897.708	20693
897.828	20511
897.949	20571
898.07	20400
898.19	20473
898.311	20629
898.431	20564
898.552	20541
898.672	20651
898.792	20545
898.913	20473
899.033	20495
899.153	20431
899.273	20183
899.393	20317
899.513	20522
899.633	20385
899.753	20355
899.873	20370
899.993	20301
900.113	20248
900.232	20317
900.352	20218
900.472	20145
900.591	20130
900.711	20142
900.83	20084
900.95	20199
901.069	20142
901.189	20062
901.308	19761
901.427	19616
901.546	19734
901.665	19715
901.784	19769
901.904	19518
902.023	19548
902.141	19324
902.26	19244
902.379	19308
902.498	19228
902.617	19126
902.735	19190
902.854	19099
902.973	19103
903.091	18894
903.21	18749
903.328	18806
903.446	18688
903.565	18669
903.683	18620
903.801	18521
903.919	18654
904.038	18677
904.156	18452
904.274	18563
904.392	18350
904.51	18418
904.627	18388
904.745	18502
904.863	18536
904.981	18216
905.098	18129
905.216	18114
905.334	18216
905.451	18068
905.569	18125
905.686	18095
905.803	18019
905.921	17973
906.038	17961
906.155	17847
906.272	17767
906.389	17752
906.506	17600
906.623	17699
906.74	17680
906.857	17516
906.974	17505
907.091	17615
907.208	17627
907.324	17665
907.441	17478
907.557	17364
907.674	17353
907.79	17265
907.907	17299
908.023	17337
908.139	17345
908.256	17140
908.372	17307
908.488	17143
908.604	17033
908.72	17067
908.836	17014
908.952	16991
909.068	17094
909.184	17185
909.3	17094
909.415	17098
909.531	17067
909.647	16759
909.762	16778
909.878	16698
909.993	16816
910.108	16725
910.224	16740
910.339	16801
910.454	16535
910.57	16500
910.685	16523
910.8	16755
910.915	16702
911.03	16546
911.145	16405
911.259	16318
911.374	16379
911.489	16287
911.604	16219
911.718	16078
911.833	16086
911.947	15937
912.062	15888
912.176	16135
912.291	16101
912.405	16025
912.519	16257
912.633	16249
912.748	16086
912.862	16025
912.976	15937
913.09	15736
913.204	15934
913.318	15907
913.431	15998
913.545	15884
913.659	15979
913.772	15838
913.886	15747
914	15652
914.113	15831
914.226	15789
914.34	15778
914.453	15511
914.566	15682
914.68	15561
914.793	15504
914.906	15272
915.019	15344
915.132	15260
915.245	15245
915.358	15363
915.47	15291
915.583	15237
915.696	15351
915.809	15382
915.921	15447
916.034	15226
916.146	15268
916.259	15245
916.371	15302
916.483	15291
916.595	15135
916.708	15169
916.82	15123
916.932	15017
917.044	15013
917.156	15047
917.268	14887
917.38	15005
917.491	14937
917.603	15036
917.715	15074
917.826	15039
917.938	15024
918.049	14811
918.161	14971
918.272	14975
918.384	14994
918.495	14880
918.606	14788
918.717	14678
918.828	14674
918.939	14765
919.05	14613
919.161	14682
919.272	14408
919.383	14507
919.494	14632
919.604	14925
919.715	14731
919.826	14526
919.936	14629
920.047	14697
920.157	14785
920.267	14853
920.378	14636
920.488	14686
920.598	14804
920.708	15001
920.818	14735
920.928	14781
921.038	14914
921.148	14921
921.258	14648
921.368	14507
921.477	14431
921.587	14336
921.697	14229
921.806	14457
921.916	14229
922.025	14077
922.134	14027
922.244	13974
922.353	14161
922.462	13928
922.571	13849
922.68	13746
922.789	13670
922.898	13708
923.007	13620
923.116	13681
923.224	13700
923.333	13636
923.442	13434
923.55	13460
923.659	13548
923.767	13567
923.876	13525
923.984	13411
924.092	13384
924.201	13449
924.309	13335
924.417	13289
924.525	13327
924.633	13392
924.741	14320
924.849	13225
924.956	13377
925.064	13103
925.172	13027
925.279	13091
925.387	13149
925.494	13042
925.602	13160
925.709	13160
925.816	12939
925.924	13034
926.031	13107
926.138	12996
926.245	13072
926.352	12935
926.459	13118
926.566	13133
926.673	13027
926.779	12875
926.886	12916
926.993	12677
927.099	12582
927.206	12620
927.312	12479
927.419	12688
927.525	12570
927.631	12658
927.737	12574
927.843	12513
927.95	12429
928.056	12441
928.162	12452
928.267	12532
928.373	13168
928.479	12471
928.585	12433
928.69	12471
928.796	12426
928.901	12399
929.007	12136
929.112	12410
929.218	12270
929.323	12209
929.428	12117
929.533	12315
929.638	12133
929.743	12053
929.848	12209
929.953	12129
930.058	12026
930.163	11939
930.267	11931
930.372	12019
930.477	11752
930.581	12133
930.685	11931
930.79	11733
930.894	11859
930.998	11748
931.103	11847
931.207	11501
931.311	11444
931.415	11334
931.519	11143
931.623	11189
