Data from test_V78500241_1540.txt Node
Date: Fri Mar 25 15:52:28 CST 2022
User: usil
Spectrometer: V785-0024
Trigger mode: 0
Integration Time (sec): 4.000000E-1
Scans to average: 1
Nonlinearity correction enabled: false
Boxcar width: 0
Storing dark spectrum: false
XAxis mode: Wavelengths
Number of Pixels in Spectrum: 1024
>>>>>Begin Spectral Data<<<<<
801.071	28185
801.214	28010
801.356	27869
801.499	27850
801.641	27637
801.783	27698
801.926	27747
802.068	27641
802.211	27660
802.353	27603
802.496	27306
802.638	27214
802.78	27386
802.923	27268
803.065	27218
803.208	27348
803.35	27564
803.492	27572
803.635	27389
803.777	27488
803.919	27629
804.061	27907
804.204	27641
804.346	27610
804.488	27485
804.63	27538
804.773	27542
804.915	27698
805.057	27663
805.199	27526
805.341	27545
805.483	27781
805.626	27755
805.768	27682
805.91	27816
806.052	27747
806.194	27759
806.336	27975
806.478	27873
806.62	27816
806.762	27838
806.904	27892
807.046	28169
807.188	28196
807.33	28223
807.472	28246
807.614	28112
807.756	27994
807.898	27953
808.04	28036
808.182	27987
808.324	27994
808.465	28017
808.607	28306
808.749	28303
808.891	28523
809.033	28637
809.174	28451
809.316	28375
809.458	28325
809.6	28519
809.741	28538
809.883	28462
810.025	28755
810.166	28717
810.308	28744
810.45	28706
810.591	28656
810.733	28398
810.875	28337
811.016	28215
811.158	28360
811.299	28485
811.441	28508
811.582	28622
811.724	28432
811.865	28386
812.007	28497
812.148	28497
812.29	28382
812.431	28569
812.573	28603
812.714	28797
812.855	28858
812.997	29060
813.138	29151
813.279	29056
813.421	28972
813.562	28915
813.703	28649
813.845	28733
813.986	28382
814.127	28223
814.268	28078
814.41	28223
814.551	28017
814.692	28215
814.833	28048
814.974	27983
815.115	28128
815.256	28017
815.397	27949
815.539	27930
815.68	27808
815.821	27835
815.962	27884
816.103	27838
816.244	27743
816.385	27720
816.526	27709
816.666	27420
816.807	27329
816.948	27386
817.089	27443
817.23	27382
817.371	27462
817.512	27340
817.653	27252
817.793	27367
817.934	27329
818.075	27519
818.216	27370
818.356	27351
818.497	27386
818.638	27131
818.778	27264
818.919	27287
819.06	27211
819.2	27321
819.341	27447
819.481	27412
819.622	27500
819.762	27690
819.903	27549
820.043	27629
820.184	27462
820.324	27603
820.465	27553
820.605	27572
820.746	27534
820.886	27420
821.026	27469
821.167	27534
821.307	27561
821.447	27492
821.588	27332
821.728	27283
821.868	26960
822.008	26929
822.149	26853
822.289	26948
822.429	26632
822.569	26575
822.709	26606
822.849	26396
822.99	26267
823.13	26336
823.27	26267
823.41	26244
823.55	26122
823.69	26111
823.83	26271
823.97	26115
824.11	26005
824.25	25894
824.389	26107
824.529	26183
824.669	26043
824.809	26069
824.949	26145
825.089	26100
825.228	26084
825.368	25852
825.508	25928
825.648	25955
825.787	26043
825.927	25940
826.067	25898
826.206	26043
826.346	26012
826.485	25978
826.625	25917
826.765	26008
826.904	26031
827.044	25643
827.183	25674
827.323	25776
827.462	25719
827.601	25753
827.741	25632
827.88	25712
828.02	25624
828.159	25635
828.298	25674
828.437	25655
828.577	25590
828.716	25738
828.855	25449
828.994	25339
829.134	25381
829.273	25324
829.412	25293
829.551	25270
829.69	25343
829.829	25457
829.968	25358
830.107	25392
830.246	25365
830.385	25263
830.524	25152
830.663	25088
830.802	25050
830.941	24848
831.08	25042
831.219	24947
831.357	24970
831.496	25023
831.635	24947
831.774	24939
831.913	24814
832.051	24757
832.19	24700
832.329	24859
832.467	24722
832.606	24642
832.744	24608
832.883	24715
833.022	24616
833.16	24623
833.299	24589
833.437	24532
833.576	24753
833.714	24673
833.852	24521
833.991	24852
834.129	24688
834.267	24768
834.406	24601
834.544	24859
834.682	24654
834.821	24684
834.959	24814
835.097	24627
835.235	24711
835.373	24722
835.511	24745
835.65	24604
835.788	24471
835.926	24448
836.064	24380
836.202	24388
836.34	24460
836.478	24532
836.615	24422
836.753	24369
836.891	24532
837.029	24536
837.167	24380
837.305	24342
837.443	24422
837.58	24365
837.718	24471
837.856	24365
837.993	24152
838.131	24251
838.269	24323
838.406	24319
838.544	24186
838.681	24003
838.819	23984
838.956	23710
839.094	23707
839.231	23760
839.369	24041
839.506	24125
839.643	23939
839.781	23958
839.918	23786
840.055	23859
840.193	23737
840.33	23657
840.467	23661
840.604	23756
840.742	24038
840.879	23634
841.016	23680
841.153	23703
841.29	23714
841.427	23657
841.564	23634
841.701	23752
841.838	23703
841.975	23653
842.112	23676
842.249	23600
842.385	23444
842.522	23863
842.659	23554
842.796	23387
842.933	23474
843.069	23159
843.206	23436
843.343	23436
843.479	23501
843.616	23505
843.752	23102
843.889	23345
844.025	23307
844.162	23235
844.298	23296
844.435	23197
844.571	23140
844.708	23292
844.844	23368
844.98	23318
845.117	23337
845.253	23208
845.389	23094
845.525	23204
845.661	23117
845.798	23037
845.934	22965
846.07	22908
846.206	22900
846.342	22980
846.478	22862
846.614	22793
846.75	22630
846.886	22668
847.022	22664
847.158	22809
847.294	22660
847.429	22771
847.565	22706
847.701	23006
847.837	22512
847.972	22363
848.108	22481
848.244	22474
848.379	22230
848.515	22268
848.65	22276
848.786	22249
848.921	22318
849.057	22398
849.192	22447
849.328	22188
849.463	22284
849.598	22150
849.734	22139
849.869	22044
850.004	22086
850.14	22070
850.275	22173
850.41	22048
850.545	21972
850.68	22093
850.815	22196
850.95	22048
851.085	22169
851.22	22226
851.355	21979
851.49	22109
851.625	21918
851.76	22097
851.895	21941
852.03	21842
852.165	22029
852.299	22082
852.434	22139
852.569	22051
852.703	22013
852.838	22128
852.973	22143
853.107	22166
853.242	22051
853.376	21930
853.511	21800
853.645	21876
853.78	21911
853.914	21785
854.048	21819
854.183	21785
854.317	21956
854.451	21991
854.585	21888
854.72	21911
854.854	22044
854.988	21865
855.122	21895
855.256	21816
855.39	21838
855.524	21979
855.658	21842
855.792	21842
855.926	21880
856.06	21884
856.194	22063
856.327	21762
856.461	21808
856.595	21850
856.729	21819
856.862	21991
856.996	21937
857.13	21937
857.263	21941
857.397	21937
857.53	21663
857.664	21998
857.797	21884
857.931	22010
858.064	21857
858.197	21888
858.331	21960
858.464	21739
858.597	21812
858.731	21960
858.864	21835
858.997	21808
859.13	21857
859.263	21937
859.396	21911
859.529	21690
859.662	21846
859.795	21823
859.928	21835
860.061	22135
860.194	22074
860.327	21926
860.46	21812
860.592	22070
860.725	22173
860.858	22078
860.99	21945
861.123	21778
861.256	21865
861.388	21838
861.521	22428
861.653	21694
861.786	21576
861.918	21728
862.05	21850
862.183	22032
862.315	21926
862.447	21854
862.58	21865
862.712	21629
862.844	21481
862.976	21595
863.108	21648
863.24	22029
863.372	21526
863.504	21572
863.636	21553
863.768	21656
863.9	21622
864.032	21523
864.164	21469
864.296	21618
864.428	21648
864.559	21747
864.691	21656
864.823	21564
864.954	21507
865.086	21530
865.217	21397
865.349	21374
865.48	21462
865.612	21416
865.743	21610
865.875	21511
866.006	21416
866.137	21416
866.269	21458
866.4	21496
866.531	21526
866.662	21416
866.793	21272
866.924	21348
867.055	21382
867.186	21401
867.317	21329
867.448	21272
867.579	21363
867.71	21447
867.841	21412
867.972	21393
868.103	21359
868.233	21405
868.364	21450
868.495	21504
868.625	21599
868.756	21762
868.886	21701
869.017	21648
869.147	21743
869.278	21720
869.408	21690
869.539	21629
869.669	21797
869.799	21599
869.929	21838
870.06	21766
870.19	22021
870.32	21911
870.45	22078
870.58	21994
870.71	22063
870.84	22150
870.97	22048
871.1	21998
871.23	22128
871.36	22215
871.489	22200
871.619	22078
871.749	22249
871.879	22265
872.008	22428
872.138	22162
872.267	22299
872.397	22147
872.526	22090
872.656	22032
872.785	21987
872.915	22249
873.044	22333
873.173	22185
873.303	22341
873.432	22268
873.561	22234
873.69	22246
873.819	22306
873.948	22344
874.077	22173
874.206	22185
874.335	22348
874.464	22333
874.593	22493
874.722	22493
874.851	22481
874.979	22474
875.108	22554
875.237	22535
875.365	22428
875.494	22440
875.623	22565
875.751	22356
875.88	22394
876.008	22561
876.136	22615
876.265	22862
876.393	22965
876.521	22972
876.65	22938
876.778	22809
876.906	22858
877.034	22748
877.162	22896
877.29	22733
877.418	22923
877.546	22805
877.674	22885
877.802	22847
877.93	22881
878.058	22725
878.185	22740
878.313	22862
878.441	22748
878.568	22561
878.696	22618
878.824	22828
878.951	22957
879.079	22980
879.206	23041
879.333	23003
879.461	22881
879.588	23105
879.715	22984
879.842	23037
879.97	22828
880.097	22668
880.224	22698
880.351	22611
880.478	22698
880.605	22599
880.732	22615
880.859	22938
880.986	22607
881.112	22664
881.239	22497
881.366	22333
881.493	22314
881.619	22204
881.746	22287
881.872	22344
881.999	22211
882.125	22036
882.252	22284
882.378	22086
882.505	22356
882.631	22078
882.757	21873
882.883	22048
883.01	21941
883.136	21831
883.262	21819
883.388	21755
883.514	21850
883.64	21892
883.766	21774
883.892	21675
884.018	21842
884.143	21842
884.269	21888
884.395	21629
884.52	21405
884.646	21534
884.772	21431
884.897	21435
885.023	21580
885.148	21549
885.274	21686
885.399	21652
885.524	21564
885.65	21538
885.775	21530
885.9	21538
886.025	21545
886.15	21625
886.275	21553
886.4	21454
886.525	21629
886.65	21526
886.775	21466
886.9	21591
887.025	21663
887.149	21519
887.274	21321
887.399	21226
887.523	21306
887.648	21336
887.773	21199
887.897	21431
888.021	21252
888.146	21241
888.27	21272
888.395	21412
888.519	21272
888.643	21306
888.767	21321
888.891	21180
889.015	21100
889.139	21195
889.263	21051
889.387	21176
889.511	21351
889.635	21112
889.759	21074
889.883	21013
890.006	21028
890.13	21230
890.254	20979
890.377	21047
890.501	20807
890.624	20765
890.748	20849
890.871	20796
890.995	20689
891.118	20689
891.241	20682
891.364	20720
891.488	20697
891.611	20617
891.734	20617
891.857	20686
891.98	20655
892.103	20708
892.226	20663
892.349	20549
892.471	20423
892.594	20636
892.717	20590
892.839	20556
892.962	20697
893.085	20678
893.207	20434
893.33	20355
893.452	20518
893.575	20670
893.697	20438
893.819	20625
893.941	20708
894.064	20629
894.186	20499
894.308	20503
894.43	20545
894.552	20708
894.674	20621
894.796	20488
894.918	20495
895.04	20545
895.161	20469
895.283	20583
895.405	20545
895.526	20556
895.648	20461
895.769	20511
895.891	20640
896.012	20583
896.134	20537
896.255	20514
896.376	20495
896.498	20583
896.619	20617
896.74	20560
896.861	20564
896.982	20887
897.103	20963
897.224	20815
897.345	20701
897.466	20621
897.587	20899
897.708	20819
897.828	20788
897.949	20682
898.07	20568
898.19	20621
898.311	20769
898.431	20686
898.552	20606
898.672	20792
898.792	20781
898.913	20830
899.033	20629
899.153	20587
899.273	20469
899.393	20457
899.513	20526
899.633	20465
899.753	20530
899.873	20404
899.993	20457
900.113	20423
900.232	20389
900.352	20419
900.472	20221
900.591	20237
900.711	20263
900.83	20100
900.95	20301
901.069	20336
901.189	20119
901.308	19894
901.427	19780
901.546	19807
901.665	19852
901.784	19841
901.904	19818
902.023	19616
902.141	19343
902.26	19339
902.379	19460
902.498	19221
902.617	19320
902.735	19411
902.854	19308
902.973	19282
903.091	19053
903.21	18993
903.328	19027
903.446	19034
903.565	18795
903.683	18722
903.801	18749
903.919	18779
904.038	18715
904.156	18627
904.274	18810
904.392	18604
904.51	18597
904.627	18597
904.745	18582
904.863	18658
904.981	18384
905.098	18182
905.216	18209
905.334	18266
905.451	18216
905.569	18232
905.686	18197
905.803	18334
905.921	18041
906.038	18232
906.155	18015
906.272	18003
906.389	17996
906.506	17680
906.623	17866
906.74	17665
906.857	17653
906.974	17691
907.091	17805
907.208	17901
907.324	17790
907.441	17661
907.557	17604
907.674	17345
907.79	17471
907.907	17429
908.023	17524
908.139	17414
908.256	17395
908.372	17406
908.488	17303
908.604	17147
908.72	17189
908.836	17280
908.952	17193
909.068	17269
909.184	17307
909.3	17258
909.415	17303
909.531	17155
909.647	16847
909.762	16934
909.878	16919
909.993	16847
910.108	16930
910.224	16869
910.339	16847
910.454	16748
910.57	16748
910.685	16729
910.8	16987
910.915	16843
911.03	16710
911.145	16516
911.259	16588
911.374	16497
911.489	16478
911.604	16405
911.718	16200
911.833	16173
911.947	16238
912.062	16082
912.176	16295
912.291	16234
912.405	16249
912.519	16417
912.633	16409
912.748	16257
912.862	16265
912.976	16032
913.09	15953
913.204	16090
913.318	16036
913.431	16150
913.545	16067
913.659	16093
913.772	16021
913.886	15918
914	15930
914.113	15911
914.226	15975
914.34	15964
914.453	15751
914.566	15907
914.68	15618
914.793	15774
914.906	15610
915.019	15431
915.132	15420
915.245	15428
915.358	15447
915.47	15401
915.583	15401
915.696	15344
915.809	15549
915.921	15599
916.034	15420
916.146	15344
916.259	15420
916.371	15332
916.483	15329
916.595	15169
916.708	15317
916.82	15291
916.932	15359
917.044	15203
917.156	15180
917.268	15108
917.38	15184
917.491	14994
917.603	15089
917.715	15135
917.826	15127
917.938	15089
918.049	14933
918.161	15089
918.272	15195
918.384	15154
918.495	15058
918.606	14952
918.717	14762
918.828	14864
918.939	14872
919.05	14765
919.161	14853
919.272	14590
919.383	14636
919.494	14864
919.604	15074
919.715	14853
919.826	14788
919.936	14716
920.047	14788
920.157	14815
920.267	14975
920.378	14861
920.488	14682
920.598	14944
920.708	15039
920.818	14948
920.928	14853
921.038	15077
921.148	15077
921.258	14739
921.368	14659
921.477	14610
921.587	14511
921.697	14400
921.806	14499
921.916	14446
922.025	14218
922.134	14176
922.244	14035
922.353	14172
922.462	14005
922.571	14001
922.68	13837
922.789	13784
922.898	13765
923.007	13765
923.116	13875
923.224	13761
923.333	13689
923.442	13719
923.55	13597
923.659	13681
923.767	13731
923.876	13601
923.984	13708
924.092	13487
924.201	13540
924.309	13590
924.417	13616
924.525	13453
924.633	13476
924.741	14393
924.849	13240
924.956	13263
925.064	13247
925.172	13152
925.279	13133
925.387	13129
925.494	13137
925.602	13316
925.709	13304
925.816	13107
925.924	13099
926.031	13232
926.138	13171
926.245	13217
926.352	13080
926.459	13171
926.566	13164
926.673	13141
926.779	13057
926.886	12875
926.993	12776
927.099	12738
927.206	12875
927.312	12715
927.419	12837
927.525	12745
927.631	12749
927.737	12570
927.843	12604
927.95	12422
928.056	12559
928.162	12627
928.267	12631
928.373	13240
928.479	12734
928.585	12350
928.69	12486
928.796	12517
928.901	12452
929.007	12338
929.112	12422
929.218	12407
929.323	12342
929.428	12247
929.533	12460
929.638	12281
929.743	12220
929.848	12289
929.953	12243
930.058	12121
930.163	11958
930.267	12007
930.372	12110
930.477	11939
930.581	12129
930.685	11996
930.79	11874
930.894	11935
930.998	11855
931.103	12049
931.207	11611
931.311	11539
931.415	11429
931.519	11296
931.623	11220
