Data from test_V78500241_2715.txt Node
Date: Fri Mar 25 16:00:36 CST 2022
User: usil
Spectrometer: V785-0024
Trigger mode: 0
Integration Time (sec): 4.000000E-1
Scans to average: 1
Nonlinearity correction enabled: false
Boxcar width: 0
Storing dark spectrum: false
XAxis mode: Wavelengths
Number of Pixels in Spectrum: 1024
>>>>>Begin Spectral Data<<<<<
801.071	28759
801.214	28675
801.356	28459
801.499	28367
801.641	28421
801.783	28265
801.926	28481
802.068	28322
802.211	28234
802.353	28200
802.496	28112
802.638	28002
802.78	27987
802.923	27873
803.065	28040
803.208	27941
803.35	28070
803.492	28063
803.635	28204
803.777	28086
803.919	28257
804.061	28596
804.204	28207
804.346	28249
804.488	28090
804.63	28249
804.773	28314
804.915	28390
805.057	28344
805.199	28341
805.341	28363
805.483	28447
805.626	28398
805.768	28459
805.91	28318
806.052	28447
806.194	28398
806.336	28637
806.478	28356
806.62	28379
806.762	28740
806.904	28603
807.046	29010
807.188	28930
807.33	28946
807.472	28869
807.614	28736
807.756	28858
807.898	28702
808.04	28618
808.182	28721
808.324	28809
808.465	28668
808.607	29006
808.749	29102
808.891	29140
809.033	29337
809.174	29311
809.316	29033
809.458	29102
809.6	29071
809.741	29166
809.883	29307
810.025	29531
810.166	29512
810.308	29486
810.45	29402
810.591	29269
810.733	29071
810.875	29121
811.016	29052
811.158	29140
811.299	29075
811.441	29364
811.582	29311
811.724	29147
811.865	29105
812.007	29208
812.148	29200
812.29	29140
812.431	29379
812.573	29402
812.714	29543
812.855	29657
812.997	29760
813.138	29718
813.279	29836
813.421	29680
813.562	29562
813.703	29649
813.845	29265
813.986	29200
814.127	28885
814.268	28828
814.41	28885
814.551	28957
814.692	28915
814.833	28850
814.974	28976
815.115	28752
815.256	28736
815.397	28835
815.539	28759
815.68	28634
815.821	28668
815.962	28588
816.103	28668
816.244	28706
816.385	28580
816.526	28432
816.666	28246
816.807	28082
816.948	28291
817.089	28303
817.23	28253
817.371	28128
817.512	28147
817.653	28002
817.793	28078
817.934	28207
818.075	28185
818.216	28162
818.356	28131
818.497	27895
818.638	27911
818.778	27892
818.919	28002
819.06	27979
819.2	28090
819.341	28082
819.481	28120
819.622	28405
819.762	28588
819.903	28523
820.043	28398
820.184	28112
820.324	28230
820.465	28310
820.605	28333
820.746	28246
820.886	28226
821.026	28242
821.167	28230
821.307	28341
821.447	28306
821.588	28070
821.728	27895
821.868	27831
822.008	27545
822.149	27679
822.289	27629
822.429	27450
822.569	27370
822.709	27401
822.849	27123
822.99	27203
823.13	27112
823.27	27142
823.41	27032
823.55	26914
823.69	26880
823.83	27131
823.97	26944
824.11	26807
824.25	26735
824.389	26914
824.529	26826
824.669	26796
824.809	26940
824.949	26838
825.089	26956
825.228	26811
825.368	26621
825.508	26636
825.648	26629
825.787	26788
825.927	26842
826.067	26765
826.206	26727
826.346	26758
826.485	26750
826.625	26804
826.765	26731
826.904	26788
827.044	26423
827.183	26499
827.323	26488
827.462	26404
827.601	26469
827.741	26328
827.88	26564
828.02	26275
828.159	26328
828.298	26393
828.437	26541
828.577	26263
828.716	26404
828.855	26374
828.994	26062
829.134	26149
829.273	26100
829.412	26043
829.551	26065
829.69	26043
829.829	26248
829.968	26187
830.107	26195
830.246	26073
830.385	25986
830.524	25902
830.663	25982
830.802	25875
830.941	25632
831.08	25738
831.219	25906
831.357	25750
831.496	25871
831.635	25715
831.774	25700
831.913	25537
832.051	25514
832.19	25567
832.329	25441
832.467	25441
832.606	25377
832.744	25270
832.883	25441
833.022	25335
833.16	25377
833.299	25392
833.437	25228
833.576	25540
833.714	25392
833.852	25514
833.991	25430
834.129	25533
834.267	25445
834.406	25578
834.544	25491
834.682	25434
834.821	25426
834.959	25559
835.097	25594
835.235	25567
835.373	25514
835.511	25392
835.65	25164
835.788	25327
835.926	25103
836.064	24958
836.202	25015
836.34	25221
836.478	25369
836.615	25190
836.753	25259
836.891	25381
837.029	25343
837.167	25183
837.305	25198
837.443	25240
837.58	25012
837.718	25095
837.856	25148
837.993	25008
838.131	24996
838.269	24992
838.406	25088
838.544	24886
838.681	24715
838.819	24730
838.956	24532
839.094	24631
839.231	24528
839.369	24772
839.506	24924
839.643	24795
839.781	24555
839.918	24578
840.055	24521
840.193	24517
840.33	24369
840.467	24494
840.604	24566
840.742	24768
840.879	24300
841.016	24296
841.153	24342
841.29	24559
841.427	24300
841.564	24517
841.701	24467
841.838	24464
841.975	24201
842.112	24270
842.249	24391
842.385	24311
842.522	24471
842.659	24194
842.796	24277
842.933	24091
843.069	24133
843.206	24216
843.343	24334
843.479	24216
843.616	24152
843.752	24011
843.889	23927
844.025	24049
844.162	23908
844.298	24232
844.435	23912
844.571	23935
844.708	24015
844.844	24129
844.98	24091
845.117	24144
845.253	23817
845.389	23733
845.525	23882
845.661	23703
845.798	23524
845.934	23817
846.07	23703
846.206	23832
846.342	23802
846.478	23611
846.614	23478
846.75	23436
846.886	23398
847.022	23634
847.158	23490
847.294	23429
847.429	23596
847.565	23421
847.701	23672
847.837	23155
847.972	23083
848.108	23204
848.244	23231
848.379	23041
848.515	23079
848.65	23025
848.786	23025
848.921	23052
849.057	23098
849.192	23140
849.328	23056
849.463	23079
849.598	22866
849.734	22866
849.869	22790
850.004	22869
850.14	22854
850.275	22866
850.41	22702
850.545	22733
850.68	22733
850.815	22839
850.95	22831
851.085	23113
851.22	22919
851.355	22915
851.49	22763
851.625	22763
851.76	22854
851.895	22755
852.03	22752
852.165	22755
852.299	22854
852.434	22797
852.569	22847
852.703	22687
852.838	22843
852.973	22877
853.107	22866
853.242	22660
853.376	22774
853.511	22489
853.645	22584
853.78	22679
853.914	22748
854.048	22653
854.183	22626
854.317	22733
854.451	22839
854.585	22584
854.72	22607
854.854	22645
854.988	22489
855.122	22668
855.256	22497
855.39	22596
855.524	22645
855.658	22500
855.792	22626
855.926	22451
856.06	22672
856.194	22641
856.327	22459
856.461	22630
856.595	22546
856.729	22599
856.862	22577
856.996	22729
857.13	22778
857.263	22717
857.397	22603
857.53	22546
857.664	22645
857.797	22717
857.931	22611
858.064	22675
858.197	22691
858.331	22607
858.464	22569
858.597	22398
858.731	22565
858.864	22493
858.997	22527
859.13	22569
859.263	22641
859.396	22694
859.529	22478
859.662	22599
859.795	22592
859.928	22557
860.061	22972
860.194	22824
860.327	22755
860.46	22664
860.592	22786
860.725	22767
860.858	22839
860.99	22687
861.123	22683
861.256	22538
861.388	22763
861.521	23315
861.653	22432
861.786	22462
861.918	22447
862.05	22459
862.183	22554
862.315	22596
862.447	22516
862.58	22538
862.712	22234
862.844	22299
862.976	22348
863.108	22379
863.24	22805
863.372	22238
863.504	22436
863.636	22356
863.768	22363
863.9	22325
864.032	22223
864.164	22337
864.296	22295
864.428	22504
864.559	22436
864.691	22329
864.823	22341
864.954	22413
865.086	22276
865.217	22215
865.349	22135
865.48	22234
865.612	22128
865.743	22284
865.875	22314
866.006	22154
866.137	22185
866.269	22086
866.4	22204
866.531	22162
866.662	22032
866.793	22006
866.924	22166
867.055	22101
867.186	22177
867.317	22082
867.448	22017
867.579	22158
867.71	22044
867.841	21934
867.972	22021
868.103	22070
868.233	21987
868.364	22139
868.495	22147
868.625	22356
868.756	22352
868.886	22318
869.017	22390
869.147	22390
869.278	22546
869.408	22421
869.539	22344
869.669	22459
869.799	22375
869.929	22493
870.06	22481
870.19	22721
870.32	22710
870.45	22672
870.58	22755
870.71	22892
870.84	22881
870.97	22725
871.1	22717
871.23	22782
871.36	22946
871.489	22892
871.619	22995
871.749	22835
871.879	22942
872.008	22968
872.138	23029
872.267	22900
872.397	22767
872.526	22733
872.656	22675
872.785	22759
872.915	23090
873.044	23044
873.173	23010
873.303	22999
873.432	23003
873.561	23102
873.69	22980
873.819	22946
873.948	23098
874.077	22995
874.206	22946
874.335	22991
874.464	23098
874.593	23174
874.722	23227
874.851	23159
874.979	23200
875.108	23147
875.237	23193
875.365	23090
875.494	23178
875.623	23242
875.751	23128
875.88	23174
876.008	23254
876.136	23322
876.265	23676
876.393	23703
876.521	23539
876.65	23608
876.778	23623
876.906	23577
877.034	23566
877.162	23558
877.29	23524
877.418	23531
877.546	23482
877.674	23535
877.802	23486
877.93	23512
878.058	23395
878.185	23345
878.313	23364
878.441	23471
878.568	23353
878.696	23455
878.824	23528
878.951	23573
879.079	23642
879.206	23824
879.333	23718
879.461	23630
879.588	23764
879.715	23615
879.842	23817
879.97	23562
880.097	23349
880.224	23402
880.351	23474
880.478	23204
880.605	23231
880.732	23254
880.859	23608
880.986	23360
881.112	23227
881.239	23261
881.366	23174
881.493	23102
881.619	22869
881.746	23033
881.872	22972
881.999	22774
882.125	22805
882.252	22858
882.378	22721
882.505	22995
882.631	22919
882.757	22607
882.883	22641
883.01	22645
883.136	22577
883.262	22421
883.388	22459
883.514	22618
883.64	22778
883.766	22481
883.892	22204
884.018	22310
884.143	22542
884.269	22573
884.395	22337
884.52	22154
884.646	22238
884.772	22131
884.897	22112
885.023	22223
885.148	22253
885.274	22371
885.399	22253
885.524	22154
885.65	22287
885.775	22116
885.9	22120
886.025	22314
886.15	22249
886.275	22128
886.4	22162
886.525	22192
886.65	22131
886.775	22116
886.9	22169
887.025	22352
887.149	22211
887.274	22105
887.399	21975
887.523	21964
887.648	21987
887.773	21831
887.897	22021
888.021	21941
888.146	21937
888.27	22078
888.395	22067
888.519	22082
888.643	22055
888.767	22109
888.891	21899
889.015	21762
889.139	21842
889.263	21831
889.387	21960
889.511	21956
889.635	21892
889.759	21618
889.883	21816
890.006	21736
890.13	21755
890.254	21648
890.377	21690
890.501	21469
890.624	21408
890.748	21500
890.871	21367
890.995	21264
891.118	21188
891.241	21230
891.364	21355
891.488	21447
891.611	21351
891.734	21188
891.857	21264
891.98	21370
892.103	21393
892.226	21374
892.349	21283
892.471	21051
892.594	21218
892.717	21264
892.839	21199
892.962	21176
893.085	21317
893.207	21195
893.33	21005
893.452	21138
893.575	21222
893.697	21188
893.819	21447
893.941	21351
894.064	21336
894.186	21100
894.308	21036
894.43	21161
894.552	21382
894.674	21211
894.796	21039
894.918	21203
895.04	21199
895.161	21157
895.283	21180
895.405	21108
895.526	21192
895.648	21112
895.769	21233
895.891	21256
896.012	21222
896.134	21233
896.255	21188
896.376	21176
896.498	21180
896.619	21294
896.74	21272
896.861	21169
896.982	21466
897.103	21705
897.224	21374
897.345	21405
897.466	21424
897.587	21450
897.708	21477
897.828	21401
897.949	21272
898.07	21241
898.19	21389
898.311	21393
898.431	21378
898.552	21291
898.672	21458
898.792	21332
898.913	21310
899.033	21268
899.153	21233
899.273	20910
899.393	21039
899.513	21218
899.633	21009
899.753	21157
899.873	21096
899.993	21233
900.113	21062
900.232	20895
900.352	21020
900.472	20967
900.591	20807
900.711	20891
900.83	20834
900.95	20948
901.069	20971
901.189	20750
901.308	20552
901.427	20469
901.546	20434
901.665	20423
901.784	20511
901.904	20336
902.023	20161
902.141	20005
902.26	20012
902.379	19902
902.498	19955
902.617	19868
902.735	19833
902.854	19811
902.973	19864
903.091	19502
903.21	19613
903.328	19552
903.446	19628
903.565	19491
903.683	19369
903.801	19301
903.919	19304
904.038	19266
904.156	19217
904.274	19282
904.392	19194
904.51	19133
904.627	19114
904.745	19247
904.863	19187
904.981	19038
905.098	18760
905.216	18798
905.334	18939
905.451	18871
905.569	18791
905.686	18810
905.803	18768
905.921	18646
906.038	18650
906.155	18635
906.272	18467
906.389	18532
906.506	18319
906.623	18452
906.74	18330
906.857	18148
906.974	18311
907.091	18350
907.208	18418
907.324	18327
907.441	18247
907.557	18068
907.674	18117
907.79	17992
907.907	18015
908.023	18003
908.139	18079
908.256	17882
908.372	17965
908.488	17885
908.604	17836
908.72	17817
908.836	17813
908.952	17729
909.068	17737
909.184	17920
909.3	17790
909.415	17817
909.531	17695
909.647	17570
909.762	17448
909.878	17402
909.993	17436
910.108	17376
910.224	17421
910.339	17410
910.454	17356
910.57	17261
910.685	17212
910.8	17501
910.915	17474
911.03	17231
911.145	17113
911.259	17083
911.374	17090
911.489	16923
911.604	16839
911.718	16790
911.833	16790
911.947	16733
912.062	16733
912.176	16790
912.291	16687
912.405	16771
912.519	16953
912.633	16934
912.748	16778
912.862	16736
912.976	16546
913.09	16493
913.204	16550
913.318	16523
913.431	16649
913.545	16569
913.659	16618
913.772	16508
913.886	16478
914	16375
914.113	16508
914.226	16493
914.34	16390
914.453	16268
914.566	16504
914.68	16276
914.793	16261
914.906	16105
915.019	15922
915.132	15926
915.245	15907
915.358	15857
915.47	15918
915.583	15934
915.696	16074
915.809	16002
915.921	15979
916.034	15884
916.146	15785
916.259	15934
916.371	15842
916.483	15998
916.595	15838
916.708	15720
916.82	15789
916.932	15717
917.044	15762
917.156	15682
917.268	15572
917.38	15469
917.491	15530
917.603	15595
917.715	15625
917.826	15603
917.938	15485
918.049	15382
918.161	15473
918.272	15591
918.384	15576
918.495	15553
918.606	15401
918.717	15150
918.828	15329
918.939	15378
919.05	15207
919.161	15252
919.272	15138
919.383	15116
919.494	15344
919.604	15553
919.715	15275
919.826	15211
919.936	15256
920.047	15336
920.157	15142
920.267	15435
920.378	15291
920.488	15165
920.598	15389
920.708	15557
920.818	15237
920.928	15306
921.038	15595
921.148	15519
921.258	15264
921.368	15085
921.477	14933
921.587	14864
921.697	14887
921.806	14941
921.916	14743
922.025	14663
922.134	14556
922.244	14621
922.353	14674
922.462	14530
922.571	14446
922.68	14244
922.789	14195
922.898	14271
923.007	14138
923.116	14248
923.224	14278
923.333	14210
923.442	14084
923.55	14016
923.659	14103
923.767	14039
923.876	14016
923.984	14069
924.092	13928
924.201	14008
924.309	13974
924.417	14012
924.525	13871
924.633	13940
924.741	14788
924.849	13738
924.956	13845
925.064	13674
925.172	13628
925.279	13582
925.387	13609
925.494	13670
925.602	13788
925.709	13609
925.816	13476
925.924	13521
926.031	13655
926.138	13544
926.245	13582
926.352	13445
926.459	13563
926.566	13521
926.673	13472
926.779	13396
926.886	13453
926.993	13217
927.099	13168
927.206	13187
927.312	13107
927.419	13160
927.525	13171
927.631	13149
927.737	13072
927.843	13023
927.95	12897
928.056	12970
928.162	13046
928.267	12973
928.373	13506
928.479	13046
928.585	12749
928.69	12962
928.796	12989
928.901	12802
929.007	12703
929.112	12913
929.218	12772
929.323	12703
929.428	12700
929.533	12783
929.638	12650
929.743	12646
929.848	12673
929.953	12612
930.058	12509
930.163	12304
930.267	12334
930.372	12418
930.477	12281
930.581	12445
930.685	12403
930.79	12228
930.894	12220
930.998	12190
931.103	12403
931.207	11916
931.311	11878
931.415	11748
931.519	11551
931.623	11615
