Data from test_V78500241_2352.txt Node
Date: Fri Mar 25 15:58:05 CST 2022
User: usil
Spectrometer: V785-0024
Trigger mode: 0
Integration Time (sec): 4.000000E-1
Scans to average: 1
Nonlinearity correction enabled: false
Boxcar width: 0
Storing dark spectrum: false
XAxis mode: Wavelengths
Number of Pixels in Spectrum: 1024
>>>>>Begin Spectral Data<<<<<
801.071	28831
801.214	28831
801.356	28577
801.499	28538
801.641	28356
801.783	28432
801.926	28352
802.068	28417
802.211	28333
802.353	28242
802.496	28086
802.638	28185
802.78	28055
802.923	28040
803.065	27892
803.208	28010
803.35	28086
803.492	28181
803.635	28291
803.777	28135
803.919	28390
804.061	28611
804.204	28386
804.346	28303
804.488	28223
804.63	28333
804.773	28253
804.915	28352
805.057	28424
805.199	28401
805.341	28424
805.483	28451
805.626	28478
805.768	28352
805.91	28440
806.052	28687
806.194	28249
806.336	28672
806.478	28485
806.62	28417
806.762	28694
806.904	28786
807.046	29094
807.188	28885
807.33	28900
807.472	28965
807.614	28949
807.756	28919
807.898	28820
808.04	28603
808.182	28607
808.324	28805
808.465	28801
808.607	29189
808.749	29136
808.891	29185
809.033	29296
809.174	29322
809.316	29220
809.458	29056
809.6	29151
809.741	29299
809.883	29337
810.025	29490
810.166	29444
810.308	29524
810.45	29463
810.591	29353
810.733	29311
810.875	29200
811.016	29227
811.158	29094
811.299	29448
811.441	29353
811.582	29372
811.724	29318
811.865	29273
812.007	29166
812.148	29124
812.29	29140
812.431	29406
812.573	29543
812.714	29566
812.855	29756
812.997	29794
813.138	29939
813.279	29752
813.421	29691
813.562	29520
813.703	29429
813.845	29330
813.986	29242
814.127	29128
814.268	28858
814.41	28805
814.551	28911
814.692	28869
814.833	28820
814.974	28908
815.115	28911
815.256	28782
815.397	28755
815.539	28850
815.68	28645
815.821	28763
815.962	28767
816.103	28626
816.244	28691
816.385	28557
816.526	28626
816.666	28299
816.807	28112
816.948	28333
817.089	28276
817.23	28265
817.371	28314
817.512	28238
817.653	28158
817.793	28207
817.934	28116
818.075	28211
818.216	28211
818.356	28246
818.497	28059
818.638	28063
818.778	28013
818.919	28059
819.06	28204
819.2	28120
819.341	28162
819.481	28306
819.622	28440
819.762	28462
819.903	28428
820.043	28314
820.184	28409
820.324	28424
820.465	28329
820.605	28337
820.746	28306
820.886	28120
821.026	28299
821.167	28310
821.307	28367
821.447	28268
821.588	28390
821.728	28078
821.868	27945
822.008	27717
822.149	27713
822.289	27629
822.429	27431
822.569	27412
822.709	27485
822.849	27313
822.99	27252
823.13	27070
823.27	27146
823.41	27123
823.55	26925
823.69	27112
823.83	26979
823.97	26910
824.11	26811
824.25	26872
824.389	26895
824.529	26895
824.669	26819
824.809	26933
824.949	26963
825.089	26804
825.228	26960
825.368	26556
825.508	26785
825.648	26769
825.787	26739
825.927	26834
826.067	26796
826.206	26682
826.346	26800
826.485	26735
826.625	26807
826.765	26849
826.904	26781
827.044	26514
827.183	26537
827.323	26587
827.462	26537
827.601	26609
827.741	26442
827.88	26545
828.02	26377
828.159	26412
828.298	26571
828.437	26488
828.577	26317
828.716	26598
828.855	26446
828.994	26183
829.134	26180
829.273	26195
829.412	26176
829.551	26115
829.69	26126
829.829	26206
829.968	26202
830.107	26244
830.246	26172
830.385	26157
830.524	26058
830.663	25978
830.802	25925
830.941	25795
831.08	25719
831.219	25875
831.357	25833
831.496	25898
831.635	25712
831.774	25738
831.913	25696
832.051	25571
832.19	25586
832.329	25620
832.467	25434
832.606	25377
832.744	25343
832.883	25373
833.022	25453
833.16	25514
833.299	25472
833.437	25559
833.576	25518
833.714	25426
833.852	25586
833.991	25518
834.129	25483
834.267	25609
834.406	25616
834.544	25514
834.682	25426
834.821	25510
834.959	25582
835.097	25415
835.235	25540
835.373	25487
835.511	25578
835.65	25445
835.788	25411
835.926	25225
836.064	25133
836.202	25247
836.34	25304
836.478	25400
836.615	25285
836.753	25350
836.891	25278
837.029	25343
837.167	25107
837.305	25217
837.443	25190
837.58	25164
837.718	25209
837.856	25179
837.993	24981
838.131	25126
838.269	25107
838.406	25099
838.544	24878
838.681	24829
838.819	24863
838.956	24471
839.094	24566
839.231	24707
839.369	24730
839.506	25057
839.643	24798
839.781	24528
839.918	24521
840.055	24631
840.193	24661
840.33	24460
840.467	24460
840.604	24566
840.742	24734
840.879	24433
841.016	24403
841.153	24479
841.29	24654
841.427	24559
841.564	24555
841.701	24540
841.838	24452
841.975	24384
842.112	24369
842.249	24388
842.385	24292
842.522	24445
842.659	24395
842.796	24254
842.933	24220
843.069	24159
843.206	24311
843.343	24319
843.479	24235
843.616	24209
843.752	24057
843.889	24015
844.025	24163
844.162	24045
844.298	24140
844.435	23992
844.571	24026
844.708	24136
844.844	24220
844.98	24194
845.117	24102
845.253	23939
845.389	23878
845.525	24003
845.661	23882
845.798	23802
845.934	23767
846.07	23733
846.206	23764
846.342	23824
846.478	23733
846.614	23562
846.75	23471
846.886	23619
847.022	23535
847.158	23421
847.294	23474
847.429	23539
847.565	23429
847.701	23764
847.837	23174
847.972	23048
848.108	23296
848.244	23421
848.379	23094
848.515	23060
848.65	22946
848.786	23044
848.921	23140
849.057	23174
849.192	22968
849.328	23159
849.463	23105
849.598	23117
849.734	22984
849.869	22847
850.004	22850
850.14	22946
850.275	22809
850.41	22786
850.545	22759
850.68	22782
850.815	22767
850.95	22816
851.085	22999
851.22	22889
851.355	22927
851.49	22858
851.625	22877
851.76	22866
851.895	22759
852.03	22687
852.165	22774
852.299	22904
852.434	22885
852.569	22847
852.703	22782
852.838	22949
852.973	22984
853.107	22862
853.242	22740
853.376	22653
853.511	22679
853.645	22630
853.78	22763
853.914	22656
854.048	22717
854.183	22512
854.317	22755
854.451	22748
854.585	22645
854.72	22622
854.854	22672
854.988	22500
855.122	22634
855.256	22622
855.39	22584
855.524	22679
855.658	22729
855.792	22672
855.926	22622
856.06	22733
856.194	22774
856.327	22561
856.461	22592
856.595	22577
856.729	22611
856.862	22710
856.996	22691
857.13	22706
857.263	22759
857.397	22740
857.53	22668
857.664	22710
857.797	22717
857.931	22706
858.064	22584
858.197	22634
858.331	22641
858.464	22615
858.597	22577
858.731	22584
858.864	22588
858.997	22752
859.13	22641
859.263	22535
859.396	22782
859.529	22634
859.662	22519
859.795	22584
859.928	22637
860.061	22862
860.194	22820
860.327	22706
860.46	22668
860.592	22809
860.725	22782
860.858	22725
860.99	22596
861.123	22637
861.256	22611
861.388	22634
861.521	23315
861.653	22470
861.786	22348
861.918	22443
862.05	22679
862.183	22542
862.315	22611
862.447	22599
862.58	22592
862.712	22325
862.844	22329
862.976	22443
863.108	22367
863.24	22790
863.372	22280
863.504	22390
863.636	22333
863.768	22291
863.9	22363
864.032	22074
864.164	22238
864.296	22421
864.428	22413
864.559	22436
864.691	22500
864.823	22375
864.954	22428
865.086	22386
865.217	22268
865.349	22162
865.48	22276
865.612	22215
865.743	22276
865.875	22204
866.006	22192
866.137	22242
866.269	22276
866.4	22253
866.531	22196
866.662	22105
866.793	22150
866.924	22112
867.055	22211
867.186	22063
867.317	22124
867.448	22002
867.579	22131
867.71	22032
867.841	22090
867.972	22029
868.103	22059
868.233	22223
868.364	22116
868.495	22185
868.625	22459
868.756	22516
868.886	22443
869.017	22348
869.147	22523
869.278	22470
869.408	22459
869.539	22344
869.669	22363
869.799	22432
869.929	22596
870.06	22451
870.19	22767
870.32	22668
870.45	22694
870.58	22828
870.71	22904
870.84	22904
870.97	22729
871.1	22710
871.23	22972
871.36	23052
871.489	22892
871.619	22889
871.749	22900
871.879	22930
872.008	23216
872.138	23094
872.267	22987
872.397	22927
872.526	22790
872.656	22824
872.785	22866
872.915	23067
873.044	23086
873.173	23060
873.303	22957
873.432	22961
873.561	23117
873.69	23003
873.819	23098
873.948	23136
874.077	23025
874.206	22999
874.335	22999
874.464	23064
874.593	23223
874.722	23292
874.851	23239
874.979	23326
875.108	23395
875.237	23140
875.365	23231
875.494	23284
875.623	23208
875.751	23143
875.88	23326
876.008	23421
876.136	23482
876.265	23600
876.393	23729
876.521	23672
876.65	23672
876.778	23623
876.906	23543
877.034	23543
877.162	23531
877.29	23516
877.418	23581
877.546	23509
877.674	23596
877.802	23573
877.93	23596
878.058	23520
878.185	23395
878.313	23455
878.441	23520
878.568	23421
878.696	23497
878.824	23554
878.951	23512
879.079	23767
879.206	23729
879.333	23748
879.461	23581
879.588	23634
879.715	23813
879.842	23733
879.97	23619
880.097	23398
880.224	23452
880.351	23474
880.478	23436
880.605	23402
880.732	23372
880.859	23558
880.986	23353
881.112	23417
881.239	23341
881.366	23166
881.493	23018
881.619	22847
881.746	23037
881.872	22938
881.999	22934
882.125	22885
882.252	22946
882.378	22938
882.505	22961
882.631	22900
882.757	22736
882.883	22698
883.01	22481
883.136	22607
883.262	22413
883.388	22516
883.514	22660
883.64	22531
883.766	22485
883.892	22382
884.018	22329
884.143	22584
884.269	22603
884.395	22139
884.52	22249
884.646	22230
884.772	22143
884.897	22257
885.023	22226
885.148	22344
885.274	22348
885.399	22379
885.524	22181
885.65	22223
885.775	22238
885.9	22112
886.025	22462
886.15	22398
886.275	22223
886.4	22246
886.525	22192
886.65	22147
886.775	22230
886.9	22306
887.025	22523
887.149	22276
887.274	22109
887.399	22265
887.523	21895
887.648	22021
887.773	21800
887.897	21998
888.021	21956
888.146	22013
888.27	22143
888.395	22200
888.519	22006
888.643	22059
888.767	22025
888.891	21789
889.015	21732
889.139	21861
889.263	21778
889.387	21941
889.511	22067
889.635	21960
889.759	21785
889.883	21759
890.006	21747
890.13	21994
890.254	21705
890.377	21656
890.501	21606
890.624	21485
890.748	21564
890.871	21466
890.995	21211
891.118	21370
891.241	21408
891.364	21359
891.488	21393
891.611	21401
891.734	21435
891.857	21416
891.98	21272
892.103	21332
892.226	21306
892.349	21310
892.471	21085
892.594	21252
892.717	21272
892.839	21192
892.962	21218
893.085	21226
893.207	21245
893.33	21089
893.452	21096
893.575	21325
893.697	21195
893.819	21325
893.941	21336
894.064	21348
894.186	21077
894.308	21154
894.43	21317
894.552	21359
894.674	21252
894.796	21116
894.918	21195
895.04	21230
895.161	21283
895.283	21241
895.405	21173
895.526	21211
895.648	21211
895.769	21131
895.891	21211
896.012	21336
896.134	21226
896.255	21237
896.376	21146
896.498	21226
896.619	21245
896.74	21184
896.861	21226
896.982	21523
897.103	21679
897.224	21359
897.345	21416
897.466	21367
897.587	21443
897.708	21481
897.828	21443
897.949	21405
898.07	21138
898.19	21389
898.311	21302
898.431	21340
898.552	21424
898.672	21412
898.792	21477
898.913	21302
899.033	21291
899.153	21093
899.273	21192
899.393	21089
899.513	21070
899.633	21089
899.753	21150
899.873	21100
899.993	21161
900.113	21055
900.232	21089
900.352	21112
900.472	20952
900.591	20819
900.711	20952
900.83	20823
900.95	21017
901.069	20880
901.189	20853
901.308	20507
901.427	20503
901.546	20484
901.665	20377
901.784	20583
901.904	20259
902.023	20172
902.141	20084
902.26	19978
902.379	20024
902.498	19982
902.617	19852
902.735	19959
902.854	19871
902.973	19769
903.091	19685
903.21	19750
903.328	19594
903.446	19506
903.565	19464
903.683	19457
903.801	19365
903.919	19358
904.038	19392
904.156	19160
904.274	19221
904.392	19122
904.51	19206
904.627	19190
904.745	19118
904.863	19164
904.981	19019
905.098	18840
905.216	18791
905.334	18844
905.451	18745
905.569	18817
905.686	18852
905.803	18783
905.921	18578
906.038	18795
906.155	18760
906.272	18555
906.389	18540
906.506	18323
906.623	18338
906.74	18395
906.857	18342
906.974	18353
907.091	18471
907.208	18410
907.324	18346
907.441	18285
907.557	18129
907.674	18098
907.79	17999
907.907	17996
908.023	18136
908.139	18129
908.256	18015
908.372	17973
908.488	17942
908.604	17813
908.72	17726
908.836	17935
908.952	17843
909.068	17767
909.184	17821
909.3	17767
909.415	17855
909.531	17771
909.647	17493
909.762	17509
909.878	17433
909.993	17471
910.108	17360
910.224	17429
910.339	17490
910.454	17326
910.57	17162
910.685	17261
910.8	17562
910.915	17353
911.03	17200
911.145	17056
911.259	17067
911.374	16995
911.489	16877
911.604	16881
911.718	16820
911.833	16786
911.947	16679
912.062	16641
912.176	16721
912.291	16729
912.405	16774
912.519	16934
912.633	17022
912.748	16828
912.862	16824
912.976	16538
913.09	16424
913.204	16645
913.318	16634
913.431	16733
913.545	16653
913.659	16645
913.772	16599
913.886	16413
914	16386
914.113	16523
914.226	16500
914.34	16474
914.453	16215
914.566	16428
914.68	16276
914.793	16211
914.906	16078
915.019	15975
915.132	16021
915.245	15998
915.358	15991
915.47	15983
915.583	15937
915.696	15937
915.809	16082
915.921	16135
916.034	15880
916.146	15835
916.259	15838
916.371	15926
916.483	15975
916.595	15755
916.708	15812
916.82	15732
916.932	15838
917.044	15793
917.156	15724
917.268	15534
917.38	15603
917.491	15530
917.603	15599
917.715	15530
917.826	15637
917.938	15477
918.049	15336
918.161	15488
918.272	15679
918.384	15648
918.495	15568
918.606	15408
918.717	15329
918.828	15287
918.939	15192
919.05	15203
919.161	15306
919.272	15020
919.383	15218
919.494	15321
919.604	15454
919.715	15237
919.826	15241
919.936	15302
920.047	15351
920.157	15374
920.267	15485
920.378	15363
920.488	15306
920.598	15405
920.708	15496
920.818	15500
920.928	15443
921.038	15549
921.148	15496
921.258	15355
921.368	15135
921.477	15028
921.587	14982
921.697	14849
921.806	14921
921.916	14788
922.025	14674
922.134	14640
922.244	14613
922.353	14636
922.462	14492
922.571	14492
922.68	14351
922.789	14286
922.898	14294
923.007	14229
923.116	14317
923.224	14271
923.333	14294
923.442	14199
923.55	14142
923.659	14130
923.767	14164
923.876	14035
923.984	14054
924.092	13898
924.201	14092
924.309	13963
924.417	14077
924.525	13890
924.633	13925
924.741	14781
924.849	13765
924.956	13837
925.064	13693
925.172	13651
925.279	13582
925.387	13662
925.494	13601
925.602	13811
925.709	13624
925.816	13476
925.924	13552
926.031	13594
926.138	13567
926.245	13552
926.352	13472
926.459	13620
926.566	13605
926.673	13544
926.779	13407
926.886	13396
926.993	13228
927.099	13198
927.206	13217
927.312	13209
927.419	13187
927.525	13278
927.631	13213
927.737	13053
927.843	12962
927.95	12894
928.056	13057
928.162	12989
928.267	13114
928.373	13674
928.479	12981
928.585	12802
928.69	12935
928.796	13000
928.901	12806
929.007	12650
929.112	12844
929.218	12856
929.323	12730
929.428	12654
929.533	12935
929.638	12623
929.743	12654
929.848	12684
929.953	12547
930.058	12509
930.163	12414
930.267	12365
930.372	12502
930.477	12384
930.581	12525
930.685	12399
930.79	12311
930.894	12239
930.998	12247
931.103	12338
931.207	11988
931.311	11874
931.415	11882
931.519	11524
931.623	11623
