Data from test_V78500241_3293.txt Node
Date: Fri Mar 25 16:04:36 CST 2022
User: usil
Spectrometer: V785-0024
Trigger mode: 0
Integration Time (sec): 4.000000E-1
Scans to average: 1
Nonlinearity correction enabled: false
Boxcar width: 0
Storing dark spectrum: false
XAxis mode: Wavelengths
Number of Pixels in Spectrum: 1024
>>>>>Begin Spectral Data<<<<<
801.071	28896
801.214	28862
801.356	28584
801.499	28675
801.641	28470
801.783	28375
801.926	28417
802.068	28299
802.211	28310
802.353	28299
802.496	28116
802.638	28044
802.78	28101
802.923	28002
803.065	28036
803.208	28002
803.35	28169
803.492	28314
803.635	28299
803.777	28200
803.919	28428
804.061	28550
804.204	28462
804.346	28375
804.488	28230
804.63	28276
804.773	28131
804.915	28603
805.057	28508
805.199	28223
805.341	28470
805.483	28584
805.626	28447
805.768	28519
805.91	28497
806.052	28424
806.194	28451
806.336	28744
806.478	28561
806.62	28588
806.762	28702
806.904	28847
807.046	29018
807.188	28888
807.33	28995
807.472	29086
807.614	28839
807.756	28927
807.898	28786
808.04	28748
808.182	28786
808.324	28862
808.465	28892
808.607	29022
808.749	29105
808.891	29292
809.033	29398
809.174	29292
809.316	29277
809.458	29155
809.6	29155
809.741	29284
809.883	29372
810.025	29619
810.166	29638
810.308	29493
810.45	29296
810.591	29501
810.733	29277
810.875	29265
811.016	29155
811.158	29174
811.299	29315
811.441	29330
811.582	29383
811.724	29284
811.865	29113
812.007	29231
812.148	29208
812.29	29280
812.431	29360
812.573	29619
812.714	29668
812.855	29699
812.997	29828
813.138	29931
813.279	29897
813.421	29783
813.562	29649
813.703	29684
813.845	29482
813.986	29006
814.127	29166
814.268	29094
814.41	28957
814.551	28930
814.692	28949
814.833	28763
814.974	28957
815.115	28995
815.256	28934
815.397	28824
815.539	28942
815.68	28793
815.821	28763
815.962	28820
816.103	28809
816.244	28702
816.385	28557
816.526	28577
816.666	28394
816.807	28341
816.948	28451
817.089	28390
817.23	28287
817.371	28284
817.512	28158
817.653	28242
817.793	28207
817.934	28390
818.075	28257
818.216	28280
818.356	28150
818.497	28204
818.638	28010
818.778	28063
818.919	27930
819.06	28253
819.2	28230
819.341	28417
819.481	28207
819.622	28436
819.762	28603
819.903	28542
820.043	28363
820.184	28493
820.324	28401
820.465	28523
820.605	28322
820.746	28379
820.886	28272
821.026	28382
821.167	28443
821.307	28447
821.447	28367
821.588	28272
821.728	28169
821.868	27998
822.008	27717
822.149	27732
822.289	27850
822.429	27462
822.569	27439
822.709	27458
822.849	27264
822.99	27279
823.13	27230
823.27	27180
823.41	27020
823.55	27017
823.69	27093
823.83	27074
823.97	27039
824.11	26956
824.25	26815
824.389	26895
824.529	27108
824.669	26960
824.809	27017
824.949	26918
825.089	26933
825.228	27062
825.368	26735
825.508	26686
825.648	26746
825.787	26918
825.927	26800
826.067	26777
826.206	26807
826.346	26746
826.485	26887
826.625	26773
826.765	26979
826.904	26880
827.044	26670
827.183	26575
827.323	26419
827.462	26377
827.601	26579
827.741	26594
827.88	26602
828.02	26362
828.159	26488
828.298	26461
828.437	26632
828.577	26522
828.716	26590
828.855	26427
828.994	26187
829.134	26229
829.273	26301
829.412	26256
829.551	26180
829.69	26271
829.829	26248
829.968	26282
830.107	26199
830.246	26130
830.385	26119
830.524	26157
830.663	25947
830.802	25986
830.941	25795
831.08	25753
831.219	25997
831.357	25906
831.496	25978
831.635	25803
831.774	25780
831.913	25677
832.051	25753
832.19	25586
832.329	25597
832.467	25556
832.606	25441
832.744	25415
832.883	25510
833.022	25422
833.16	25392
833.299	25529
833.437	25571
833.576	25647
833.714	25666
833.852	25578
833.991	25704
834.129	25670
834.267	25552
834.406	25674
834.544	25586
834.682	25586
834.821	25632
834.959	25731
835.097	25514
835.235	25670
835.373	25563
835.511	25476
835.65	25464
835.788	25472
835.926	25304
836.064	25141
836.202	25407
836.34	25415
836.478	25457
836.615	25388
836.753	25464
836.891	25491
837.029	25266
837.167	25396
837.305	25126
837.443	25297
837.58	25232
837.718	25156
837.856	25263
837.993	25137
838.131	25221
838.269	25034
838.406	25160
838.544	25012
838.681	24779
838.819	24738
838.956	24726
839.094	24646
839.231	24711
839.369	24783
839.506	25057
839.643	24924
839.781	24806
839.918	24601
840.055	24726
840.193	24612
840.33	24639
840.467	24513
840.604	24635
840.742	24840
840.879	24433
841.016	24521
841.153	24471
841.29	24753
841.427	24650
841.564	24719
841.701	24479
841.838	24574
841.975	24467
842.112	24372
842.249	24578
842.385	24254
842.522	24574
842.659	24308
842.796	24464
842.933	24304
843.069	24262
843.206	24262
843.343	24445
843.479	24429
843.616	24254
843.752	24079
843.889	24197
844.025	24163
844.162	24079
844.298	24167
844.435	24057
844.571	23984
844.708	24190
844.844	24323
844.98	24205
845.117	24171
845.253	24041
845.389	23893
845.525	24015
845.661	23923
845.798	24026
845.934	23908
846.07	23840
846.206	23863
846.342	23851
846.478	23760
846.614	23608
846.75	23592
846.886	23528
847.022	23672
847.158	23665
847.294	23573
847.429	23672
847.565	23596
847.701	23695
847.837	23265
847.972	23235
848.108	23322
848.244	23383
848.379	23162
848.515	23197
848.65	23102
848.786	23220
848.921	23170
849.057	23254
849.192	23178
849.328	23216
849.463	23166
849.598	23181
849.734	22972
849.869	23037
850.004	22923
850.14	22946
850.275	22873
850.41	22847
850.545	22965
850.68	22816
850.815	23041
850.95	22828
851.085	23151
851.22	23079
851.355	22889
851.49	22683
851.625	22828
851.76	22892
851.895	22858
852.03	22900
852.165	22839
852.299	22911
852.434	22961
852.569	22980
852.703	23025
852.838	23003
852.973	22949
853.107	23022
853.242	22976
853.376	22759
853.511	22637
853.645	22744
853.78	22911
853.914	22755
854.048	22687
854.183	22744
854.317	22736
854.451	22965
854.585	22835
854.72	22774
854.854	22778
854.988	22694
855.122	22786
855.256	22683
855.39	22691
855.524	22748
855.658	22793
855.792	22668
855.926	22786
856.06	22740
856.194	22797
856.327	22691
856.461	22733
856.595	22713
856.729	22687
856.862	22752
856.996	22721
857.13	22919
857.263	22919
857.397	22782
857.53	22736
857.664	22710
857.797	22809
857.931	22930
858.064	22771
858.197	22911
858.331	22816
858.464	22763
858.597	22641
858.731	22645
858.864	22748
858.997	22641
859.13	22729
859.263	22812
859.396	22755
859.529	22854
859.662	22611
859.795	22683
859.928	22672
860.061	22930
860.194	22949
860.327	22649
860.46	22725
860.592	23003
860.725	22820
860.858	22900
860.99	22797
861.123	22656
861.256	22660
861.388	22824
861.521	23395
861.653	22588
861.786	22542
861.918	22580
862.05	22626
862.183	22531
862.315	22725
862.447	22725
862.58	22702
862.712	22596
862.844	22386
862.976	22455
863.108	22580
863.24	22843
863.372	22512
863.504	22405
863.636	22424
863.768	22466
863.9	22432
864.032	22333
864.164	22379
864.296	22516
864.428	22531
864.559	22394
864.691	22538
864.823	22516
864.954	22546
865.086	22363
865.217	22409
865.349	22318
865.48	22314
865.612	22261
865.743	22356
865.875	22402
866.006	22356
866.137	22303
866.269	22295
866.4	22268
866.531	22348
866.662	22295
866.793	22276
866.924	22143
867.055	22375
867.186	22367
867.317	22204
867.448	22101
867.579	22166
867.71	22200
867.841	22261
867.972	22337
868.103	22219
868.233	22242
868.364	22211
868.495	22432
868.625	22432
868.756	22531
868.886	22440
869.017	22481
869.147	22561
869.278	22618
869.408	22455
869.539	22462
869.669	22523
869.799	22618
869.929	22622
870.06	22573
870.19	22858
870.32	22797
870.45	22873
870.58	22949
870.71	22987
870.84	22976
870.97	22953
871.1	22900
871.23	23029
871.36	23094
871.489	23052
871.619	23083
871.749	23022
871.879	23064
872.008	23197
872.138	23083
872.267	23060
872.397	22961
872.526	22957
872.656	22946
872.785	22873
872.915	23292
873.044	23227
873.173	23022
873.303	23189
873.432	23174
873.561	23197
873.69	23246
873.819	23086
873.948	23155
874.077	23109
874.206	23109
874.335	23018
874.464	23178
874.593	23334
874.722	23353
874.851	23383
874.979	23353
875.108	23265
875.237	23193
875.365	23269
875.494	23345
875.623	23429
875.751	23421
875.88	23391
876.008	23421
876.136	23551
876.265	23882
876.393	23790
876.521	23726
876.65	23760
876.778	23699
876.906	23722
877.034	23703
877.162	23627
877.29	23539
877.418	23657
877.546	23707
877.674	23638
877.802	23501
877.93	23630
878.058	23623
878.185	23551
878.313	23623
878.441	23684
878.568	23554
878.696	23531
878.824	23699
878.951	23790
879.079	23824
879.206	23961
879.333	23863
879.461	23630
879.588	23832
879.715	23813
879.842	23912
879.97	23851
880.097	23608
880.224	23528
880.351	23478
880.478	23562
880.605	23482
880.732	23463
880.859	23665
880.986	23429
881.112	23505
881.239	23452
881.366	23242
881.493	23349
881.619	22968
881.746	23151
881.872	23105
881.999	22995
882.125	23079
882.252	22987
882.378	22942
882.505	23014
882.631	22843
882.757	22752
882.883	22774
883.01	22561
883.136	22641
883.262	22622
883.388	22535
883.514	22687
883.64	22653
883.766	22706
883.892	22653
884.018	22409
884.143	22607
884.269	22736
884.395	22440
884.52	22291
884.646	22409
884.772	22223
884.897	22249
885.023	22367
885.148	22459
885.274	22440
885.399	22512
885.524	22310
885.65	22299
885.775	22352
885.9	22375
886.025	22386
886.15	22333
886.275	22249
886.4	22276
886.525	22173
886.65	22219
886.775	22268
886.9	22565
887.025	22443
887.149	22360
887.274	22124
887.399	22105
887.523	22131
887.648	22032
887.773	21987
887.897	22188
888.021	22040
888.146	21998
888.27	22181
888.395	22204
888.519	22086
888.643	22101
888.767	22173
888.891	22029
889.015	22002
889.139	21964
889.263	21972
889.387	22116
889.511	22135
889.635	22059
889.759	21808
889.883	21922
890.006	21838
890.13	22055
890.254	21717
890.377	21831
890.501	21629
890.624	21656
890.748	21667
890.871	21553
890.995	21317
891.118	21443
891.241	21412
891.364	21447
891.488	21549
891.611	21420
891.734	21454
891.857	21500
891.98	21382
892.103	21458
892.226	21549
892.349	21370
892.471	21321
892.594	21332
892.717	21424
892.839	21313
892.962	21302
893.085	21294
893.207	21203
893.33	21222
893.452	21275
893.575	21359
893.697	21298
893.819	21576
893.941	21454
894.064	21454
894.186	21279
894.308	21233
894.43	21332
894.552	21492
894.674	21420
894.796	21214
894.918	21294
895.04	21332
895.161	21397
895.283	21458
895.405	21344
895.526	21412
895.648	21252
895.769	21359
895.891	21401
896.012	21386
896.134	21287
896.255	21317
896.376	21233
896.498	21264
896.619	21291
896.74	21074
896.861	21249
896.982	21637
897.103	21720
897.224	21629
897.345	21564
897.466	21416
897.587	21447
897.708	21599
897.828	21511
897.949	21542
898.07	21321
898.19	21351
898.311	21568
898.431	21348
898.552	21386
898.672	21431
898.792	21485
898.913	21515
899.033	21408
899.153	21401
899.273	21093
899.393	21203
899.513	21199
899.633	21165
899.753	21306
899.873	21195
899.993	21020
900.113	21077
900.232	21203
900.352	21123
900.472	20925
900.591	20952
900.711	21081
900.83	20895
900.95	21116
901.069	21108
901.189	20788
901.308	20594
901.427	20537
901.546	20568
901.665	20575
901.784	20450
901.904	20442
902.023	20286
902.141	20172
902.26	20126
902.379	20107
902.498	19967
902.617	19879
902.735	20221
902.854	19982
902.973	19944
903.091	19620
903.21	19685
903.328	19746
903.446	19575
903.565	19491
903.683	19441
903.801	19324
903.919	19388
904.038	19411
904.156	19354
904.274	19327
904.392	19289
904.51	19179
904.627	19221
904.745	19339
904.863	19327
904.981	19126
905.098	18935
905.216	18935
905.334	18871
905.451	18977
905.569	18901
905.686	18977
905.803	18894
905.921	18627
906.038	18817
906.155	18894
906.272	18661
906.389	18494
906.506	18506
906.623	18403
906.74	18433
906.857	18323
906.974	18403
907.091	18464
907.208	18486
907.324	18403
907.441	18308
907.557	18148
907.674	18144
907.79	18034
907.907	18114
908.023	18182
908.139	18121
908.256	18091
908.372	17980
908.488	18068
908.604	17942
908.72	17786
908.836	17817
908.952	17859
909.068	17722
909.184	18007
909.3	17847
909.415	17908
909.531	17904
909.647	17596
909.762	17608
909.878	17623
909.993	17516
910.108	17497
910.224	17516
910.339	17490
910.454	17406
910.57	17379
910.685	17235
910.8	17528
910.915	17459
911.03	17341
911.145	17208
911.259	17185
911.374	17128
911.489	17071
911.604	16995
911.718	16938
911.833	16961
911.947	16740
912.062	16820
912.176	16915
912.291	16816
912.405	16797
912.519	17094
912.633	17003
912.748	16869
912.862	16824
912.976	16702
913.09	16603
913.204	16744
913.318	16656
913.431	16725
913.545	16801
913.659	16824
913.772	16664
913.886	16546
914	16519
914.113	16538
914.226	16558
914.34	16424
914.453	16398
914.566	16531
914.68	16409
914.793	16352
914.906	16128
915.019	16048
915.132	15956
915.245	16032
915.358	16147
915.47	16120
915.583	16067
915.696	15953
915.809	16150
915.921	16162
916.034	15934
916.146	15975
916.259	15911
916.371	15945
916.483	15960
916.595	15865
916.708	15850
916.82	15838
916.932	15892
917.044	15816
917.156	15755
917.268	15652
917.38	15694
917.491	15587
917.603	15698
917.715	15724
917.826	15759
917.938	15629
918.049	15431
918.161	15485
918.272	15732
918.384	15705
918.495	15568
918.606	15466
918.717	15389
918.828	15496
918.939	15458
919.05	15367
919.161	15412
919.272	15142
919.383	15218
919.494	15359
919.604	15553
919.715	15393
919.826	15302
919.936	15367
920.047	15420
920.157	15298
920.267	15488
920.378	15336
920.488	15268
920.598	15538
920.708	15698
920.818	15462
920.928	15469
921.038	15561
921.148	15504
921.258	15241
921.368	15180
921.477	15062
921.587	15081
921.697	14906
921.806	15081
921.916	14914
922.025	14743
922.134	14701
922.244	14701
922.353	14667
922.462	14621
922.571	14549
922.68	14370
922.789	14343
922.898	14358
923.007	14199
923.116	14294
923.224	14313
923.333	14301
923.442	14191
923.55	14164
923.659	14199
923.767	14271
923.876	14256
923.984	14176
924.092	14005
924.201	14046
924.309	13993
924.417	14050
924.525	14027
924.633	13894
924.741	14705
924.849	13833
924.956	13913
925.064	13624
925.172	13696
925.279	13704
925.387	13715
925.494	13723
925.602	13791
925.709	13616
925.816	13624
925.924	13639
926.031	13647
926.138	13594
926.245	13643
926.352	13563
926.459	13750
926.566	13734
926.673	13510
926.779	13426
926.886	13381
926.993	13369
927.099	13274
927.206	13190
927.312	13278
927.419	13365
927.525	13228
927.631	13190
927.737	13103
927.843	13069
927.95	13042
928.056	13012
928.162	13008
928.267	13118
928.373	13594
928.479	13103
928.585	12882
928.69	12977
928.796	13057
928.901	12947
929.007	12719
929.112	12764
929.218	12856
929.323	12787
929.428	12726
929.533	12848
929.638	12711
929.743	12669
929.848	12776
929.953	12707
930.058	12604
930.163	12395
930.267	12494
930.372	12486
930.477	12300
930.581	12547
930.685	12426
930.79	12251
930.894	12361
930.998	12254
931.103	12380
931.207	12068
931.311	11885
931.415	11866
931.519	11726
931.623	11680
