Data from test_V78500241_1796.txt Node
Date: Fri Mar 25 15:54:14 CST 2022
User: usil
Spectrometer: V785-0024
Trigger mode: 0
Integration Time (sec): 4.000000E-1
Scans to average: 1
Nonlinearity correction enabled: false
Boxcar width: 0
Storing dark spectrum: false
XAxis mode: Wavelengths
Number of Pixels in Spectrum: 1024
>>>>>Begin Spectral Data<<<<<
801.071	28462
801.214	28268
801.356	28173
801.499	27918
801.641	27991
801.783	27838
801.926	27975
802.068	28017
802.211	27766
802.353	27934
802.496	27629
802.638	27519
802.78	27538
802.923	27473
803.065	27386
803.208	27454
803.35	27538
803.492	27823
803.635	27789
803.777	27720
803.919	27755
804.061	28131
804.204	27857
804.346	27808
804.488	27713
804.63	27869
804.773	27743
804.915	27907
805.057	27941
805.199	27869
805.341	27842
805.483	28017
805.626	27934
805.768	27899
805.91	28002
806.052	27838
806.194	27934
806.336	28051
806.478	28048
806.62	28124
806.762	28105
806.904	28238
807.046	28493
807.188	28253
807.33	28344
807.472	28519
807.614	28394
807.756	28447
807.898	28375
808.04	28238
808.182	28230
808.324	28230
808.465	28390
808.607	28436
808.749	28694
808.891	28615
809.033	28843
809.174	28675
809.316	28535
809.458	28664
809.6	28599
809.741	28687
809.883	28809
810.025	28927
810.166	28831
810.308	28946
810.45	28904
810.591	28793
810.733	28843
810.875	28523
811.016	28554
811.158	28440
811.299	28622
811.441	28972
811.582	28752
811.724	28694
811.865	28691
812.007	28641
812.148	28599
812.29	28687
812.431	28759
812.573	29010
812.714	29044
812.855	29178
812.997	29292
813.138	29349
813.279	29330
813.421	29162
813.562	29124
813.703	29018
813.845	28797
813.986	28603
814.127	28401
814.268	28398
814.41	28348
814.551	28257
814.692	28413
814.833	28265
814.974	28219
815.115	28291
815.256	28344
815.397	28177
815.539	28234
815.68	28226
815.821	28032
815.962	28131
816.103	28116
816.244	27918
816.385	27979
816.526	27846
816.666	27679
816.807	27606
816.948	27641
817.089	27625
817.23	27663
817.371	27610
817.512	27751
817.653	27583
817.793	27663
817.934	27698
818.075	27690
818.216	27652
818.356	27633
818.497	27477
818.638	27412
818.778	27355
818.919	27291
819.06	27420
819.2	27561
819.341	27595
819.481	27564
819.622	27789
819.762	28067
819.903	27899
820.043	27808
820.184	27682
820.324	27717
820.465	27903
820.605	27785
820.746	27644
820.886	27587
821.026	27583
821.167	27644
821.307	27797
821.447	27743
821.588	27599
821.728	27523
821.868	27348
822.008	27001
822.149	27150
822.289	27093
822.429	26834
822.569	26819
822.709	26868
822.849	26564
822.99	26682
823.13	26541
823.27	26587
823.41	26423
823.55	26278
823.69	26621
823.83	26598
823.97	26400
824.11	26317
824.25	26263
824.389	26271
824.529	26294
824.669	26298
824.809	26362
824.949	26252
825.089	26484
825.228	26252
825.368	26134
825.508	26092
825.648	26237
825.787	26100
825.927	26206
826.067	26225
826.206	26172
826.346	26206
826.485	26187
826.625	26153
826.765	26202
826.904	26195
827.044	25966
827.183	26016
827.323	25883
827.462	25940
827.601	25852
827.741	25849
827.88	25769
828.02	25727
828.159	25860
828.298	25731
828.437	25833
828.577	25651
828.716	25856
828.855	25746
828.994	25571
829.134	25582
829.273	25609
829.412	25613
829.551	25441
829.69	25502
829.829	25544
829.968	25658
830.107	25655
830.246	25548
830.385	25514
830.524	25369
830.663	25339
830.802	25255
830.941	25152
831.08	25141
831.219	25251
831.357	25301
831.496	25407
831.635	25145
831.774	25141
831.913	25145
832.051	24947
832.19	24894
832.329	24935
832.467	24795
832.606	24825
832.744	24810
832.883	24833
833.022	24779
833.16	24810
833.299	24814
833.437	24821
833.576	24913
833.714	24829
833.852	24840
833.991	24966
834.129	24905
834.267	24951
834.406	24825
834.544	25103
834.682	24966
834.821	24894
834.959	24954
835.097	24703
835.235	24932
835.373	24825
835.511	24886
835.65	24646
835.788	24757
835.926	24715
836.064	24582
836.202	24555
836.34	24707
836.478	24837
836.615	24650
836.753	24642
836.891	24669
837.029	24688
837.167	24715
837.305	24544
837.443	24616
837.58	24479
837.718	24597
837.856	24582
837.993	24536
838.131	24479
838.269	24403
838.406	24494
838.544	24361
838.681	24174
838.819	24148
838.956	23897
839.094	23923
839.231	24095
839.369	24254
839.506	24334
839.643	24163
839.781	23973
839.918	24011
840.055	23942
840.193	24018
840.33	24011
840.467	23927
840.604	23958
840.742	24216
840.879	23714
841.016	23950
841.153	23882
841.29	24076
841.427	23950
841.564	23885
841.701	23927
841.838	23855
841.975	23794
842.112	23802
842.249	23737
842.385	23703
842.522	23882
842.659	23726
842.796	23596
842.933	23703
843.069	23573
843.206	23570
843.343	23718
843.479	23600
843.616	23726
843.752	23444
843.889	23410
844.025	23691
844.162	23459
844.298	23516
844.435	23471
844.571	23493
844.708	23493
844.844	23589
844.98	23551
845.117	23661
845.253	23436
845.389	23261
845.525	23315
845.661	23330
845.798	23216
845.934	23079
846.07	23136
846.206	23155
846.342	23421
846.478	23189
846.614	22976
846.75	22835
846.886	22824
847.022	22980
847.158	22919
847.294	22949
847.429	22908
847.565	22854
847.701	23212
847.837	22656
847.972	22698
848.108	22717
848.244	22809
848.379	22561
848.515	22519
848.65	22348
848.786	22462
848.921	22497
849.057	22634
849.192	22523
849.328	22504
849.463	22462
849.598	22512
849.734	22417
849.869	22432
850.004	22265
850.14	22116
850.275	22310
850.41	22253
850.545	22158
850.68	22234
850.815	22371
850.95	22207
851.085	22508
851.22	22352
851.355	22265
851.49	22284
851.625	22295
851.76	22299
851.895	22162
852.03	22048
852.165	22306
852.299	22230
852.434	22424
852.569	22318
852.703	22295
852.838	22306
852.973	22447
853.107	22432
853.242	22070
853.376	21994
853.511	21869
853.645	22105
853.78	22177
853.914	22173
854.048	22135
854.183	21956
854.317	22124
854.451	22265
854.585	22101
854.72	21956
854.854	22139
854.988	22044
855.122	22051
855.256	21956
855.39	22086
855.524	22128
855.658	22211
855.792	22143
855.926	22116
856.06	22055
856.194	22093
856.327	22070
856.461	22029
856.595	21907
856.729	22051
856.862	22135
856.996	22067
857.13	22147
857.263	22120
857.397	22226
857.53	22044
857.664	22181
857.797	22112
857.931	22192
858.064	22192
858.197	22150
858.331	22063
858.464	21979
858.597	22051
858.731	22086
858.864	22059
858.997	22036
859.13	22070
859.263	22044
859.396	22166
859.529	21941
859.662	22070
859.795	22067
859.928	22055
860.061	22200
860.194	22306
860.327	22093
860.46	22082
860.592	22211
860.725	22325
860.858	22234
860.99	21998
861.123	21941
861.256	22135
861.388	21960
861.521	22607
861.653	21911
861.786	21831
861.918	21922
862.05	21915
862.183	21941
862.315	21922
862.447	22063
862.58	21915
862.712	21743
862.844	21717
862.976	21884
863.108	21964
863.24	22318
863.372	21759
863.504	21804
863.636	21759
863.768	21800
863.9	21770
864.032	21789
864.164	21671
864.296	21774
864.428	21781
864.559	21831
864.691	21785
864.823	21629
864.954	21713
865.086	21781
865.217	21739
865.349	21473
865.48	21686
865.612	21583
865.743	21724
865.875	21705
866.006	21496
866.137	21660
866.269	21644
866.4	21652
866.531	21587
866.662	21557
866.793	21603
866.924	21667
867.055	21671
867.186	21625
867.317	21526
867.448	21629
867.579	21568
867.71	21526
867.841	21447
867.972	21606
868.103	21507
868.233	21572
868.364	21629
868.495	21641
868.625	21747
868.756	21937
868.886	21747
869.017	21873
869.147	21918
869.278	21960
869.408	21774
869.539	21800
869.669	21903
869.799	21816
869.929	21964
870.06	22006
870.19	22097
870.32	22131
870.45	22177
870.58	22310
870.71	22382
870.84	22371
870.97	22242
871.1	22261
871.23	22257
871.36	22512
871.489	22367
871.619	22436
871.749	22508
871.879	22470
872.008	22474
872.138	22447
872.267	22478
872.397	22371
872.526	22188
872.656	22337
872.785	22207
872.915	22493
873.044	22557
873.173	22436
873.303	22561
873.432	22565
873.561	22649
873.69	22542
873.819	22428
873.948	22577
874.077	22599
874.206	22538
874.335	22443
874.464	22519
874.593	22759
874.722	22584
874.851	22599
874.979	22744
875.108	22675
875.237	22596
875.365	22577
875.494	22683
875.623	22634
875.751	22611
875.88	22748
876.008	22835
876.136	22919
876.265	23056
876.393	23159
876.521	23083
876.65	23128
876.778	23140
876.906	22995
877.034	22984
877.162	23083
877.29	22942
877.418	22885
877.546	23006
877.674	22919
877.802	22980
877.93	22957
878.058	22885
878.185	22877
878.313	23022
878.441	22972
878.568	22854
878.696	22949
878.824	23086
878.951	23014
879.079	23242
879.206	23193
879.333	23010
879.461	23159
879.588	23041
879.715	23223
879.842	23360
879.97	23098
880.097	22873
880.224	22900
880.351	22923
880.478	22805
880.605	22873
880.732	22797
880.859	23029
880.986	22801
881.112	22774
881.239	22729
881.366	22603
881.493	22470
881.619	22440
881.746	22447
881.872	22413
881.999	22497
882.125	22333
882.252	22447
882.378	22440
882.505	22402
882.631	22211
882.757	22169
882.883	22181
883.01	22124
883.136	22303
883.262	21911
883.388	21930
883.514	21975
883.64	22097
883.766	22101
883.892	21789
884.018	21835
884.143	22006
884.269	22162
884.395	21686
884.52	21720
884.646	21690
884.772	21663
884.897	21709
885.023	21717
885.148	21956
885.274	21854
885.399	21838
885.524	21770
885.65	21766
885.775	21747
885.9	21762
886.025	21804
886.15	21880
886.275	21625
886.4	21530
886.525	21675
886.65	21663
886.775	21462
886.9	21888
887.025	21797
887.149	21743
887.274	21538
887.399	21447
887.523	21412
887.648	21492
887.773	21507
887.897	21561
888.021	21542
888.146	21397
888.27	21542
888.395	21561
888.519	21599
888.643	21542
888.767	21466
888.891	21386
889.015	21344
889.139	21389
889.263	21306
889.387	21473
889.511	21523
889.635	21386
889.759	21180
889.883	21207
890.006	21241
890.13	21283
890.254	21241
890.377	21199
890.501	21051
890.624	21024
890.748	21081
890.871	20937
890.995	20838
891.118	20788
891.241	20743
891.364	20872
891.488	21074
891.611	20868
891.734	20883
891.857	21051
891.98	20845
892.103	20834
892.226	20883
892.349	20705
892.471	20670
892.594	20804
892.717	20872
892.839	20785
892.962	20769
893.085	20807
893.207	20804
893.33	20606
893.452	20678
893.575	20845
893.697	20739
893.819	20910
893.941	20857
894.064	20899
894.186	20731
894.308	20750
894.43	20746
894.552	20883
894.674	20838
894.796	20549
894.918	20682
895.04	20571
895.161	20796
895.283	20883
895.405	20720
895.526	20655
895.648	20693
895.769	20697
895.891	20849
896.012	20785
896.134	20765
896.255	20765
896.376	20655
896.498	20693
896.619	20743
896.74	20769
896.861	20708
896.982	21051
897.103	21184
897.224	20982
897.345	20956
897.466	20800
897.587	20845
897.708	21089
897.828	20948
897.949	20830
898.07	20830
898.19	20842
898.311	20918
898.431	20845
898.552	20902
898.672	20948
898.792	20929
898.913	21005
899.033	20746
899.153	20701
899.273	20549
899.393	20746
899.513	20785
899.633	20594
899.753	20667
899.873	20552
899.993	20659
900.113	20575
900.232	20750
900.352	20503
900.472	20507
900.591	20450
900.711	20499
900.83	20503
900.95	20514
901.069	20473
901.189	20370
901.308	20107
901.427	20065
901.546	19917
901.665	19917
901.784	19967
901.904	19871
902.023	19685
902.141	19647
902.26	19582
902.379	19529
902.498	19502
902.617	19491
902.735	19430
902.854	19422
902.973	19403
903.091	19122
903.21	19080
903.328	19168
903.446	19069
903.565	18951
903.683	19019
903.801	18878
903.919	18977
904.038	18962
904.156	18802
904.274	18882
904.392	18627
904.51	18661
904.627	18753
904.745	18867
904.863	18802
904.981	18532
905.098	18407
905.216	18494
905.334	18483
905.451	18437
905.569	18388
905.686	18486
905.803	18365
905.921	18167
906.038	18235
906.155	18125
906.272	18041
906.389	18007
906.506	18015
906.623	17958
906.74	17878
906.857	17790
906.974	17764
907.091	17935
907.208	18045
907.324	17859
907.441	17817
907.557	17668
907.674	17668
907.79	17649
907.907	17649
908.023	17699
908.139	17676
908.256	17566
908.372	17444
908.488	17463
908.604	17452
908.72	17379
908.836	17334
908.952	17280
909.068	17368
909.184	17497
909.3	17379
909.415	17330
909.531	17353
909.647	17018
909.762	17079
909.878	17075
909.993	17067
910.108	17045
910.224	17105
910.339	17022
910.454	16949
910.57	16885
910.685	16797
910.8	17045
910.915	17041
911.03	16896
911.145	16733
911.259	16717
911.374	16592
911.489	16706
911.604	16542
911.718	16451
911.833	16367
911.947	16337
912.062	16295
912.176	16394
912.291	16417
912.405	16386
912.519	16603
912.633	16569
912.748	16329
912.862	16348
912.976	16204
913.09	16101
913.204	16162
913.318	16120
913.431	16356
913.545	16287
913.659	16341
913.772	16223
913.886	16067
914	15991
914.113	16101
914.226	16158
914.34	16090
914.453	15869
914.566	16032
914.68	15911
914.793	15880
914.906	15682
915.019	15648
915.132	15564
915.245	15572
915.358	15530
915.47	15622
915.583	15564
915.696	15667
915.809	15743
915.921	15736
916.034	15477
916.146	15568
916.259	15477
916.371	15587
916.483	15622
916.595	15477
916.708	15386
916.82	15367
916.932	15458
917.044	15378
917.156	15336
917.268	15214
917.38	15329
917.491	15176
917.603	15176
917.715	15355
917.826	15306
917.938	15150
918.049	15051
918.161	15169
918.272	15245
918.384	15329
918.495	15173
918.606	15009
918.717	14864
918.828	14967
918.939	15055
919.05	14887
919.161	14960
919.272	14777
919.383	14826
919.494	15032
919.604	15157
919.715	14944
919.826	14811
919.936	15013
920.047	14994
920.157	14963
920.267	15074
920.378	14967
920.488	14899
920.598	15047
920.708	15173
920.818	15085
920.928	15058
921.038	15176
921.148	15135
921.258	14857
921.368	14705
921.477	14667
921.587	14629
921.697	14549
921.806	14663
921.916	14533
922.025	14301
922.134	14320
922.244	14237
922.353	14339
922.462	14229
922.571	14119
922.68	13974
922.789	13902
922.898	13940
923.007	13864
923.116	13932
923.224	13940
923.333	13940
923.442	13769
923.55	13753
923.659	13704
923.767	13841
923.876	13715
923.984	13719
924.092	13636
924.201	13601
924.309	13639
924.417	13670
924.525	13670
924.633	13632
924.741	14358
924.849	13373
924.956	13529
925.064	13369
925.172	13362
925.279	13278
925.387	13464
925.494	13297
925.602	13438
925.709	13335
925.816	13240
925.924	13297
926.031	13331
926.138	13221
926.245	13308
926.352	13160
926.459	13312
926.566	13396
926.673	13217
926.779	13004
926.886	13038
926.993	12924
927.099	12951
927.206	12817
927.312	12795
927.419	12867
927.525	12856
927.631	12844
927.737	12703
927.843	12650
927.95	12601
928.056	12665
928.162	12696
928.267	12764
928.373	13304
928.479	12741
928.585	12525
928.69	12608
928.796	12639
928.901	12627
929.007	12441
929.112	12536
929.218	12585
929.323	12395
929.428	12403
929.533	12544
929.638	12410
929.743	12254
929.848	12342
929.953	12372
930.058	12338
930.163	12064
930.267	12083
930.372	12182
930.477	12022
930.581	12251
930.685	12159
930.79	11965
930.894	12045
930.998	11901
931.103	12087
931.207	11733
931.311	11623
931.415	11570
931.519	11311
931.623	11372
