Data from test_V78500241_2985.txt Node
Date: Fri Mar 25 16:02:28 CST 2022
User: usil
Spectrometer: V785-0024
Trigger mode: 0
Integration Time (sec): 4.000000E-1
Scans to average: 1
Nonlinearity correction enabled: false
Boxcar width: 0
Storing dark spectrum: false
XAxis mode: Wavelengths
Number of Pixels in Spectrum: 1024
>>>>>Begin Spectral Data<<<<<
801.071	28367
801.214	28356
801.356	28109
801.499	28204
801.641	27964
801.783	27968
801.926	28105
802.068	28116
802.211	27968
802.353	27819
802.496	27614
802.638	27770
802.78	27713
802.923	27652
803.065	27580
803.208	27675
803.35	27747
803.492	27914
803.635	27846
803.777	27751
803.919	27918
804.061	28200
804.204	28040
804.346	27842
804.488	27732
804.63	27865
804.773	27736
804.915	27953
805.057	27979
805.199	27918
805.341	27899
805.483	28086
805.626	28055
805.768	27895
805.91	28139
806.052	28059
806.194	28006
806.336	28090
806.478	28097
806.62	28013
806.762	28230
806.904	28329
807.046	28683
807.188	28493
807.33	28531
807.472	28542
807.614	28466
807.756	28379
807.898	28382
808.04	28246
808.182	28318
808.324	28226
808.465	28470
808.607	28542
808.749	28721
808.891	28946
809.033	28923
809.174	28774
809.316	28778
809.458	28653
809.6	28698
809.741	28923
809.883	28740
810.025	29037
810.166	29029
810.308	28984
810.45	28930
810.591	28946
810.733	28797
810.875	28767
811.016	28542
811.158	28645
811.299	28892
811.441	28812
811.582	28820
811.724	28778
811.865	28622
812.007	28736
812.148	28679
812.29	28721
812.431	28930
812.573	29136
812.714	29174
812.855	29170
812.997	29277
813.138	29570
813.279	29425
813.421	29353
813.562	29147
813.703	29067
813.845	28930
813.986	28710
814.127	28516
814.268	28417
814.41	28485
814.551	28401
814.692	28516
814.833	28344
814.974	28371
815.115	28451
815.256	28329
815.397	28295
815.539	28375
815.68	28344
815.821	28166
815.962	28310
816.103	28166
816.244	28265
816.385	28131
816.526	28055
816.666	27934
816.807	27743
816.948	27880
817.089	27785
817.23	27800
817.371	27751
817.512	27789
817.653	27705
817.793	27542
817.934	27762
818.075	27945
818.216	27823
818.356	27739
818.497	27545
818.638	27408
818.778	27370
818.919	27507
819.06	27504
819.2	27599
819.341	27625
819.481	27720
819.622	27953
819.762	28112
819.903	28101
820.043	27873
820.184	27918
820.324	27816
820.465	28017
820.605	27934
820.746	27838
820.886	27675
821.026	27827
821.167	27838
821.307	27930
821.447	27800
821.588	27739
821.728	27481
821.868	27492
822.008	27165
822.149	27180
822.289	27233
822.429	27074
822.569	26963
822.709	26891
822.849	26842
822.99	26800
823.13	26682
823.27	26800
823.41	26609
823.55	26526
823.69	26625
823.83	26667
823.97	26568
824.11	26294
824.25	26351
824.389	26423
824.529	26434
824.669	26408
824.809	26579
824.949	26575
825.089	26602
825.228	26476
825.368	26248
825.508	26180
825.648	26317
825.787	26415
825.927	26457
826.067	26126
826.206	26313
826.346	26370
826.485	26473
826.625	26263
826.765	26358
826.904	26332
827.044	26115
827.183	26107
827.323	26111
827.462	25955
827.601	26122
827.741	26043
827.88	26016
828.02	25887
828.159	26001
828.298	25989
828.437	26081
828.577	25913
828.716	26005
828.855	25875
828.994	25776
829.134	25685
829.273	25601
829.412	25689
829.551	25628
829.69	25639
829.829	25784
829.968	25719
830.107	25734
830.246	25658
830.385	25715
830.524	25613
830.663	25582
830.802	25403
830.941	25278
831.08	25304
831.219	25350
831.357	25255
831.496	25441
831.635	25293
831.774	25297
831.913	25110
832.051	25072
832.19	25107
832.329	24973
832.467	24992
832.606	24962
832.744	24806
832.883	24920
833.022	24958
833.16	24977
833.299	24985
833.437	24913
833.576	25107
833.714	25080
833.852	25129
833.991	25168
834.129	25122
834.267	25099
834.406	25000
834.544	25107
834.682	25042
834.821	24973
834.959	25129
835.097	25107
835.235	25152
835.373	24916
835.511	24943
835.65	24840
835.788	25080
835.926	24738
836.064	24681
836.202	24673
836.34	24863
836.478	24947
836.615	24890
836.753	24829
836.891	24719
837.029	24833
837.167	24726
837.305	24741
837.443	24597
837.58	24738
837.718	24745
837.856	24719
837.993	24585
838.131	24642
838.269	24604
838.406	24688
838.544	24536
838.681	24399
838.819	24315
838.956	24270
839.094	24140
839.231	24121
839.369	24296
839.506	24669
839.643	24403
839.781	24258
839.918	24079
840.055	24201
840.193	24098
840.33	24190
840.467	24155
840.604	24190
840.742	24391
840.879	23920
841.016	23999
841.153	24007
841.29	24106
841.427	24060
841.564	24201
841.701	24140
841.838	23996
841.975	23999
842.112	24015
842.249	23813
842.385	23824
842.522	24072
842.659	23946
842.796	23821
842.933	23710
843.069	23733
843.206	23771
843.343	23821
843.479	23821
843.616	23866
843.752	23665
843.889	23566
844.025	23775
844.162	23638
844.298	23752
844.435	23691
844.571	23551
844.708	23634
844.844	23726
844.98	23722
845.117	23710
845.253	23615
845.389	23474
845.525	23516
845.661	23596
845.798	23315
845.934	23471
846.07	23284
846.206	23326
846.342	23505
846.478	23227
846.614	23231
846.75	23056
846.886	23098
847.022	23216
847.158	23079
847.294	23136
847.429	22972
847.565	22927
847.701	23330
847.837	22873
847.972	22831
848.108	22748
848.244	22805
848.379	22713
848.515	22664
848.65	22565
848.786	22691
848.921	22736
849.057	22744
849.192	22710
849.328	22675
849.463	22668
849.598	22569
849.734	22527
849.869	22508
850.004	22352
850.14	22402
850.275	22413
850.41	22303
850.545	22344
850.68	22451
850.815	22375
850.95	22367
851.085	22531
851.22	22462
851.355	22417
851.49	22436
851.625	22413
851.76	22451
851.895	22432
852.03	22409
852.165	22325
852.299	22508
852.434	22432
852.569	22421
852.703	22478
852.838	22413
852.973	22504
853.107	22516
853.242	22421
853.376	22276
853.511	22181
853.645	22257
853.78	22280
853.914	22284
854.048	22242
854.183	22059
854.317	22314
854.451	22322
854.585	22082
854.72	22234
854.854	22230
854.988	22185
855.122	22322
855.256	22120
855.39	22101
855.524	22386
855.658	22211
855.792	22181
855.926	22371
856.06	22257
856.194	22405
856.327	22234
856.461	22059
856.595	22204
856.729	22211
856.862	22299
856.996	22169
857.13	22139
857.263	22367
857.397	22344
857.53	22188
857.664	22413
857.797	22276
857.931	22379
858.064	22318
858.197	22447
858.331	22280
858.464	22246
858.597	22207
858.731	22188
858.864	22234
858.997	22162
859.13	22265
859.263	22177
859.396	22333
859.529	22261
859.662	22249
859.795	22230
859.928	22204
860.061	22284
860.194	22538
860.327	22291
860.46	22143
860.592	22363
860.725	22352
860.858	22325
860.99	22257
861.123	22169
861.256	22143
861.388	22253
861.521	22949
861.653	22109
861.786	22067
861.918	22086
862.05	22204
862.183	22109
862.315	22036
862.447	22249
862.58	22067
862.712	21979
862.844	21922
862.976	22059
863.108	22086
863.24	22462
863.372	21903
863.504	21922
863.636	22010
863.768	22032
863.9	21930
864.032	21960
864.164	21873
864.296	21975
864.428	22150
864.559	22086
864.691	22025
864.823	21945
864.954	22010
865.086	21892
865.217	21831
865.349	21766
865.48	21728
865.612	21838
865.743	21994
865.875	21846
866.006	21861
866.137	21873
866.269	21781
866.4	21831
866.531	21838
866.662	21686
866.793	21682
866.924	21850
867.055	21804
867.186	21823
867.317	21724
867.448	21762
867.579	21846
867.71	21781
867.841	21656
867.972	21880
868.103	21614
868.233	21911
868.364	21766
868.495	21838
868.625	22006
868.756	22070
868.886	21869
869.017	21994
869.147	22059
869.278	22109
869.408	21979
869.539	22029
869.669	22067
869.799	21994
869.929	22070
870.06	22177
870.19	22329
870.32	22154
870.45	22360
870.58	22405
870.71	22440
870.84	22409
870.97	22337
871.1	22394
871.23	22565
871.36	22641
871.489	22428
871.619	22531
871.749	22656
871.879	22519
872.008	22668
872.138	22672
872.267	22523
872.397	22470
872.526	22303
872.656	22356
872.785	22386
872.915	22645
873.044	22645
873.173	22637
873.303	22683
873.432	22557
873.561	22637
873.69	22588
873.819	22489
873.948	22790
874.077	22706
874.206	22546
874.335	22736
874.464	22736
874.593	22877
874.722	22850
874.851	23044
874.979	22816
875.108	22892
875.237	22759
875.365	22801
875.494	22786
875.623	22938
875.751	22869
875.88	22835
876.008	23105
876.136	22976
876.265	23292
876.393	23303
876.521	23303
876.65	23360
876.778	23307
876.906	23037
877.034	23124
877.162	23174
877.29	23155
877.418	23227
877.546	23220
877.674	23079
877.802	23109
877.93	23071
878.058	23223
878.185	23075
878.313	23029
878.441	23071
878.568	23006
878.696	23200
878.824	23147
878.951	23307
879.079	23417
879.206	23509
879.333	23341
879.461	23242
879.588	23349
879.715	23273
879.842	23356
879.97	23159
880.097	22995
880.224	22923
880.351	22995
880.478	22927
880.605	22820
880.732	23037
880.859	23159
880.986	23033
881.112	22953
881.239	22793
881.366	22637
881.493	22721
881.619	22565
881.746	22531
881.872	22592
881.999	22550
882.125	22546
882.252	22557
882.378	22546
882.505	22588
882.631	22405
882.757	22219
882.883	22329
883.01	22382
883.136	22101
883.262	22055
883.388	22112
883.514	22261
883.64	22200
883.766	22097
883.892	21998
884.018	22097
884.143	22109
884.269	22280
884.395	21926
884.52	21759
884.646	21941
884.772	21804
884.897	21713
885.023	21880
885.148	22029
885.274	22063
885.399	22044
885.524	21964
885.65	21800
885.775	21869
885.9	21762
886.025	21937
886.15	22036
886.275	21838
886.4	21679
886.525	21861
886.65	21831
886.775	21747
886.9	21945
887.025	22158
887.149	21732
887.274	21667
887.399	21614
887.523	21603
887.648	21656
887.773	21644
887.897	21732
888.021	21663
888.146	21614
888.27	21576
888.395	21599
888.519	21595
888.643	21690
888.767	21717
888.891	21591
889.015	21435
889.139	21485
889.263	21416
889.387	21591
889.511	21701
889.635	21458
889.759	21351
889.883	21397
890.006	21488
890.13	21667
890.254	21222
890.377	21302
890.501	21237
890.624	21252
890.748	21310
890.871	21077
890.995	20914
891.118	20948
891.241	20986
891.364	21085
891.488	21047
891.611	20944
891.734	21070
891.857	21028
891.98	20967
892.103	21138
892.226	20929
892.349	20918
892.471	20712
892.594	20887
892.717	20914
892.839	20918
892.962	20834
893.085	20933
893.207	20921
893.33	20735
893.452	20861
893.575	20944
893.697	21024
893.819	20979
893.941	21135
894.064	21039
894.186	20807
894.308	20834
894.43	20944
894.552	21066
894.674	20891
894.796	20686
894.918	20807
895.04	20937
895.161	20895
895.283	20823
895.405	20769
895.526	20849
895.648	20788
895.769	20815
895.891	20880
896.012	21024
896.134	21017
896.255	20830
896.376	20826
896.498	20823
896.619	20876
896.74	20948
896.861	20906
896.982	21119
897.103	21332
897.224	21260
897.345	21127
897.466	21009
897.587	21047
897.708	21108
897.828	21074
897.949	21001
898.07	20883
898.19	20941
898.311	21165
898.431	21017
898.552	21157
898.672	21138
898.792	21085
898.913	21096
899.033	20902
899.153	20967
899.273	20765
899.393	20838
899.513	20861
899.633	20796
899.753	20826
899.873	20670
899.993	20750
900.113	20640
900.232	20849
900.352	20731
900.472	20678
900.591	20518
900.711	20590
900.83	20461
900.95	20716
901.069	20503
901.189	20431
901.308	20271
901.427	20161
901.546	20225
901.665	20103
901.784	20202
901.904	20020
902.023	19932
902.141	19734
902.26	19670
902.379	19784
902.498	19628
902.617	19696
902.735	19670
902.854	19487
902.973	19377
903.091	19278
903.21	19403
903.328	19365
903.446	19202
903.565	19133
903.683	19008
903.801	19042
903.919	19156
904.038	19088
904.156	18905
904.274	18954
904.392	18745
904.51	18859
904.627	18859
904.745	18916
904.863	18886
904.981	18741
905.098	18555
905.216	18544
905.334	18608
905.451	18574
905.569	18521
905.686	18467
905.803	18547
905.921	18300
906.038	18338
906.155	18281
906.272	18228
906.389	18224
906.506	18102
906.623	18087
906.74	17999
906.857	17973
906.974	17980
907.091	18136
907.208	18114
907.324	18163
907.441	17901
907.557	17707
907.674	17676
907.79	17699
907.907	17672
908.023	17733
908.139	17695
908.256	17729
908.372	17638
908.488	17619
908.604	17455
908.72	17444
908.836	17520
908.952	17474
909.068	17566
909.184	17520
909.3	17406
909.415	17490
909.531	17558
909.647	17227
909.762	17189
909.878	17136
909.993	17174
910.108	17170
910.224	17258
910.339	17060
910.454	17098
910.57	16877
910.685	16953
910.8	17296
910.915	17162
911.03	17010
911.145	16740
911.259	16763
911.374	16672
911.489	16691
911.604	16698
911.718	16538
911.833	16489
911.947	16409
912.062	16405
912.176	16546
912.291	16580
912.405	16527
912.519	16603
912.633	16755
912.748	16527
912.862	16440
912.976	16299
913.09	16234
913.204	16276
913.318	16390
913.431	16455
913.545	16493
913.659	16424
913.772	16280
913.886	16211
914	16185
914.113	16131
914.226	16215
914.34	16158
914.453	16036
914.566	16215
914.68	15983
914.793	15994
914.906	15762
915.019	15892
915.132	15667
915.245	15633
915.358	15701
915.47	15816
915.583	15705
915.696	15720
915.809	15808
915.921	15819
916.034	15641
916.146	15618
916.259	15580
916.371	15686
916.483	15534
916.595	15549
916.708	15481
916.82	15511
916.932	15500
917.044	15469
917.156	15424
917.268	15348
917.38	15351
917.491	15386
917.603	15336
917.715	15401
917.826	15473
917.938	15207
918.049	15161
918.161	15313
918.272	15454
918.384	15408
918.495	15233
918.606	15131
918.717	15017
918.828	15066
918.939	15100
919.05	15001
919.161	15024
919.272	14811
919.383	14994
919.494	15047
919.604	15283
919.715	15028
919.826	14902
919.936	14990
920.047	15146
920.157	14967
920.267	15195
920.378	15070
920.488	15013
920.598	15173
920.708	15321
920.818	15131
920.928	15108
921.038	15329
921.148	15313
921.258	14998
921.368	14906
921.477	14792
921.587	14845
921.697	14598
921.806	14769
921.916	14610
922.025	14450
922.134	14377
922.244	14298
922.353	14457
922.462	14233
922.571	14195
922.68	14058
922.789	13989
922.898	14065
923.007	13989
923.116	14100
923.224	14081
923.333	13970
923.442	13871
923.55	13860
923.659	13837
923.767	13944
923.876	13807
923.984	13879
924.092	13788
924.201	13818
924.309	13731
924.417	13746
924.525	13658
924.633	13693
924.741	14530
924.849	13476
924.956	13540
925.064	13453
925.172	13411
925.279	13335
925.387	13400
925.494	13358
925.602	13548
925.709	13472
925.816	13381
925.924	13350
926.031	13445
926.138	13381
926.245	13426
926.352	13301
926.459	13392
926.566	13384
926.673	13343
926.779	13183
926.886	13168
926.993	13034
927.099	13008
927.206	12878
927.312	12909
927.419	13031
927.525	12947
927.631	12939
927.737	12844
927.843	12772
927.95	12646
928.056	12734
928.162	12753
928.267	12897
928.373	13537
928.479	12833
928.585	12608
928.69	12681
928.796	12738
928.901	12639
929.007	12506
929.112	12597
929.218	12677
929.323	12555
929.428	12574
929.533	12669
929.638	12437
929.743	12433
929.848	12429
929.953	12471
930.058	12330
930.163	12155
930.267	12194
930.372	12258
930.477	12049
930.581	12353
930.685	12216
930.79	12064
930.894	12041
930.998	12015
931.103	12140
931.207	11840
931.311	11745
931.415	11676
931.519	11433
931.623	11471
