Data from test_V78500241_684.txt Node
Date: Fri Mar 25 15:46:32 CST 2022
User: usil
Spectrometer: V785-0024
Trigger mode: 0
Integration Time (sec): 4.000000E-1
Scans to average: 1
Nonlinearity correction enabled: false
Boxcar width: 0
Storing dark spectrum: false
XAxis mode: Wavelengths
Number of Pixels in Spectrum: 1024
>>>>>Begin Spectral Data<<<<<
801.071	28048
801.214	27934
801.356	27774
801.499	27656
801.641	27389
801.783	27488
801.926	27603
802.068	27496
802.211	27526
802.353	27420
802.496	27214
802.638	27222
802.78	27154
802.923	27081
803.065	27039
803.208	27093
803.35	27226
803.492	27355
803.635	27370
803.777	27363
803.919	27382
804.061	27755
804.204	27401
804.346	27408
804.488	27298
804.63	27359
804.773	27298
804.915	27477
805.057	27496
805.199	27564
805.341	27363
805.483	27538
805.626	27545
805.768	27427
805.91	27606
806.052	27580
806.194	27408
806.336	27701
806.478	27686
806.62	27576
806.762	27701
806.904	27869
807.046	28097
807.188	27964
807.33	27888
807.472	28044
807.614	27850
807.756	27979
807.898	27972
808.04	27789
808.182	27941
808.324	27808
808.465	27876
808.607	28070
808.749	28192
808.891	28223
809.033	28257
809.174	28154
809.316	28196
809.458	28207
809.6	28276
809.741	28542
809.883	28280
810.025	28455
810.166	28421
810.308	28424
810.45	28379
810.591	28394
810.733	28265
810.875	28207
811.016	28067
811.158	28150
811.299	28394
811.441	28386
811.582	28371
811.724	28162
811.865	28029
812.007	28093
812.148	28147
812.29	28207
812.431	28318
812.573	28577
812.714	28561
812.855	28801
812.997	28748
813.138	28869
813.279	28995
813.421	28805
813.562	28797
813.703	28428
813.845	28470
813.986	28105
814.127	27994
814.268	27857
814.41	27956
814.551	27895
814.692	28093
814.833	27914
814.974	27907
815.115	27888
815.256	27728
815.397	27804
815.539	27682
815.68	27648
815.821	27614
815.962	27774
816.103	27656
816.244	27625
816.385	27412
816.526	27576
816.666	27283
816.807	27184
816.948	27306
817.089	27370
817.23	27367
817.371	27291
817.512	27291
817.653	27142
817.793	27233
817.934	27195
818.075	27260
818.216	27199
818.356	27116
818.497	27135
818.638	26853
818.778	26952
818.919	26994
819.06	27112
819.2	27009
819.341	27195
819.481	27188
819.622	27416
819.762	27488
819.903	27466
820.043	27294
820.184	27302
820.324	27298
820.465	27329
820.605	27374
820.746	27264
820.886	27058
821.026	27294
821.167	27256
821.307	27393
821.447	27249
821.588	27135
821.728	27036
821.868	26735
822.008	26735
822.149	26716
822.289	26667
822.429	26450
822.569	26347
822.709	26389
822.849	26256
822.99	26142
823.13	26157
823.27	26107
823.41	26092
823.55	25906
823.69	25978
823.83	26058
823.97	25959
824.11	25868
824.25	25772
824.389	25871
824.529	25959
824.669	25757
824.809	25909
824.949	26027
825.089	25868
825.228	25921
825.368	25841
825.508	25693
825.648	25727
825.787	25753
825.927	25818
826.067	25609
826.206	25761
826.346	25780
826.485	25772
826.625	25624
826.765	25845
826.904	25731
827.044	25278
827.183	25521
827.323	25438
827.462	25358
827.601	25422
827.741	25282
827.88	25445
828.02	25346
828.159	25362
828.298	25392
828.437	25441
828.577	25194
828.716	25479
828.855	25365
828.994	25042
829.134	25042
829.273	25091
829.412	25133
829.551	24981
829.69	25133
829.829	25202
829.968	25103
830.107	25179
830.246	25183
830.385	24985
830.524	25168
830.663	24970
830.802	24757
830.941	24707
831.08	24726
831.219	24806
831.357	24798
831.496	24905
831.635	24810
831.774	24601
831.913	24620
832.051	24311
832.19	24505
832.329	24445
832.467	24350
832.606	24395
832.744	24403
832.883	24319
833.022	24277
833.16	24388
833.299	24426
833.437	24395
833.576	24391
833.714	24494
833.852	24445
833.991	24544
834.129	24593
834.267	24639
834.406	24566
834.544	24330
834.682	24403
834.821	24448
834.959	24582
835.097	24357
835.235	24540
835.373	24353
835.511	24479
835.65	24330
835.788	24273
835.926	24171
836.064	24129
836.202	24034
836.34	24243
836.478	24281
836.615	24155
836.753	24273
836.891	24281
837.029	24403
837.167	24174
837.305	24114
837.443	24136
837.58	24190
837.718	24224
837.856	24152
837.993	24076
838.131	24110
838.269	24026
838.406	24034
838.544	23965
838.681	23790
838.819	23596
838.956	23562
839.094	23566
839.231	23558
839.369	23672
839.506	23866
839.643	23805
839.781	23531
839.918	23516
840.055	23558
840.193	23630
840.33	23528
840.467	23543
840.604	23551
840.742	23855
840.879	23421
841.016	23478
841.153	23425
841.29	23547
841.427	23444
841.564	23520
841.701	23512
841.838	23417
841.975	23478
842.112	23376
842.249	23353
842.385	23109
842.522	23501
842.659	23280
842.796	23124
842.933	23315
843.069	23140
843.206	23261
843.343	23258
843.479	23143
843.616	23246
843.752	23022
843.889	22934
844.025	23159
844.162	22942
844.298	23090
844.435	22904
844.571	22923
844.708	23102
844.844	23193
844.98	23212
845.117	23166
845.253	22965
845.389	22869
845.525	22915
845.661	22767
845.798	22725
845.934	22835
846.07	22675
846.206	22706
846.342	22824
846.478	22805
846.614	22512
846.75	22451
846.886	22493
847.022	22584
847.158	22474
847.294	22409
847.429	22493
847.565	22337
847.701	22755
847.837	22207
847.972	22150
848.108	22337
848.244	22386
848.379	22139
848.515	22109
848.65	21941
848.786	22158
848.921	22044
849.057	22150
849.192	22101
849.328	22086
849.463	21991
849.598	22177
849.734	22006
849.869	21964
850.004	21869
850.14	21747
850.275	21842
850.41	21835
850.545	21762
850.68	21736
850.815	21785
850.95	21876
851.085	21994
851.22	21911
851.355	21915
851.49	21876
851.625	21816
851.76	21774
851.895	21797
852.03	21766
852.165	21778
852.299	21762
852.434	21907
852.569	21880
852.703	21972
852.838	21903
852.973	22010
853.107	21895
853.242	21880
853.376	21656
853.511	21595
853.645	21564
853.78	21819
853.914	21622
854.048	21504
854.183	21599
854.317	21804
854.451	21762
854.585	21698
854.72	21660
854.854	21736
854.988	21583
855.122	21671
855.256	21526
855.39	21720
855.524	21523
855.658	21660
855.792	21637
855.926	21663
856.06	21759
856.194	21694
856.327	21614
856.461	21526
856.595	21557
856.729	21690
856.862	21816
856.996	21808
857.13	21682
857.263	21709
857.397	21759
857.53	21648
857.664	21739
857.797	21739
857.931	21751
858.064	21736
858.197	21804
858.331	21682
858.464	21583
858.597	21496
858.731	21580
858.864	21534
858.997	21641
859.13	21751
859.263	21739
859.396	21789
859.529	21720
859.662	21625
859.795	21644
859.928	21618
860.061	21831
860.194	21819
860.327	21618
860.46	21732
860.592	21819
860.725	21816
860.858	21713
860.99	21644
861.123	21561
861.256	21583
861.388	21660
861.521	22211
861.653	21545
861.786	21359
861.918	21469
862.05	21519
862.183	21622
862.315	21622
862.447	21644
862.58	21671
862.712	21367
862.844	21287
862.976	21450
863.108	21351
863.24	21701
863.372	21317
863.504	21310
863.636	21367
863.768	21458
863.9	21367
864.032	21268
864.164	21283
864.296	21321
864.428	21393
864.559	21428
864.691	21591
864.823	21401
864.954	21439
865.086	21336
865.217	21252
865.349	21085
865.48	21340
865.612	21310
865.743	21466
865.875	21389
866.006	21218
866.137	21203
866.269	21241
866.4	21195
866.531	21203
866.662	21260
866.793	21218
866.924	21135
867.055	21222
867.186	21173
867.317	21176
867.448	21165
867.579	21085
867.71	21036
867.841	21081
867.972	21176
868.103	21055
868.233	21081
868.364	21283
868.495	21313
868.625	21534
868.756	21557
868.886	21272
869.017	21523
869.147	21397
869.278	21473
869.408	21439
869.539	21431
869.669	21511
869.799	21473
869.929	21568
870.06	21492
870.19	21728
870.32	21652
870.45	21804
870.58	21713
870.71	21975
870.84	21907
870.97	21884
871.1	21800
871.23	21937
871.36	22044
871.489	21915
871.619	22059
871.749	22063
871.879	21953
872.008	22135
872.138	21949
872.267	21956
872.397	21774
872.526	21762
872.656	21823
872.785	21827
872.915	22059
873.044	22154
873.173	22002
873.303	22029
873.432	22124
873.561	22097
873.69	22051
873.819	22040
873.948	22097
874.077	22074
874.206	21918
874.335	22013
874.464	22101
874.593	22360
874.722	22185
874.851	22322
874.979	22402
875.108	22322
875.237	22207
875.365	22238
875.494	22215
875.623	22276
875.751	22200
875.88	22280
876.008	22421
876.136	22382
876.265	22508
876.393	22729
876.521	22721
876.65	22672
876.778	22729
876.906	22645
877.034	22550
877.162	22622
877.29	22660
877.418	22596
877.546	22565
877.674	22603
877.802	22580
877.93	22580
878.058	22584
878.185	22466
878.313	22561
878.441	22519
878.568	22478
878.696	22478
878.824	22637
878.951	22675
879.079	22835
879.206	22980
879.333	22862
879.461	22653
879.588	22698
879.715	22797
879.842	22828
879.97	22786
880.097	22394
880.224	22478
880.351	22478
880.478	22512
880.605	22432
880.732	22348
880.859	22653
880.986	22504
881.112	22428
881.239	22303
881.366	22063
881.493	22017
881.619	22055
881.746	22093
881.872	21956
881.999	21979
882.125	21903
882.252	22010
882.378	21911
882.505	22048
882.631	21903
882.757	21804
882.883	21804
883.01	21739
883.136	21549
883.262	21580
883.388	21549
883.514	21751
883.64	21720
883.766	21625
883.892	21447
884.018	21431
884.143	21557
884.269	21766
884.395	21519
884.52	21245
884.646	21359
884.772	21291
884.897	21195
885.023	21386
885.148	21424
885.274	21340
885.399	21469
885.524	21222
885.65	21435
885.775	21431
885.9	21298
886.025	21408
886.15	21264
886.275	21241
886.4	21203
886.525	21416
886.65	21173
886.775	21192
886.9	21416
887.025	21477
887.149	21462
887.274	21142
887.399	21180
887.523	20994
887.648	21005
887.773	21024
887.897	21116
888.021	21169
888.146	21093
888.27	21161
888.395	21203
888.519	21077
888.643	21119
888.767	21249
888.891	20948
889.015	20883
889.139	20910
889.263	20853
889.387	20956
889.511	21047
889.635	21199
889.759	20819
889.883	20906
890.006	20895
890.13	21001
890.254	20807
890.377	20807
890.501	20697
890.624	20621
890.748	20750
890.871	20545
890.995	20419
891.118	20324
891.241	20454
891.364	20568
891.488	20549
891.611	20488
891.734	20530
891.857	20465
891.98	20454
892.103	20545
892.226	20484
892.349	20465
892.471	20157
892.594	20286
892.717	20370
892.839	20199
892.962	20355
893.085	20473
893.207	20328
893.33	20275
893.452	20233
893.575	20404
893.697	20305
893.819	20549
893.941	20552
894.064	20518
894.186	20362
894.308	20278
894.43	20381
894.552	20450
894.674	20332
894.796	20210
894.918	20415
895.04	20347
895.161	20404
895.283	20317
895.405	20446
895.526	20347
895.648	20370
895.769	20305
895.891	20343
896.012	20499
896.134	20415
896.255	20385
896.376	20355
896.498	20313
896.619	20423
896.74	20271
896.861	20419
896.982	20590
897.103	20853
897.224	20632
897.345	20629
897.466	20549
897.587	20533
897.708	20826
897.828	20644
897.949	20598
898.07	20415
898.19	20541
898.311	20716
898.431	20457
898.552	20533
898.672	20739
898.792	20651
898.913	20587
899.033	20495
899.153	20366
899.273	20278
899.393	20324
899.513	20358
899.633	20362
899.753	20377
899.873	20267
899.993	20347
900.113	20309
900.232	20233
900.352	20252
900.472	20149
900.591	20035
900.711	20202
900.83	20008
900.95	20073
901.069	20180
901.189	20050
901.308	19685
901.427	19567
901.546	19628
901.665	19826
901.784	19788
901.904	19544
902.023	19415
902.141	19331
902.26	19434
902.379	19209
902.498	19148
902.617	19171
902.735	19209
902.854	19179
902.973	19107
903.091	18825
903.21	18886
903.328	18779
903.446	18741
903.565	18741
903.683	18654
903.801	18601
903.919	18677
904.038	18528
904.156	18498
904.274	18563
904.392	18391
904.51	18448
904.627	18464
904.745	18403
904.863	18452
904.981	18220
905.098	18079
905.216	18140
905.334	18068
905.451	18129
905.569	18015
905.686	18083
905.803	18041
905.921	17904
906.038	18053
906.155	17999
906.272	17878
906.389	17775
906.506	17661
906.623	17665
906.74	17600
906.857	17543
906.974	17482
907.091	17604
907.208	17767
907.324	17737
907.441	17524
907.557	17364
907.674	17356
907.79	17311
907.907	17410
908.023	17402
908.139	17254
908.256	17223
908.372	17261
908.488	17258
908.604	17045
908.72	17079
908.836	17094
908.952	17102
909.068	17037
909.184	17109
909.3	17155
909.415	17098
909.531	16976
909.647	16816
909.762	16748
909.878	16717
909.993	16736
910.108	16755
910.224	16755
910.339	16660
910.454	16653
910.57	16626
910.685	16512
910.8	16748
910.915	16672
911.03	16447
911.145	16379
911.259	16318
911.374	16409
911.489	16257
911.604	16360
911.718	16059
911.833	16059
911.947	16078
912.062	15972
912.176	16124
912.291	16166
912.405	16101
912.519	16322
912.633	16261
912.748	16177
912.862	16078
912.976	15937
913.09	15861
913.204	15956
913.318	15842
913.431	16025
913.545	15953
913.659	15987
913.772	15975
913.886	15819
914	15698
914.113	15732
914.226	15854
914.34	15797
914.453	15534
914.566	15743
914.68	15599
914.793	15690
914.906	15397
915.019	15306
915.132	15260
915.245	15351
915.358	15279
915.47	15325
915.583	15310
915.696	15359
915.809	15545
915.921	15530
916.034	15302
916.146	15237
916.259	15188
916.371	15294
916.483	15230
916.595	15173
916.708	15081
916.82	15169
916.932	15036
917.044	15100
917.156	15062
917.268	14982
917.38	14971
917.491	14910
917.603	14994
917.715	15005
917.826	15028
917.938	14823
918.049	14727
918.161	14906
918.272	15043
918.384	15028
918.495	14933
918.606	14773
918.717	14705
918.828	14800
918.939	14845
919.05	14705
919.161	14674
919.272	14590
919.383	14526
919.494	14762
919.604	14941
919.715	14640
919.826	14644
919.936	14750
920.047	14708
920.157	14739
920.267	14765
920.378	14541
920.488	14632
920.598	14819
920.708	14956
920.818	14785
920.928	14826
921.038	15032
921.148	14895
921.258	14587
921.368	14571
921.477	14488
921.587	14332
921.697	14385
921.806	14362
921.916	14202
922.025	14062
922.134	14092
922.244	14016
922.353	14115
922.462	13974
922.571	13875
922.68	13765
922.789	13746
922.898	13723
923.007	13590
923.116	13731
923.224	13636
923.333	13586
923.442	13510
923.55	13502
923.659	13533
923.767	13590
923.876	13381
923.984	13556
924.092	13392
924.201	13434
924.309	13449
924.417	13502
924.525	13400
924.633	13403
924.741	14195
924.849	13091
924.956	13308
925.064	13198
925.172	13095
925.279	13031
925.387	13072
925.494	13141
925.602	13285
925.709	13217
925.816	13004
925.924	13042
926.031	13137
926.138	13004
926.245	13027
926.352	12970
926.459	13091
926.566	13164
926.673	13023
926.779	12882
926.886	12772
926.993	12665
927.099	12681
927.206	12715
927.312	12677
927.419	12669
927.525	12684
927.631	12715
927.737	12544
927.843	12582
927.95	12403
928.056	12399
928.162	12456
928.267	12429
928.373	13156
928.479	12532
928.585	12330
928.69	12433
928.796	12395
928.901	12277
929.007	12232
929.112	12330
929.218	12262
929.323	12186
929.428	12270
929.533	12391
929.638	12178
929.743	12155
929.848	12152
929.953	12190
930.058	12038
930.163	11805
930.267	11855
930.372	12019
930.477	11847
930.581	12098
930.685	12011
930.79	11783
930.894	11851
930.998	11748
931.103	11904
931.207	11478
931.311	11463
931.415	11353
931.519	11223
931.623	11140
