Data from test_V78500241_3719.txt Node
Date: Fri Mar 25 16:07:33 CST 2022
User: usil
Spectrometer: V785-0024
Trigger mode: 0
Integration Time (sec): 4.000000E-1
Scans to average: 1
Nonlinearity correction enabled: false
Boxcar width: 0
Storing dark spectrum: false
XAxis mode: Wavelengths
Number of Pixels in Spectrum: 1024
>>>>>Begin Spectral Data<<<<<
801.071	28207
801.214	28090
801.356	27998
801.499	27972
801.641	27759
801.783	27869
801.926	28021
802.068	27682
802.211	27724
802.353	27690
802.496	27583
802.638	27587
802.78	27469
802.923	27481
803.065	27310
803.208	27389
803.35	27545
803.492	27694
803.635	27720
803.777	27576
803.919	27770
804.061	28109
804.204	27759
804.346	27656
804.488	27736
804.63	27728
804.773	27557
804.915	27709
805.057	27800
805.199	27770
805.341	27728
805.483	27838
805.626	27686
805.768	27713
805.91	28021
806.052	27835
806.194	27766
806.336	28090
806.478	27884
806.62	27827
806.762	27937
806.904	28063
807.046	28375
807.188	28249
807.33	28363
807.472	28462
807.614	28253
807.756	28318
807.898	28185
808.04	28196
808.182	28204
808.324	28169
808.465	28318
808.607	28337
808.749	28474
808.891	28622
809.033	28927
809.174	28645
809.316	28592
809.458	28538
809.6	28504
809.741	28569
809.883	28778
810.025	28767
810.166	28881
810.308	28831
810.45	28755
810.591	28782
810.733	28584
810.875	28542
811.016	28500
811.158	28538
811.299	28645
811.441	28618
811.582	28790
811.724	28713
811.865	28622
812.007	28440
812.148	28550
812.29	28713
812.431	28888
812.573	28892
812.714	28919
812.855	29071
812.997	29280
813.138	29387
813.279	29261
813.421	29155
813.562	29018
813.703	28778
813.845	28740
813.986	28656
814.127	28337
814.268	28356
814.41	28356
814.551	28268
814.692	28291
814.833	28314
814.974	28253
815.115	28322
815.256	28158
815.397	28173
815.539	28032
815.68	27983
815.821	28223
815.962	28059
816.103	28074
816.244	27808
816.385	27785
816.526	27774
816.666	27576
816.807	27599
816.948	27656
817.089	27599
817.23	27538
817.371	27591
817.512	27580
817.653	27507
817.793	27416
817.934	27610
818.075	27755
818.216	27599
818.356	27549
818.497	27500
818.638	27176
818.778	27294
818.919	27264
819.06	27370
819.2	27576
819.341	27568
819.481	27439
819.622	27694
819.762	27956
819.903	27903
820.043	27709
820.184	27759
820.324	27789
820.465	27869
820.605	27641
820.746	27652
820.886	27595
821.026	27625
821.167	27568
821.307	27736
821.447	27564
821.588	27507
821.728	27538
821.868	27268
822.008	26891
822.149	27100
822.289	27096
822.429	26815
822.569	26689
822.709	26842
822.849	26457
822.99	26511
823.13	26537
823.27	26602
823.41	26309
823.55	26309
823.69	26282
823.83	26393
823.97	26343
824.11	26191
824.25	26062
824.389	26237
824.529	26221
824.669	26164
824.809	26404
824.949	26134
825.089	26183
825.228	26130
825.368	26157
825.508	25989
825.648	26088
825.787	26157
825.927	25993
826.067	25936
826.206	26115
826.346	26054
826.485	26138
826.625	26225
826.765	26081
826.904	26092
827.044	25871
827.183	25875
827.323	25822
827.462	25860
827.601	25830
827.741	25902
827.88	25955
828.02	25571
828.159	25746
828.298	25791
828.437	25875
828.577	25761
828.716	25902
828.855	25738
828.994	25544
829.134	25430
829.273	25537
829.412	25521
829.551	25354
829.69	25506
829.829	25445
829.968	25575
830.107	25552
830.246	25491
830.385	25582
830.524	25438
830.663	25384
830.802	25190
830.941	24992
831.08	25053
831.219	25225
831.357	25050
831.496	25304
831.635	25038
831.774	25053
831.913	25000
832.051	24890
832.19	24833
832.329	24935
832.467	24806
832.606	24631
832.744	24856
832.883	24726
833.022	24654
833.16	24681
833.299	24814
833.437	24734
833.576	24890
833.714	24829
833.852	24871
833.991	24848
834.129	24920
834.267	24966
834.406	24768
834.544	24894
834.682	24894
834.821	24779
834.959	24943
835.097	24882
835.235	24905
835.373	24928
835.511	24890
835.65	24711
835.788	24734
835.926	24631
836.064	24585
836.202	24578
836.34	24677
836.478	24806
836.615	24688
836.753	24692
836.891	24688
837.029	24646
837.167	24650
837.305	24505
837.443	24597
837.58	24365
837.718	24525
837.856	24570
837.993	24376
838.131	24502
838.269	24471
838.406	24464
838.544	24323
838.681	24235
838.819	24152
838.956	23931
839.094	23916
839.231	23996
839.369	24159
839.506	24437
839.643	24133
839.781	23942
839.918	23882
840.055	23920
840.193	23840
840.33	23847
840.467	23904
840.604	23954
840.742	24038
840.879	23821
841.016	23756
841.153	23786
841.29	24018
841.427	23931
841.564	23984
841.701	23973
841.838	23878
841.975	23638
842.112	23809
842.249	23756
842.385	23657
842.522	23885
842.659	23729
842.796	23558
842.933	23585
843.069	23615
843.206	23573
843.343	23699
843.479	23577
843.616	23745
843.752	23391
843.889	23463
844.025	23478
844.162	23341
844.298	23433
844.435	23372
844.571	23387
844.708	23448
844.844	23512
844.98	23531
845.117	23638
845.253	23387
845.389	23341
845.525	23220
845.661	23417
845.798	23140
845.934	23326
846.07	23212
846.206	23147
846.342	23223
846.478	23273
846.614	22934
846.75	22877
846.886	22889
847.022	22942
847.158	22900
847.294	22908
847.429	22984
847.565	22820
847.701	23102
847.837	22474
847.972	22557
848.108	22854
848.244	22763
848.379	22390
848.515	22550
848.65	22481
848.786	22382
848.921	22512
849.057	22618
849.192	22535
849.328	22546
849.463	22455
849.598	22333
849.734	22409
849.869	22318
850.004	22284
850.14	22211
850.275	22295
850.41	22173
850.545	22166
850.68	22181
850.815	22303
850.95	22185
851.085	22436
851.22	22299
851.355	22238
851.49	22177
851.625	22196
851.76	22261
851.895	22242
852.03	22211
852.165	22109
852.299	22341
852.434	22280
852.569	22325
852.703	22238
852.838	22363
852.973	22249
853.107	22257
853.242	22154
853.376	22090
853.511	21994
853.645	21941
853.78	22154
853.914	22086
854.048	22082
854.183	22006
854.317	22059
854.451	22272
854.585	22120
854.72	22029
854.854	22185
854.988	22025
855.122	21850
855.256	21987
855.39	22025
855.524	22124
855.658	22032
855.792	22013
855.926	22006
856.06	22048
856.194	22090
856.327	21945
856.461	22017
856.595	22055
856.729	21842
856.862	22230
856.996	22097
857.13	22158
857.263	22086
857.397	22185
857.53	22025
857.664	22082
857.797	21972
857.931	22150
858.064	22109
858.197	22211
858.331	22021
858.464	21991
858.597	21850
858.731	22006
858.864	22013
858.997	21934
859.13	22059
859.263	22040
859.396	22181
859.529	22044
859.662	22006
859.795	22044
859.928	22131
860.061	22074
860.194	22215
860.327	22002
860.46	22105
860.592	22185
860.725	22097
860.858	22169
860.99	22006
861.123	22006
861.256	22063
861.388	22055
861.521	22687
861.653	21926
861.786	21884
861.918	21922
862.05	21979
862.183	22029
862.315	22090
862.447	22021
862.58	22013
862.712	21728
862.844	21747
862.976	21869
863.108	21831
863.24	22158
863.372	21762
863.504	21831
863.636	21884
863.768	21781
863.9	21774
864.032	21717
864.164	21793
864.296	21755
864.428	21781
864.559	21781
864.691	21774
864.823	21736
864.954	21774
865.086	21728
865.217	21618
865.349	21576
865.48	21637
865.612	21720
865.743	21785
865.875	21641
866.006	21595
866.137	21625
866.269	21606
866.4	21629
866.531	21496
866.662	21591
866.793	21519
866.924	21633
867.055	21583
867.186	21644
867.317	21485
867.448	21473
867.579	21549
867.71	21405
867.841	21526
867.972	21530
868.103	21648
868.233	21492
868.364	21572
868.495	21739
868.625	21793
868.756	21937
868.886	21698
869.017	21888
869.147	21956
869.278	21949
869.408	21736
869.539	21846
869.669	21850
869.799	21827
869.929	22002
870.06	21823
870.19	22051
870.32	22112
870.45	22131
870.58	22185
870.71	22261
870.84	22333
870.97	22249
871.1	22173
871.23	22405
871.36	22481
871.489	22352
871.619	22344
871.749	22451
871.879	22432
872.008	22599
872.138	22470
872.267	22443
872.397	22299
872.526	22386
872.656	22230
872.785	22276
872.915	22405
873.044	22561
873.173	22436
873.303	22550
873.432	22478
873.561	22569
873.69	22512
873.819	22371
873.948	22550
874.077	22447
874.206	22379
874.335	22500
874.464	22500
874.593	22721
874.722	22611
874.851	22660
874.979	22713
875.108	22672
875.237	22615
875.365	22618
875.494	22721
875.623	22645
875.751	22702
875.88	22599
876.008	22797
876.136	22839
876.265	23181
876.393	23113
876.521	23105
876.65	23029
876.778	23102
876.906	23064
877.034	23067
877.162	23041
877.29	22995
877.418	23075
877.546	22980
877.674	22965
877.802	22999
877.93	22995
878.058	22984
878.185	22771
878.313	22976
878.441	22999
878.568	22835
878.696	22847
878.824	23025
878.951	23022
879.079	23174
879.206	23277
879.333	23166
879.461	23071
879.588	23261
879.715	23094
879.842	23349
879.97	23037
880.097	22858
880.224	22812
880.351	22885
880.478	22828
880.605	22790
880.732	22866
880.859	23048
880.986	22771
881.112	22752
881.239	22733
881.366	22565
881.493	22527
881.619	22367
881.746	22398
881.872	22322
881.999	22459
882.125	22291
882.252	22280
882.378	22322
882.505	22497
882.631	22375
882.757	22265
882.883	22086
883.01	22063
883.136	22055
883.262	21975
883.388	21899
883.514	22124
883.64	22055
883.766	21983
883.892	21800
884.018	21983
884.143	22017
884.269	22059
884.395	21774
884.52	21637
884.646	21816
884.772	21690
884.897	21557
885.023	21698
885.148	21766
885.274	21846
885.399	21854
885.524	21755
885.65	21732
885.775	21644
885.9	21633
886.025	21800
886.15	21694
886.275	21751
886.4	21580
886.525	21679
886.65	21519
886.775	21698
886.9	21660
887.025	21854
887.149	21561
887.274	21564
887.399	21462
887.523	21458
887.648	21450
887.773	21393
887.897	21507
888.021	21564
888.146	21329
888.27	21439
888.395	21542
888.519	21466
888.643	21519
888.767	21450
888.891	21348
889.015	21195
889.139	21359
889.263	21252
889.387	21367
889.511	21443
889.635	21298
889.759	21195
889.883	21211
890.006	21268
890.13	21367
890.254	21195
890.377	21192
890.501	20937
890.624	21032
890.748	21096
890.871	20914
890.995	20834
891.118	20815
891.241	20727
891.364	20750
891.488	20952
891.611	20785
891.734	20823
891.857	20826
891.98	20807
892.103	20876
892.226	20712
892.349	20617
892.471	20473
892.594	20670
892.717	20708
892.839	20777
892.962	20861
893.085	20853
893.207	20663
893.33	20659
893.452	20731
893.575	20899
893.697	20743
893.819	20796
893.941	20956
894.064	20819
894.186	20796
894.308	20629
894.43	20826
894.552	20861
894.674	20830
894.796	20708
894.918	20693
895.04	20731
895.161	20815
895.283	20773
895.405	20606
895.526	20712
895.648	20712
895.769	20777
895.891	20724
896.012	20697
896.134	20720
896.255	20765
896.376	20686
896.498	20724
896.619	20743
896.74	20682
896.861	20697
896.982	21070
897.103	21138
897.224	21020
897.345	20910
897.466	20861
897.587	20792
897.708	21020
897.828	20918
897.949	20910
898.07	20830
898.19	20800
898.311	20921
898.431	20773
898.552	20986
898.672	21009
898.792	20960
898.913	20941
899.033	20880
899.153	20750
899.273	20598
899.393	20598
899.513	20663
899.633	20689
899.753	20648
899.873	20579
899.993	20629
900.113	20655
900.232	20655
900.352	20636
900.472	20415
900.591	20370
900.711	20442
900.83	20415
900.95	20404
901.069	20450
901.189	20313
901.308	19997
901.427	19978
901.546	20043
901.665	20050
901.784	20020
901.904	19864
902.023	19837
902.141	19449
902.26	19537
902.379	19594
902.498	19559
902.617	19487
902.735	19586
902.854	19480
902.973	19499
903.091	19168
903.21	19114
903.328	19160
903.446	19057
903.565	18977
903.683	18966
903.801	18817
903.919	18897
904.038	18897
904.156	18722
904.274	18806
904.392	18760
904.51	18711
904.627	18623
904.745	18749
904.863	18654
904.981	18563
905.098	18418
905.216	18448
905.334	18441
905.451	18369
905.569	18350
905.686	18330
905.803	18346
905.921	18289
906.038	18235
906.155	18254
906.272	18034
906.389	18155
906.506	17939
906.623	17946
906.74	17939
906.857	17859
906.974	17832
907.091	17988
907.208	18087
907.324	17931
907.441	17870
907.557	17703
907.674	17566
907.79	17672
907.907	17638
908.023	17737
908.139	17551
908.256	17703
908.372	17516
908.488	17474
908.604	17459
908.72	17368
908.836	17448
908.952	17356
909.068	17326
909.184	17528
909.3	17368
909.415	17429
909.531	17326
909.647	17109
909.762	17151
909.878	17086
909.993	17075
910.108	17083
910.224	17025
910.339	17022
910.454	16900
910.57	16877
910.685	16805
910.8	17147
910.915	17136
911.03	16809
911.145	16752
911.259	16698
911.374	16653
911.489	16599
911.604	16538
911.718	16325
911.833	16500
911.947	16295
912.062	16310
912.176	16447
912.291	16356
912.405	16371
912.519	16580
912.633	16554
912.748	16462
912.862	16341
912.976	16318
913.09	16185
913.204	16185
913.318	16185
913.431	16238
913.545	16272
913.659	16325
913.772	16215
913.886	16124
914	15983
914.113	16173
914.226	16090
914.34	16025
914.453	15899
914.566	16013
914.68	15937
914.793	15979
914.906	15717
915.019	15599
915.132	15584
915.245	15576
915.358	15663
915.47	15614
915.583	15599
915.696	15698
915.809	15728
915.921	15774
916.034	15492
916.146	15545
916.259	15397
916.371	15557
916.483	15477
916.595	15496
916.708	15454
916.82	15462
916.932	15416
917.044	15359
917.156	15428
917.268	15367
917.38	15203
917.491	15192
917.603	15184
917.715	15348
917.826	15283
917.938	15283
918.049	15074
918.161	15218
918.272	15249
918.384	15294
918.495	15161
918.606	15036
918.717	14971
918.828	15036
918.939	15097
919.05	14956
919.161	15051
919.272	14731
919.383	14883
919.494	15017
919.604	15127
919.715	14925
919.826	14876
919.936	14963
920.047	15020
920.157	14906
920.267	15074
920.378	14952
920.488	14952
920.598	15203
920.708	15275
920.818	15123
920.928	14929
921.038	15203
921.148	15112
921.258	14899
921.368	14792
921.477	14705
921.587	14629
921.697	14545
921.806	14674
921.916	14552
922.025	14427
922.134	14393
922.244	14237
922.353	14351
922.462	14221
922.571	14153
922.68	13936
922.789	14024
922.898	13974
923.007	13818
923.116	13967
923.224	13894
923.333	13883
923.442	13799
923.55	13769
923.659	13833
923.767	13753
923.876	13643
923.984	13807
924.092	13628
924.201	13757
924.309	13662
924.417	13647
924.525	13552
924.633	13643
924.741	14381
924.849	13339
924.956	13594
925.064	13453
925.172	13266
925.279	13266
925.387	13419
925.494	13354
925.602	13552
925.709	13419
925.816	13190
925.924	13289
926.031	13407
926.138	13259
926.245	13354
926.352	13122
926.459	13335
926.566	13358
926.673	13175
926.779	12989
926.886	13027
926.993	12981
927.099	12954
927.206	12935
927.312	12844
927.419	12962
927.525	12776
927.631	12871
927.737	12749
927.843	12669
927.95	12658
928.056	12700
928.162	12764
928.267	12768
928.373	13468
928.479	12783
928.585	12582
928.69	12707
928.796	12817
928.901	12490
929.007	12399
929.112	12608
929.218	12551
929.323	12460
929.428	12448
929.533	12544
929.638	12300
929.743	12391
929.848	12380
929.953	12414
930.058	12163
930.163	12060
930.267	12095
930.372	12243
930.477	12049
930.581	12254
930.685	12232
930.79	12011
930.894	12030
930.998	11958
931.103	12148
931.207	11752
931.311	11630
931.415	11474
931.519	11459
931.623	11376
