Data from test_V78500241_181.txt Node
Date: Fri Mar 25 15:43:03 CST 2022
User: usil
Spectrometer: V785-0024
Trigger mode: 0
Integration Time (sec): 4.000000E-1
Scans to average: 1
Nonlinearity correction enabled: false
Boxcar width: 0
Storing dark spectrum: false
XAxis mode: Wavelengths
Number of Pixels in Spectrum: 1024
>>>>>Begin Spectral Data<<<<<
801.071	29592
801.214	29459
801.356	29269
801.499	29261
801.641	29109
801.783	29117
801.926	29140
802.068	29147
802.211	28991
802.353	28919
802.496	28877
802.638	28801
802.78	28672
802.923	28736
803.065	28557
803.208	28733
803.35	28721
803.492	28915
803.635	28824
803.777	28771
803.919	28847
804.061	29083
804.204	28942
804.346	28744
804.488	28717
804.63	28759
804.773	28725
804.915	28729
805.057	28877
805.199	28752
805.341	28961
805.483	28930
805.626	28911
805.768	28888
805.91	29052
806.052	29037
806.194	28831
806.336	29041
806.478	29071
806.62	28930
806.762	29193
806.904	29208
807.046	29589
807.188	29299
807.33	29284
807.472	29379
807.614	29311
807.756	29242
807.898	29258
808.04	29003
808.182	28957
808.324	29067
808.465	29258
808.607	29311
808.749	29379
808.891	29509
809.033	29726
809.174	29558
809.316	29547
809.458	29349
809.6	29395
809.741	29516
809.883	29600
810.025	29794
810.166	29745
810.308	29809
810.45	29589
810.591	29657
810.733	29497
810.875	29433
811.016	29383
811.158	29356
811.299	29486
811.441	29729
811.582	29562
811.724	29463
811.865	29471
812.007	29429
812.148	29372
812.29	29398
812.431	29604
812.573	29661
812.714	29847
812.855	29878
812.997	30003
813.138	30220
813.279	30098
813.421	29954
813.562	29878
813.703	29756
813.845	29737
813.986	29383
814.127	29200
814.268	29197
814.41	28961
814.551	29117
814.692	29193
814.833	29003
814.974	29086
815.115	28953
815.256	28824
815.397	28995
815.539	28854
815.68	28721
815.821	28771
815.962	28900
816.103	28790
816.244	28721
816.385	28771
816.526	28557
816.666	28379
816.807	28295
816.948	28371
817.089	28356
817.23	28207
817.371	28177
817.512	28219
817.653	28169
817.793	28150
817.934	28272
818.075	28169
818.216	28101
818.356	28215
818.497	28067
818.638	27949
818.778	27808
818.919	28002
819.06	27941
819.2	28040
819.341	28128
819.481	28036
819.622	28280
819.762	28405
819.903	28440
820.043	28219
820.184	28169
820.324	28246
820.465	28249
820.605	28226
820.746	28192
820.886	28128
821.026	28234
821.167	28226
821.307	28192
821.447	28097
821.588	28101
821.728	27964
821.868	27686
822.008	27538
822.149	27492
822.289	27599
822.429	27195
822.569	27313
822.709	27192
822.849	27005
822.99	27089
823.13	27047
823.27	26921
823.41	26899
823.55	26686
823.69	26906
823.83	26785
823.97	26785
824.11	26602
824.25	26636
824.389	26621
824.529	26701
824.669	26503
824.809	26800
824.949	26785
825.089	26655
825.228	26617
825.368	26419
825.508	26427
825.648	26514
825.787	26495
825.927	26408
826.067	26450
826.206	26366
826.346	26393
826.485	26590
826.625	26434
826.765	26636
826.904	26339
827.044	26119
827.183	26263
827.323	26206
827.462	26187
827.601	26005
827.741	26084
827.88	26122
828.02	25989
828.159	26092
828.298	26062
828.437	26199
828.577	26183
828.716	26119
828.855	26012
828.994	25750
829.134	25769
829.273	25742
829.412	25780
829.551	25662
829.69	25738
829.829	25864
829.968	25818
830.107	25803
830.246	25864
830.385	25776
830.524	25609
830.663	25620
830.802	25381
830.941	25396
831.08	25270
831.219	25320
831.357	25476
831.496	25544
831.635	25373
831.774	25247
831.913	25202
832.051	25008
832.19	25118
832.329	25099
832.467	25015
832.606	24958
832.744	24795
832.883	25019
833.022	24932
833.16	25057
833.299	25042
833.437	24947
833.576	24878
833.714	24985
833.852	24996
833.991	24973
834.129	25027
834.267	25091
834.406	24981
834.544	24886
834.682	24848
834.821	24947
834.959	25000
835.097	24867
835.235	25061
835.373	24837
835.511	24878
835.65	24871
835.788	24833
835.926	24623
836.064	24684
836.202	24574
836.34	24722
836.478	24833
836.615	24795
836.753	24654
836.891	24798
837.029	24932
837.167	24700
837.305	24631
837.443	24745
837.58	24437
837.718	24650
837.856	24631
837.993	24551
838.131	24570
838.269	24509
838.406	24498
838.544	24483
838.681	24270
838.819	24201
838.956	24133
839.094	23965
839.231	23969
839.369	24129
839.506	24426
839.643	24190
839.781	24034
839.918	23843
840.055	23999
840.193	23942
840.33	23904
840.467	23939
840.604	24003
840.742	24174
840.879	23798
841.016	23840
841.153	23828
841.29	23923
841.427	23783
841.564	23874
841.701	23942
841.838	23668
841.975	23764
842.112	23756
842.249	23672
842.385	23668
842.522	23893
842.659	23623
842.796	23509
842.933	23501
843.069	23535
843.206	23425
843.343	23589
843.479	23577
843.616	23558
843.752	23261
843.889	23223
844.025	23547
844.162	23269
844.298	23383
844.435	23231
844.571	23284
844.708	23364
844.844	23471
844.98	23444
845.117	23372
845.253	23345
845.389	23132
845.525	23193
845.661	23075
845.798	23044
845.934	23060
846.07	22961
846.206	23029
846.342	23140
846.478	23037
846.614	22904
846.75	22778
846.886	22717
847.022	22824
847.158	22733
847.294	22793
847.429	22774
847.565	22675
847.701	23052
847.837	22428
847.972	22367
848.108	22519
848.244	22615
848.379	22192
848.515	22382
848.65	22246
848.786	22246
848.921	22265
849.057	22291
849.192	22421
849.328	22287
849.463	22223
849.598	22382
849.734	22116
849.869	22230
850.004	22051
850.14	22086
850.275	22048
850.41	21960
850.545	21915
850.68	21998
850.815	22086
850.95	22021
851.085	22188
851.22	22040
851.355	21991
851.49	22006
851.625	22032
851.76	22002
851.895	21956
852.03	21800
852.165	21975
852.299	22063
852.434	22124
852.569	21922
852.703	21854
852.838	21975
852.973	22067
853.107	22025
853.242	22017
853.376	21835
853.511	21618
853.645	21831
853.78	21835
853.914	21926
854.048	21747
854.183	21846
854.317	21854
854.451	22013
854.585	21873
854.72	21865
854.854	21907
854.988	21793
855.122	21755
855.256	21625
855.39	21831
855.524	21899
855.658	21819
855.792	21850
855.926	21743
856.06	21793
856.194	21797
856.327	21800
856.461	21751
856.595	21686
856.729	21698
856.862	21911
856.996	21869
857.13	21918
857.263	21823
857.397	21941
857.53	21770
857.664	21759
857.797	21808
857.931	21907
858.064	21694
858.197	21892
858.331	21713
858.464	21637
858.597	21656
858.731	21713
858.864	21652
858.997	21675
859.13	21648
859.263	21804
859.396	21793
859.529	21694
859.662	21641
859.795	21663
859.928	21641
860.061	21823
860.194	21937
860.327	21717
860.46	21637
860.592	21751
860.725	21937
860.858	21880
860.99	21762
861.123	21641
861.256	21690
861.388	21739
861.521	22481
861.653	21568
861.786	21458
861.918	21549
862.05	21747
862.183	21713
862.315	21709
862.447	21705
862.58	21755
862.712	21466
862.844	21435
862.976	21557
863.108	21549
863.24	21846
863.372	21351
863.504	21492
863.636	21401
863.768	21538
863.9	21393
864.032	21302
864.164	21401
864.296	21477
864.428	21462
864.559	21469
864.691	21370
864.823	21405
864.954	21416
865.086	21340
865.217	21256
865.349	21237
865.48	21332
865.612	21272
865.743	21435
865.875	21325
866.006	21233
866.137	21321
866.269	21329
866.4	21351
866.531	21241
866.662	21214
866.793	21207
866.924	21249
867.055	21180
867.186	21359
867.317	21230
867.448	21089
867.579	21214
867.71	21199
867.841	21096
867.972	21169
868.103	21142
868.233	21249
868.364	21294
868.495	21294
868.625	21382
868.756	21564
868.886	21359
869.017	21488
869.147	21545
869.278	21583
869.408	21534
869.539	21504
869.669	21454
869.799	21568
869.929	21629
870.06	21515
870.19	21705
870.32	21755
870.45	21774
870.58	21930
870.71	21895
870.84	21880
870.97	21922
871.1	21804
871.23	22029
871.36	22074
871.489	21876
871.619	21918
871.749	22013
871.879	22040
872.008	22219
872.138	22078
872.267	21892
872.397	21998
872.526	21880
872.656	21915
872.785	21842
872.915	22013
873.044	22082
873.173	22067
873.303	22112
873.432	22097
873.561	22090
873.69	22067
873.819	22044
873.948	22017
874.077	22105
874.206	22063
874.335	22082
874.464	22177
874.593	22242
874.722	22147
874.851	22306
874.979	22398
875.108	22287
875.237	22246
875.365	22097
875.494	22204
875.623	22390
875.751	22284
875.88	22371
876.008	22478
876.136	22512
876.265	22675
876.393	22797
876.521	22733
876.65	22790
876.778	22611
876.906	22824
877.034	22580
877.162	22668
877.29	22645
877.418	22588
877.546	22683
877.674	22721
877.802	22653
877.93	22748
878.058	22725
878.185	22459
878.313	22470
878.441	22683
878.568	22504
878.696	22679
878.824	22748
878.951	22721
879.079	22824
879.206	22968
879.333	22809
879.461	22637
879.588	22664
879.715	22812
879.842	22816
879.97	22771
880.097	22497
880.224	22493
880.351	22375
880.478	22440
880.605	22398
880.732	22523
880.859	22706
880.986	22455
881.112	22329
881.239	22402
881.366	22291
881.493	22150
881.619	21899
881.746	22143
881.872	22044
881.999	21937
882.125	21998
882.252	22101
882.378	22048
882.505	22139
882.631	21949
882.757	21789
882.883	21667
883.01	21759
883.136	21842
883.262	21663
883.388	21568
883.514	21793
883.64	21724
883.766	21717
883.892	21564
884.018	21641
884.143	21857
884.269	21812
884.395	21500
884.52	21336
884.646	21260
884.772	21332
884.897	21256
885.023	21348
885.148	21557
885.274	21458
885.399	21507
885.524	21332
885.65	21336
885.775	21519
885.9	21382
886.025	21416
886.15	21428
886.275	21367
886.4	21283
886.525	21374
886.65	21249
886.775	21233
886.9	21378
887.025	21652
887.149	21313
887.274	21207
887.399	21043
887.523	21180
887.648	21055
887.773	21013
887.897	21218
888.021	21074
888.146	20971
888.27	21100
888.395	21294
888.519	21214
888.643	21207
888.767	21096
888.891	21005
889.015	20979
889.139	20910
889.263	20826
889.387	21043
889.511	21085
889.635	20853
889.759	21013
889.883	20872
890.006	20960
890.13	21028
890.254	20838
890.377	20842
890.501	20636
890.624	20598
890.748	20697
890.871	20629
890.995	20465
891.118	20351
891.241	20473
891.364	20511
891.488	20667
891.611	20415
891.734	20587
891.857	20492
891.98	20556
892.103	20522
892.226	20465
892.349	20450
892.471	20214
892.594	20377
892.717	20450
892.839	20400
892.962	20438
893.085	20484
893.207	20347
893.33	20282
893.452	20271
893.575	20389
893.697	20320
893.819	20434
893.941	20526
894.064	20511
894.186	20377
894.308	20286
894.43	20370
894.552	20606
894.674	20613
894.796	20408
894.918	20347
895.04	20351
895.161	20385
895.283	20438
895.405	20275
895.526	20332
895.648	20370
895.769	20514
895.891	20415
896.012	20343
896.134	20446
896.255	20454
896.376	20454
896.498	20434
896.619	20374
896.74	20298
896.861	20533
896.982	20705
897.103	20861
897.224	20781
897.345	20686
897.466	20613
897.587	20606
897.708	20727
897.828	20674
897.949	20625
898.07	20442
898.19	20560
898.311	20644
898.431	20545
898.552	20545
898.672	20682
898.792	20488
898.913	20438
899.033	20412
899.153	20404
899.273	20256
899.393	20240
899.513	20195
899.633	20339
899.753	20214
899.873	20298
899.993	20301
900.113	20183
900.232	20309
900.352	20237
900.472	20103
900.591	20111
900.711	20252
900.83	20001
900.95	20248
901.069	20176
901.189	20012
901.308	19750
901.427	19677
901.546	19639
901.665	19677
901.784	19643
901.904	19350
902.023	19556
902.141	19244
902.26	19088
902.379	19251
902.498	19114
902.617	19027
902.735	19152
902.854	19050
902.973	19038
903.091	18749
903.21	18779
903.328	18848
903.446	18688
903.565	18593
903.683	18536
903.801	18555
903.919	18597
904.038	18570
904.156	18384
904.274	18391
904.392	18361
904.51	18433
904.627	18319
904.745	18315
904.863	18258
904.981	18117
905.098	17954
905.216	18167
905.334	18171
905.451	18034
905.569	17939
905.686	17939
905.803	17992
905.921	17840
906.038	17882
906.155	17714
906.272	17634
906.389	17676
906.506	17608
906.623	17600
906.74	17505
906.857	17322
906.974	17414
907.091	17634
907.208	17577
907.324	17596
907.441	17467
907.557	17261
907.674	17212
907.79	17132
907.907	17140
908.023	17250
908.139	17231
908.256	17155
908.372	17022
908.488	17033
908.604	16934
908.72	16839
908.836	16854
908.952	16831
909.068	16873
909.184	16991
909.3	16972
909.415	16980
909.531	16824
909.647	16645
909.762	16645
909.878	16626
909.993	16615
910.108	16573
910.224	16694
910.339	16607
910.454	16489
910.57	16402
910.685	16474
910.8	16668
910.915	16565
911.03	16386
911.145	16261
911.259	16139
911.374	16147
911.489	16063
911.604	16010
911.718	15831
911.833	15880
911.947	15960
912.062	15785
912.176	15983
912.291	15953
912.405	15941
912.519	16101
912.633	16071
912.748	16055
912.862	15759
912.976	15778
913.09	15561
913.204	15610
913.318	15751
913.431	15724
913.545	15774
913.659	15804
913.772	15739
913.886	15504
914	15488
914.113	15568
914.226	15629
914.34	15561
914.453	15557
914.566	15443
914.68	15424
914.793	15416
914.906	15283
915.019	15154
915.132	15123
915.245	15173
915.358	15260
915.47	15146
915.583	15142
915.696	15161
915.809	15222
915.921	15317
916.034	15116
916.146	15055
916.259	14929
916.371	15100
916.483	15013
916.595	14952
916.708	14925
916.82	14902
916.932	14941
917.044	14971
917.156	14868
917.268	14826
917.38	14773
917.491	14754
917.603	14815
917.715	14758
917.826	14838
917.938	14743
918.049	14674
918.161	14655
918.272	14861
918.384	14819
918.495	14746
918.606	14537
918.717	14579
918.828	14648
918.939	14568
919.05	14389
919.161	14541
919.272	14237
919.383	14351
919.494	14454
919.604	14686
919.715	14457
919.826	14366
919.936	14393
920.047	14625
920.157	14438
920.267	14610
920.378	14408
920.488	14438
920.598	14655
920.708	14777
920.818	14556
920.928	14533
921.038	14731
921.148	14720
921.258	14492
921.368	14210
921.477	14142
921.587	14221
921.697	14027
921.806	14225
921.916	14012
922.025	13902
922.134	13811
922.244	13811
922.353	13890
922.462	13715
922.571	13670
922.68	13483
922.789	13502
922.898	13472
923.007	13457
923.116	13422
923.224	13518
923.333	13411
923.442	13346
923.55	13255
923.659	13308
923.767	13384
923.876	13168
923.984	13358
924.092	13050
924.201	13171
924.309	13266
924.417	13164
924.525	13129
924.633	13095
924.741	13909
924.849	12966
924.956	13065
925.064	12985
925.172	12760
925.279	12844
925.387	12886
925.494	12878
925.602	12985
925.709	13023
925.816	12783
925.924	12825
926.031	12951
926.138	12825
926.245	12798
926.352	12707
926.459	12802
926.566	12905
926.673	12810
926.779	12589
926.886	12711
926.993	12471
927.099	12536
927.206	12407
927.312	12429
927.419	12456
927.525	12532
927.631	12452
927.737	12315
927.843	12357
927.95	12190
928.056	12136
928.162	12270
928.267	12338
928.373	12943
928.479	12384
928.585	12053
928.69	12232
928.796	12232
928.901	12083
929.007	12041
929.112	12049
929.218	12102
929.323	12053
929.428	11908
929.533	12095
929.638	11832
929.743	11908
929.848	12072
929.953	12003
930.058	11821
930.163	11668
930.267	11714
930.372	11832
930.477	11600
930.581	11859
930.685	11798
930.79	11532
930.894	11577
930.998	11490
931.103	11691
931.207	11185
931.311	11277
931.415	11121
931.519	10976
931.623	10881
