Data from test_V78500241_2276.txt Node
Date: Fri Mar 25 15:57:34 CST 2022
User: usil
Spectrometer: V785-0024
Trigger mode: 0
Integration Time (sec): 4.000000E-1
Scans to average: 1
Nonlinearity correction enabled: false
Boxcar width: 0
Storing dark spectrum: false
XAxis mode: Wavelengths
Number of Pixels in Spectrum: 1024
>>>>>Begin Spectral Data<<<<<
801.071	28854
801.214	28873
801.356	28546
801.499	28504
801.641	28417
801.783	28485
801.926	28474
802.068	28401
802.211	28363
802.353	28253
802.496	28147
802.638	28021
802.78	28139
802.923	27949
803.065	28105
803.208	27991
803.35	28154
803.492	28196
803.635	28223
803.777	28204
803.919	28280
804.061	28580
804.204	28386
804.346	28207
804.488	28238
804.63	28207
804.773	28223
804.915	28409
805.057	28398
805.199	28386
805.341	28489
805.483	28546
805.626	28481
805.768	28356
805.91	28550
806.052	28653
806.194	28527
806.336	28683
806.478	28592
806.62	28398
806.762	28706
806.904	28767
807.046	28938
807.188	28900
807.33	28946
807.472	29003
807.614	28866
807.756	28835
807.898	28786
808.04	28698
808.182	28687
808.324	28801
808.465	28877
808.607	29075
808.749	29166
808.891	29250
809.033	29227
809.174	29273
809.316	29216
809.458	29258
809.6	29189
809.741	29353
809.883	29421
810.025	29493
810.166	29551
810.308	29520
810.45	29452
810.591	29379
810.733	29250
810.875	29296
811.016	29200
811.158	29052
811.299	29322
811.441	29436
811.582	29356
811.724	29307
811.865	29136
812.007	29208
812.148	29136
812.29	29265
812.431	29375
812.573	29596
812.714	29710
812.855	29840
812.997	29946
813.138	29969
813.279	29847
813.421	29672
813.562	29554
813.703	29490
813.845	29391
813.986	29170
814.127	29128
814.268	28820
814.41	28980
814.551	28908
814.692	28915
814.833	28740
814.974	28873
815.115	29033
815.256	28995
815.397	28733
815.539	28767
815.68	28831
815.821	28596
815.962	28744
816.103	28683
816.244	28672
816.385	28611
816.526	28542
816.666	28367
816.807	28200
816.948	28196
817.089	28379
817.23	28223
817.371	28303
817.512	28276
817.653	28268
817.793	28219
817.934	28101
818.075	28303
818.216	28192
818.356	28318
818.497	27983
818.638	27816
818.778	28051
818.919	27953
819.06	28055
819.2	28211
819.341	28200
819.481	28367
819.622	28436
819.762	28588
819.903	28455
820.043	28348
820.184	28417
820.324	28394
820.465	28447
820.605	28363
820.746	28382
820.886	28169
821.026	28447
821.167	28447
821.307	28424
821.447	28390
821.588	28268
821.728	28074
821.868	27842
822.008	27736
822.149	27728
822.289	27698
822.429	27507
822.569	27374
822.709	27389
822.849	27340
822.99	27214
823.13	27245
823.27	27123
823.41	26956
823.55	26921
823.69	27119
823.83	27146
823.97	26967
824.11	26857
824.25	26743
824.389	26891
824.529	27032
824.669	26838
824.809	26921
824.949	26952
825.089	26982
825.228	26960
825.368	26750
825.508	26754
825.648	26708
825.787	26880
825.927	26868
826.067	26606
826.206	26792
826.346	26845
826.485	26785
826.625	26781
826.765	26864
826.904	26834
827.044	26457
827.183	26511
827.323	26442
827.462	26564
827.601	26533
827.741	26606
827.88	26495
828.02	26374
828.159	26461
828.298	26381
828.437	26636
828.577	26381
828.716	26587
828.855	26355
828.994	26221
829.134	26294
829.273	26142
829.412	26084
829.551	26149
829.69	26252
829.829	26115
829.968	26290
830.107	26267
830.246	26153
830.385	26107
830.524	26077
830.663	25947
830.802	25837
830.941	25712
831.08	25909
831.219	25719
831.357	25883
831.496	25966
831.635	25799
831.774	25647
831.913	25662
832.051	25449
832.19	25597
832.329	25445
832.467	25529
832.606	25369
832.744	25479
832.883	25453
833.022	25304
833.16	25514
833.299	25476
833.437	25521
833.576	25590
833.714	25472
833.852	25540
833.991	25601
834.129	25639
834.267	25479
834.406	25525
834.544	25540
834.682	25506
834.821	25422
834.959	25594
835.097	25472
835.235	25533
835.373	25483
835.511	25518
835.65	25324
835.788	25228
835.926	25320
836.064	25110
836.202	25255
836.34	25301
836.478	25419
836.615	25339
836.753	25331
836.891	25335
837.029	25381
837.167	25320
837.305	25240
837.443	25072
837.58	25126
837.718	25206
837.856	25126
837.993	25038
838.131	25141
838.269	24977
838.406	25095
838.544	24989
838.681	24745
838.819	24772
838.956	24673
839.094	24612
839.231	24597
839.369	24734
839.506	24977
839.643	24821
839.781	24498
839.918	24532
840.055	24547
840.193	24623
840.33	24616
840.467	24494
840.604	24612
840.742	24692
840.879	24323
841.016	24391
841.153	24334
841.29	24536
841.427	24319
841.564	24559
841.701	24395
841.838	24350
841.975	24330
842.112	24475
842.249	24315
842.385	24194
842.522	24426
842.659	24281
842.796	24300
842.933	24182
843.069	24228
843.206	24251
843.343	24224
843.479	24171
843.616	24281
843.752	24030
843.889	24022
844.025	24121
844.162	23878
844.298	24091
844.435	23984
844.571	23954
844.708	24072
844.844	24216
844.98	24232
845.117	24220
845.253	24011
845.389	23893
845.525	23950
845.661	23855
845.798	23741
845.934	23779
846.07	23745
846.206	23707
846.342	23843
846.478	23756
846.614	23539
846.75	23364
846.886	23516
847.022	23539
847.158	23554
847.294	23535
847.429	23562
847.565	23311
847.701	23851
847.837	23174
847.972	23189
848.108	23197
848.244	23261
848.379	23067
848.515	23086
848.65	23003
848.786	23018
848.921	23094
849.057	23151
849.192	23102
849.328	23056
849.463	23071
849.598	22946
849.734	22961
849.869	22885
850.004	22752
850.14	22824
850.275	22774
850.41	22805
850.545	22816
850.68	22866
850.815	22847
850.95	22835
851.085	22991
851.22	22778
851.355	22904
851.49	22858
851.625	22938
851.76	22782
851.895	22839
852.03	22782
852.165	22736
852.299	22854
852.434	22771
852.569	22820
852.703	22866
852.838	22698
852.973	22877
853.107	22862
853.242	22934
853.376	22683
853.511	22599
853.645	22607
853.78	22748
853.914	22733
854.048	22634
854.183	22713
854.317	22740
854.451	22831
854.585	22573
854.72	22630
854.854	22816
854.988	22679
855.122	22596
855.256	22379
855.39	22694
855.524	22592
855.658	22774
855.792	22664
855.926	22653
856.06	22634
856.194	22706
856.327	22793
856.461	22531
856.595	22675
856.729	22546
856.862	22744
856.996	22759
857.13	22736
857.263	22717
857.397	22767
857.53	22584
857.664	22618
857.797	22809
857.931	22702
858.064	22618
858.197	22831
858.331	22573
858.464	22599
858.597	22432
858.731	22485
858.864	22512
858.997	22672
859.13	22557
859.263	22622
859.396	22733
859.529	22630
859.662	22649
859.795	22596
859.928	22694
860.061	22767
860.194	22797
860.327	22759
860.46	22656
860.592	22812
860.725	22869
860.858	22740
860.99	22721
861.123	22713
861.256	22485
861.388	22706
861.521	23277
861.653	22508
861.786	22348
861.918	22417
862.05	22466
862.183	22618
862.315	22725
862.447	22611
862.58	22493
862.712	22341
862.844	22280
862.976	22470
863.108	22386
863.24	22748
863.372	22382
863.504	22413
863.636	22299
863.768	22272
863.9	22310
864.032	22181
864.164	22379
864.296	22538
864.428	22455
864.559	22462
864.691	22440
864.823	22314
864.954	22325
865.086	22211
865.217	22185
865.349	22002
865.48	22249
865.612	22204
865.743	22455
865.875	22169
866.006	22223
866.137	22215
866.269	22204
866.4	22112
866.531	22101
866.662	22105
866.793	22173
866.924	22265
867.055	22223
867.186	22169
867.317	22093
867.448	22173
867.579	21998
867.71	22246
867.841	22021
867.972	22150
868.103	22021
868.233	22238
868.364	22055
868.495	22173
868.625	22360
868.756	22508
868.886	22314
869.017	22462
869.147	22405
869.278	22478
869.408	22318
869.539	22390
869.669	22516
869.799	22432
869.929	22470
870.06	22379
870.19	22664
870.32	22805
870.45	22767
870.58	22763
870.71	22911
870.84	22900
870.97	22733
871.1	22763
871.23	22961
871.36	23083
871.489	22949
871.619	22889
871.749	22881
871.879	22995
872.008	23136
872.138	22896
872.267	22862
872.397	22839
872.526	22816
872.656	22850
872.785	22934
872.915	23041
873.044	23033
873.173	22915
873.303	23094
873.432	23083
873.561	23083
873.69	22987
873.819	23018
873.948	23014
874.077	22984
874.206	23033
874.335	22934
874.464	23147
874.593	23193
874.722	23140
874.851	23208
874.979	23136
875.108	23337
875.237	23231
875.365	23185
875.494	23052
875.623	23326
875.751	23318
875.88	23330
876.008	23478
876.136	23315
876.265	23562
876.393	23775
876.521	23722
876.65	23741
876.778	23497
876.906	23566
877.034	23417
877.162	23524
877.29	23531
877.418	23592
877.546	23577
877.674	23535
877.802	23505
877.93	23455
878.058	23531
878.185	23455
878.313	23353
878.441	23589
878.568	23486
878.696	23467
878.824	23516
878.951	23577
879.079	23657
879.206	23878
879.333	23695
879.461	23646
879.588	23623
879.715	23745
879.842	23878
879.97	23600
880.097	23383
880.224	23334
880.351	23474
880.478	23296
880.605	23387
880.732	23280
880.859	23497
880.986	23277
881.112	23292
881.239	23189
881.366	23048
881.493	22961
881.619	22927
881.746	23025
881.872	22949
881.999	22877
882.125	22930
882.252	22957
882.378	22858
882.505	22934
882.631	22725
882.757	22584
882.883	22634
883.01	22622
883.136	22573
883.262	22622
883.388	22443
883.514	22706
883.64	22596
883.766	22390
883.892	22367
884.018	22432
884.143	22618
884.269	22607
884.395	22249
884.52	22211
884.646	22284
884.772	22074
884.897	22162
885.023	22234
885.148	22440
885.274	22344
885.399	22226
885.524	22219
885.65	22314
885.775	22158
885.9	22200
886.025	22306
886.15	22306
886.275	22185
886.4	22120
886.525	22207
886.65	22188
886.775	22017
886.9	22226
887.025	22451
887.149	22097
887.274	21937
887.399	21945
887.523	22135
887.648	22040
887.773	21926
887.897	21987
888.021	21945
888.146	21884
888.27	22029
888.395	21975
888.519	22070
888.643	21998
888.767	22063
888.891	21873
889.015	21884
889.139	21842
889.263	21781
889.387	21880
889.511	21964
889.635	21880
889.759	21781
889.883	21580
890.006	21808
890.13	21819
890.254	21622
890.377	21717
890.501	21534
890.624	21500
890.748	21564
890.871	21363
890.995	21370
891.118	21302
891.241	21336
891.364	21249
891.488	21386
891.611	21291
891.734	21363
891.857	21431
891.98	21321
892.103	21344
892.226	21306
892.349	21298
892.471	21127
892.594	21195
892.717	21226
892.839	21252
892.962	21256
893.085	21306
893.207	21287
893.33	21039
893.452	21252
893.575	21340
893.697	21176
893.819	21252
893.941	21424
894.064	21298
894.186	21081
894.308	21085
894.43	21306
894.552	21344
894.674	21260
894.796	21089
894.918	21165
895.04	21199
895.161	21241
895.283	21230
895.405	21070
895.526	21233
895.648	21108
895.769	21184
895.891	21161
896.012	21302
896.134	21359
896.255	21207
896.376	21157
896.498	21123
896.619	21222
896.74	21211
896.861	21180
896.982	21469
897.103	21587
897.224	21450
897.345	21450
897.466	21226
897.587	21435
897.708	21526
897.828	21504
897.949	21332
898.07	21233
898.19	21340
898.311	21450
898.431	21275
898.552	21367
898.672	21348
898.792	21408
898.913	21397
899.033	21237
899.153	21096
899.273	20994
899.393	21123
899.513	21275
899.633	21237
899.753	21085
899.873	21070
899.993	21135
900.113	21020
900.232	21024
900.352	20979
900.472	20979
900.591	20868
900.711	20845
900.83	20910
900.95	20815
901.069	20967
901.189	20788
901.308	20492
901.427	20396
901.546	20541
901.665	20396
901.784	20438
901.904	20191
902.023	20187
902.141	20092
902.26	19974
902.379	19982
902.498	19940
902.617	19879
902.735	20005
902.854	19761
902.973	19795
903.091	19613
903.21	19518
903.328	19647
903.446	19518
903.565	19316
903.683	19377
903.801	19202
903.919	19430
904.038	19293
904.156	19160
904.274	19244
904.392	19103
904.51	19129
904.627	19126
904.745	19141
904.863	19168
904.981	18981
905.098	18745
905.216	18749
905.334	18878
905.451	18821
905.569	18840
905.686	18817
905.803	18863
905.921	18574
906.038	18711
906.155	18551
906.272	18578
906.389	18604
906.506	18407
906.623	18372
906.74	18410
906.857	18247
906.974	18285
907.091	18270
907.208	18448
907.324	18334
907.441	18228
907.557	18129
907.674	17882
907.79	17977
907.907	18007
908.023	17946
908.139	17988
908.256	18079
908.372	17954
908.488	17855
908.604	17904
908.72	17726
908.836	17726
908.952	17676
909.068	17866
909.184	17737
909.3	17805
909.415	17779
909.531	17783
909.647	17581
909.762	17433
909.878	17463
909.993	17341
910.108	17406
910.224	17421
910.339	17372
910.454	17303
910.57	17334
910.685	17227
910.8	17478
910.915	17436
911.03	17288
911.145	17102
911.259	16999
911.374	17003
911.489	16938
911.604	16839
911.718	16744
911.833	16831
911.947	16607
912.062	16649
912.176	16809
912.291	16694
912.405	16755
912.519	16904
912.633	16919
912.748	16885
912.862	16782
912.976	16679
913.09	16455
913.204	16694
913.318	16660
913.431	16717
913.545	16645
913.659	16637
913.772	16432
913.886	16360
914	16329
914.113	16504
914.226	16516
914.34	16390
914.453	16207
914.566	16325
914.68	16158
914.793	16207
914.906	16105
915.019	15941
915.132	15926
915.245	15930
915.358	15945
915.47	15903
915.583	15876
915.696	16002
915.809	16147
915.921	16074
916.034	15884
916.146	15892
916.259	15842
916.371	15850
916.483	15865
916.595	15739
916.708	15797
916.82	15781
916.932	15755
917.044	15694
917.156	15720
917.268	15523
917.38	15644
917.491	15542
917.603	15625
917.715	15614
917.826	15709
917.938	15477
918.049	15370
918.161	15477
918.272	15641
918.384	15618
918.495	15614
918.606	15313
918.717	15340
918.828	15306
918.939	15313
919.05	15195
919.161	15298
919.272	15074
919.383	15161
919.494	15348
919.604	15542
919.715	15272
919.826	15176
919.936	15214
920.047	15389
920.157	15157
920.267	15325
920.378	15279
920.488	15237
920.598	15424
920.708	15542
920.818	15397
920.928	15389
921.038	15515
921.148	15606
921.258	15192
921.368	15135
921.477	14990
921.587	14918
921.697	14842
921.806	14960
921.916	14796
922.025	14701
922.134	14644
922.244	14621
922.353	14746
922.462	14495
922.571	14400
922.68	14313
922.789	14229
922.898	14180
923.007	14263
923.116	14347
923.224	14157
923.333	14191
923.442	14214
923.55	14050
923.659	13982
923.767	14054
923.876	13856
923.984	14103
924.092	13928
924.201	14050
924.309	13921
924.417	13932
924.525	13917
924.633	13883
924.741	14834
924.849	13727
924.956	13761
925.064	13597
925.172	13578
925.279	13605
925.387	13601
925.494	13666
925.602	13734
925.709	13704
925.816	13495
925.924	13578
926.031	13632
926.138	13518
926.245	13575
926.352	13487
926.459	13643
926.566	13597
926.673	13457
926.779	13331
926.886	13255
926.993	13152
927.099	13171
927.206	13137
927.312	13069
927.419	13187
927.525	13122
927.631	13171
927.737	13072
927.843	12958
927.95	12947
928.056	12970
928.162	13015
928.267	12954
928.373	13643
928.479	13137
928.585	12909
928.69	12913
928.796	13023
928.901	12848
929.007	12692
929.112	12798
929.218	12734
929.323	12646
929.428	12616
929.533	12749
929.638	12620
929.743	12589
929.848	12654
929.953	12658
930.058	12490
930.163	12395
930.267	12315
930.372	12486
930.477	12262
930.581	12490
930.685	12422
930.79	12281
930.894	12292
930.998	12190
931.103	12372
931.207	11973
931.311	11950
931.415	11802
931.519	11589
931.623	11577
