Data from test_V78500241_3516.txt Node
Date: Fri Mar 25 16:06:09 CST 2022
User: usil
Spectrometer: V785-0024
Trigger mode: 0
Integration Time (sec): 4.000000E-1
Scans to average: 1
Nonlinearity correction enabled: false
Boxcar width: 0
Storing dark spectrum: false
XAxis mode: Wavelengths
Number of Pixels in Spectrum: 1024
>>>>>Begin Spectral Data<<<<<
801.071	28797
801.214	28675
801.356	28546
801.499	28489
801.641	28398
801.783	28398
801.926	28508
802.068	28428
802.211	28299
802.353	28325
802.496	28162
802.638	28192
802.78	27949
802.923	28074
803.065	27937
803.208	27937
803.35	28109
803.492	28257
803.635	28318
803.777	28223
803.919	28462
804.061	28599
804.204	28413
804.346	28337
804.488	28276
804.63	28344
804.773	28295
804.915	28459
805.057	28417
805.199	28337
805.341	28440
805.483	28489
805.626	28519
805.768	28367
805.91	28500
806.052	28675
806.194	28447
806.336	28706
806.478	28421
806.62	28474
806.762	28588
806.904	28797
807.046	28915
807.188	28942
807.33	28938
807.472	29025
807.614	28900
807.756	28968
807.898	28748
808.04	28637
808.182	28656
808.324	28771
808.465	28942
808.607	28888
808.749	29216
808.891	29147
809.033	29417
809.174	29193
809.316	29200
809.458	29261
809.6	29151
809.741	29284
809.883	29387
810.025	29520
810.166	29528
810.308	29516
810.45	29440
810.591	29391
810.733	29216
810.875	29223
811.016	29147
811.158	29067
811.299	29379
811.441	29482
811.582	29265
811.724	29250
811.865	29185
812.007	29212
812.148	29284
812.29	29197
812.431	29360
812.573	29562
812.714	29619
812.855	29767
812.997	29790
813.138	29969
813.279	29988
813.421	29733
813.562	29646
813.703	29478
813.845	29444
813.986	29273
814.127	29151
814.268	28877
814.41	28790
814.551	28786
814.692	28904
814.833	28938
814.974	28938
815.115	29060
815.256	28801
815.397	28793
815.539	28782
815.68	28713
815.821	28683
815.962	28763
816.103	28778
816.244	28550
816.385	28664
816.526	28577
816.666	28375
816.807	28154
816.948	28192
817.089	28367
817.23	28310
817.371	28188
817.512	28196
817.653	28341
817.793	28078
817.934	28268
818.075	28401
818.216	28329
818.356	28291
818.497	28265
818.638	28051
818.778	28082
818.919	28067
819.06	27930
819.2	28185
819.341	28230
819.481	28268
819.622	28462
819.762	28531
819.903	28546
820.043	28470
820.184	28596
820.324	28577
820.465	28592
820.605	28580
820.746	28333
820.886	28352
821.026	28409
821.167	28367
821.307	28527
821.447	28226
821.588	28333
821.728	28200
821.868	28006
822.008	27831
822.149	27709
822.289	27686
822.429	27633
822.569	27496
822.709	27447
822.849	27184
822.99	27226
823.13	27298
823.27	27252
823.41	27058
823.55	27001
823.69	27009
823.83	27058
823.97	27138
824.11	26921
824.25	27017
824.389	26948
824.529	27127
824.669	26853
824.809	27009
824.949	27036
825.089	26998
825.228	26948
825.368	26781
825.508	26785
825.648	26773
825.787	26826
825.927	26883
826.067	26724
826.206	26781
826.346	26765
826.485	26861
826.625	26785
826.765	26899
826.904	26876
827.044	26727
827.183	26514
827.323	26621
827.462	26598
827.601	26632
827.741	26431
827.88	26697
828.02	26389
828.159	26393
828.298	26492
828.437	26590
828.577	26495
828.716	26556
828.855	26526
828.994	26195
829.134	26256
829.273	26419
829.412	26157
829.551	26130
829.69	26225
829.829	26286
829.968	26202
830.107	26317
830.246	26115
830.385	26225
830.524	26062
830.663	26035
830.802	25830
830.941	25734
831.08	25784
831.219	25860
831.357	25921
831.496	26069
831.635	25784
831.774	25639
831.913	25613
832.051	25616
832.19	25635
832.329	25518
832.467	25483
832.606	25506
832.744	25388
832.883	25441
833.022	25350
833.16	25468
833.299	25575
833.437	25586
833.576	25556
833.714	25563
833.852	25666
833.991	25556
834.129	25655
834.267	25563
834.406	25514
834.544	25578
834.682	25518
834.821	25613
834.959	25746
835.097	25495
835.235	25533
835.373	25514
835.511	25624
835.65	25403
835.788	25335
835.926	25202
836.064	25118
836.202	25209
836.34	25369
836.478	25472
836.615	25415
836.753	25506
836.891	25464
837.029	25255
837.167	25270
837.305	25362
837.443	25274
837.58	25308
837.718	25175
837.856	25099
837.993	25187
838.131	25206
838.269	25053
838.406	25179
838.544	24894
838.681	24738
838.819	24726
838.956	24654
839.094	24642
839.231	24631
839.369	24795
839.506	24951
839.643	24989
839.781	24738
839.918	24597
840.055	24669
840.193	24639
840.33	24601
840.467	24570
840.604	24639
840.742	24859
840.879	24426
841.016	24528
841.153	24357
841.29	24753
841.427	24604
841.564	24589
841.701	24460
841.838	24441
841.975	24578
842.112	24498
842.249	24437
842.385	24380
842.522	24639
842.659	24490
842.796	24429
842.933	24388
843.069	24194
843.206	24308
843.343	24270
843.479	24433
843.616	24338
843.752	24296
843.889	24106
844.025	24270
844.162	24057
844.298	24178
844.435	24114
844.571	23996
844.708	24152
844.844	24239
844.98	24213
845.117	24228
845.253	24087
845.389	24049
845.525	23961
845.661	23942
845.798	23790
845.934	23863
846.07	23863
846.206	23916
846.342	24026
846.478	23882
846.614	23653
846.75	23615
846.886	23634
847.022	23726
847.158	23585
847.294	23585
847.429	23687
847.565	23512
847.701	23748
847.837	23368
847.972	23216
848.108	23250
848.244	23299
848.379	23193
848.515	23102
848.65	23117
848.786	23178
848.921	23132
849.057	23269
849.192	23166
849.328	23181
849.463	23174
849.598	23094
849.734	22987
849.869	22934
850.004	22965
850.14	22927
850.275	22927
850.41	22843
850.545	22816
850.68	22873
850.815	23037
850.95	22995
851.085	23132
851.22	23094
851.355	22949
851.49	22934
851.625	22892
851.76	22892
851.895	22862
852.03	22790
852.165	22938
852.299	23132
852.434	22889
852.569	22900
852.703	22869
852.838	22953
852.973	23071
853.107	23025
853.242	22923
853.376	22733
853.511	22672
853.645	22828
853.78	22900
853.914	22694
854.048	22592
854.183	22679
854.317	22702
854.451	22957
854.585	22805
854.72	22752
854.854	22858
854.988	22596
855.122	22710
855.256	22634
855.39	22580
855.524	22869
855.658	22915
855.792	22778
855.926	22797
856.06	22790
856.194	22809
856.327	22694
856.461	22637
856.595	22706
856.729	22649
856.862	22942
856.996	22774
857.13	22809
857.263	22908
857.397	22885
857.53	22752
857.664	22923
857.797	22778
857.931	22774
858.064	22725
858.197	23041
858.331	22653
858.464	22622
858.597	22767
858.731	22664
858.864	22759
858.997	22691
859.13	22592
859.263	22755
859.396	22706
859.529	22752
859.662	22687
859.795	22713
859.928	22706
860.061	22816
860.194	22862
860.327	22820
860.46	22805
860.592	22885
860.725	23003
860.858	22831
860.99	22679
861.123	22683
861.256	22706
861.388	22752
861.521	23398
861.653	22546
861.786	22500
861.918	22637
862.05	22675
862.183	22660
862.315	22672
862.447	22675
862.58	22672
862.712	22508
862.844	22337
862.976	22485
863.108	22561
863.24	22778
863.372	22348
863.504	22348
863.636	22375
863.768	22554
863.9	22440
864.032	22295
864.164	22440
864.296	22451
864.428	22512
864.559	22542
864.691	22557
864.823	22462
864.954	22352
865.086	22455
865.217	22318
865.349	22318
865.48	22265
865.612	22322
865.743	22344
865.875	22333
866.006	22246
866.137	22303
866.269	22337
866.4	22329
866.531	22154
866.662	22242
866.793	22280
866.924	22192
867.055	22306
867.186	22287
867.317	22280
867.448	22181
867.579	22177
867.71	22143
867.841	22139
867.972	22215
868.103	22226
868.233	22268
868.364	22177
868.495	22363
868.625	22478
868.756	22668
868.886	22428
869.017	22440
869.147	22459
869.278	22523
869.408	22504
869.539	22405
869.669	22580
869.799	22497
869.929	22580
870.06	22478
870.19	22797
870.32	22755
870.45	22721
870.58	22858
870.71	22862
870.84	22987
870.97	22801
871.1	22904
871.23	23102
871.36	23113
871.489	22995
871.619	23128
871.749	23094
871.879	23041
872.008	23102
872.138	23003
872.267	23204
872.397	22843
872.526	23022
872.656	22999
872.785	22953
872.915	23025
873.044	23197
873.173	23181
873.303	23151
873.432	23159
873.561	23204
873.69	23067
873.819	23223
873.948	23147
874.077	23178
874.206	23048
874.335	23239
874.464	23117
874.593	23284
874.722	23284
874.851	23334
874.979	23254
875.108	23383
875.237	23212
875.365	23220
875.494	23223
875.623	23364
875.751	23299
875.88	23356
876.008	23528
876.136	23478
876.265	23630
876.393	23893
876.521	23805
876.65	23710
876.778	23707
876.906	23600
877.034	23699
877.162	23585
877.29	23615
877.418	23684
877.546	23646
877.674	23642
877.802	23718
877.93	23665
878.058	23642
878.185	23547
878.313	23684
878.441	23710
878.568	23444
878.696	23707
878.824	23703
878.951	23790
879.079	23824
879.206	23980
879.333	23802
879.461	23737
879.588	23760
879.715	23859
879.842	23889
879.97	23665
880.097	23406
880.224	23341
880.351	23452
880.478	23524
880.605	23383
880.732	23433
880.859	23608
880.986	23528
881.112	23455
881.239	23299
881.366	23166
881.493	23185
881.619	23048
881.746	23014
881.872	23044
881.999	22984
882.125	22938
882.252	23006
882.378	23064
882.505	23102
882.631	22961
882.757	22736
882.883	22835
883.01	22797
883.136	22656
883.262	22569
883.388	22675
883.514	22683
883.64	22759
883.766	22611
883.892	22523
884.018	22519
884.143	22489
884.269	22771
884.395	22363
884.52	22413
884.646	22409
884.772	22280
884.897	22177
885.023	22371
885.148	22462
885.274	22478
885.399	22348
885.524	22352
885.65	22394
885.775	22325
885.9	22284
886.025	22299
886.15	22466
886.275	22325
886.4	22322
886.525	22242
886.65	22215
886.775	22200
886.9	22390
887.025	22485
887.149	22287
887.274	22181
887.399	21987
887.523	22150
887.648	21907
887.773	21953
887.897	22188
888.021	22040
888.146	21911
888.27	22150
888.395	22226
888.519	22082
888.643	22090
888.767	22154
888.891	22002
889.015	21918
889.139	21998
889.263	21930
889.387	22036
889.511	21968
889.635	22002
889.759	21808
889.883	21827
890.006	21812
890.13	21895
890.254	21743
890.377	21922
890.501	21736
890.624	21564
890.748	21614
890.871	21481
890.995	21439
891.118	21367
891.241	21412
891.364	21485
891.488	21557
891.611	21317
891.734	21344
891.857	21389
891.98	21374
892.103	21450
892.226	21378
892.349	21272
892.471	21241
892.594	21340
892.717	21435
892.839	21252
892.962	21374
893.085	21287
893.207	21233
893.33	21184
893.452	21237
893.575	21431
893.697	21222
893.819	21408
893.941	21431
894.064	21370
894.186	21294
894.308	21222
894.43	21420
894.552	21447
894.674	21256
894.796	21165
894.918	21287
895.04	21214
895.161	21374
895.283	21344
895.405	21157
895.526	21233
895.648	21275
895.769	21454
895.891	21279
896.012	21306
896.134	21450
896.255	21249
896.376	21230
896.498	21226
896.619	21348
896.74	21313
896.861	21279
896.982	21542
897.103	21698
897.224	21538
897.345	21374
897.466	21367
897.587	21496
897.708	21656
897.828	21454
897.949	21424
898.07	21226
898.19	21443
898.311	21416
898.431	21374
898.552	21420
898.672	21576
898.792	21447
898.913	21450
899.033	21279
899.153	21241
899.273	21184
899.393	21218
899.513	21085
899.633	21222
899.753	21142
899.873	21096
899.993	21123
900.113	21089
900.232	21089
900.352	21058
900.472	20929
900.591	20796
900.711	21017
900.83	20941
900.95	21104
901.069	21108
901.189	20815
901.308	20659
901.427	20461
901.546	20594
901.665	20575
901.784	20621
901.904	20492
902.023	20259
902.141	20119
902.26	20062
902.379	20107
902.498	20092
902.617	19936
902.735	20130
902.854	19921
902.973	19967
903.091	19685
903.21	19658
903.328	19586
903.446	19514
903.565	19506
903.683	19518
903.801	19350
903.919	19434
904.038	19400
904.156	19297
904.274	19274
904.392	19122
904.51	19171
904.627	19236
904.745	19232
904.863	19354
904.981	19091
905.098	18783
905.216	18837
905.334	18985
905.451	19000
905.569	18859
905.686	18939
905.803	18909
905.921	18623
906.038	18719
906.155	18753
906.272	18646
906.389	18627
906.506	18498
906.623	18479
906.74	18410
906.857	18266
906.974	18296
907.091	18471
907.208	18456
907.324	18445
907.441	18395
907.557	18220
907.674	18163
907.79	18045
907.907	18098
908.023	18182
908.139	18224
908.256	18026
908.372	18030
908.488	17954
908.604	17878
908.72	17783
908.836	17870
908.952	17764
909.068	17863
909.184	17927
909.3	17756
909.415	17885
909.531	17737
909.647	17577
909.762	17543
909.878	17501
909.993	17516
910.108	17501
910.224	17467
910.339	17486
910.454	17372
910.57	17398
910.685	17261
910.8	17471
910.915	17440
911.03	17315
911.145	17121
911.259	17151
911.374	17147
911.489	17018
911.604	16995
911.718	16862
911.833	16889
911.947	16675
912.062	16755
912.176	16885
912.291	16801
912.405	16816
912.519	16946
912.633	17117
912.748	16866
912.862	16805
912.976	16790
913.09	16538
913.204	16637
913.318	16755
913.431	16725
913.545	16790
913.659	16733
913.772	16672
913.886	16470
914	16497
914.113	16546
914.226	16584
914.34	16512
914.453	16337
914.566	16424
914.68	16249
914.793	16242
914.906	16078
915.019	16097
915.132	15998
915.245	16029
915.358	16082
915.47	16067
915.583	16090
915.696	16025
915.809	16124
915.921	16105
916.034	16044
916.146	15915
916.259	15964
916.371	16006
916.483	15911
916.595	15903
916.708	15850
916.82	15835
916.932	15892
917.044	15812
917.156	15797
917.268	15591
917.38	15751
917.491	15648
917.603	15755
917.715	15728
917.826	15743
917.938	15633
918.049	15447
918.161	15591
918.272	15671
918.384	15846
918.495	15606
918.606	15431
918.717	15397
918.828	15466
918.939	15496
919.05	15374
919.161	15378
919.272	15233
919.383	15283
919.494	15408
919.604	15515
919.715	15428
919.826	15291
919.936	15355
920.047	15462
920.157	15348
920.267	15454
920.378	15359
920.488	15268
920.598	15500
920.708	15644
920.818	15572
920.928	15431
921.038	15561
921.148	15606
921.258	15241
921.368	15256
921.477	15108
921.587	15108
921.697	14952
921.806	15051
921.916	15009
922.025	14754
922.134	14716
922.244	14724
922.353	14807
922.462	14549
922.571	14469
922.68	14347
922.789	14366
922.898	14328
923.007	14324
923.116	14377
923.224	14278
923.333	14275
923.442	14195
923.55	14149
923.659	14111
923.767	14218
923.876	14050
923.984	14115
924.092	14168
924.201	14092
924.309	14134
924.417	14058
924.525	13944
924.633	13974
924.741	14967
924.849	13765
924.956	13776
925.064	13765
925.172	13727
925.279	13677
925.387	13799
925.494	13746
925.602	13811
925.709	13746
925.816	13613
925.924	13632
926.031	13696
926.138	13662
926.245	13689
926.352	13559
926.459	13647
926.566	13757
926.673	13502
926.779	13377
926.886	13468
926.993	13255
927.099	13251
927.206	13255
927.312	13240
927.419	13266
927.525	13209
927.631	13304
927.737	13152
927.843	13103
927.95	13038
928.056	13031
928.162	13103
928.267	13099
928.373	13647
928.479	12993
928.585	12802
928.69	12970
928.796	13084
928.901	12939
929.007	12776
929.112	12856
929.218	12859
929.323	12897
929.428	12707
929.533	12913
929.638	12719
929.743	12703
929.848	12696
929.953	12696
930.058	12585
930.163	12498
930.267	12426
930.372	12532
930.477	12357
930.581	12658
930.685	12448
930.79	12346
930.894	12273
930.998	12338
931.103	12471
931.207	11988
931.311	11939
931.415	11847
931.519	11707
931.623	11737
