Data from test_V78500241_1426.txt Node
Date: Fri Mar 25 15:51:40 CST 2022
User: usil
Spectrometer: V785-0024
Trigger mode: 0
Integration Time (sec): 4.000000E-1
Scans to average: 1
Nonlinearity correction enabled: false
Boxcar width: 0
Storing dark spectrum: false
XAxis mode: Wavelengths
Number of Pixels in Spectrum: 1024
>>>>>Begin Spectral Data<<<<<
801.071	28462
801.214	28424
801.356	28169
801.499	28143
801.641	27979
801.783	27911
801.926	28029
802.068	27880
802.211	27911
802.353	27755
802.496	27713
802.638	27614
802.78	27606
802.923	27538
803.065	27599
803.208	27507
803.35	27667
803.492	27747
803.635	27694
803.777	27785
803.919	27914
804.061	28188
804.204	27812
804.346	27873
804.488	27755
804.63	27720
804.773	27842
804.915	27941
805.057	28021
805.199	27728
805.341	27918
805.483	28002
805.626	27926
805.768	27930
805.91	27945
806.052	27987
806.194	27930
806.336	28188
806.478	28032
806.62	27994
806.762	28112
806.904	28303
807.046	28451
807.188	28455
807.33	28303
807.472	28634
807.614	28413
807.756	28443
807.898	28367
808.04	28303
808.182	28322
808.324	28352
808.465	28367
808.607	28519
808.749	28687
808.891	28698
809.033	28637
809.174	28710
809.316	28683
809.458	28596
809.6	28683
809.741	28824
809.883	28702
810.025	28999
810.166	28995
810.308	28930
810.45	28949
810.591	28900
810.733	28615
810.875	28717
811.016	28554
811.158	28584
811.299	28881
811.441	28850
811.582	28828
811.724	28630
811.865	28664
812.007	28634
812.148	28512
812.29	28744
812.431	28835
812.573	29006
812.714	29006
812.855	29067
812.997	29185
813.138	29303
813.279	29273
813.421	29220
813.562	29124
813.703	28961
813.845	28854
813.986	28478
814.127	28516
814.268	28363
814.41	28497
814.551	28447
814.692	28569
814.833	28356
814.974	28177
815.115	28367
815.256	28120
815.397	28143
815.539	28261
815.68	28051
815.821	28048
815.962	28166
816.103	28173
816.244	28105
816.385	28006
816.526	27899
816.666	27816
816.807	27679
816.948	27698
817.089	27762
817.23	27614
817.371	27656
817.512	27698
817.653	27732
817.793	27447
817.934	27675
818.075	27660
818.216	27690
818.356	27629
818.497	27603
818.638	27431
818.778	27439
818.919	27416
819.06	27435
819.2	27481
819.341	27648
819.481	27641
819.622	27888
819.762	28051
819.903	28048
820.043	27926
820.184	27873
820.324	27835
820.465	27762
820.605	27755
820.746	27713
820.886	27603
821.026	27831
821.167	27747
821.307	27785
821.447	27652
821.588	27534
821.728	27454
821.868	27412
822.008	27138
822.149	27226
822.289	27096
822.429	26948
822.569	26853
822.709	26921
822.849	26674
822.99	26815
823.13	26549
823.27	26579
823.41	26583
823.55	26347
823.69	26530
823.83	26408
823.97	26484
824.11	26305
824.25	26423
824.389	26317
824.529	26275
824.669	26351
824.809	26533
824.949	26423
825.089	26290
825.228	26370
825.368	26199
825.508	26206
825.648	26275
825.787	26145
825.927	26298
826.067	26077
826.206	26122
826.346	26138
826.485	26237
826.625	26134
826.765	26298
826.904	26252
827.044	26111
827.183	25936
827.323	25845
827.462	25830
827.601	26043
827.741	25989
827.88	25955
828.02	25647
828.159	25951
828.298	25909
828.437	25963
828.577	25776
828.716	25936
828.855	25776
828.994	25559
829.134	25616
829.273	25521
829.412	25662
829.551	25586
829.69	25544
829.829	25616
829.968	25521
830.107	25559
830.246	25525
830.385	25575
830.524	25533
830.663	25377
830.802	25297
830.941	25240
831.08	25034
831.219	25217
831.357	25263
831.496	25343
831.635	25209
831.774	25278
831.913	24966
832.051	24958
832.19	25019
832.329	24890
832.467	24985
832.606	24764
832.744	24798
832.883	24913
833.022	24787
833.16	24871
833.299	24859
833.437	24909
833.576	24928
833.714	24867
833.852	24951
833.991	24943
834.129	24992
834.267	25031
834.406	25015
834.544	24989
834.682	24852
834.821	24802
834.959	25247
835.097	24901
835.235	24916
835.373	24882
835.511	24814
835.65	24810
835.788	24806
835.926	24582
836.064	24623
836.202	24559
836.34	24745
836.478	24719
836.615	24821
836.753	24776
836.891	24711
837.029	24848
837.167	24791
837.305	24612
837.443	24608
837.58	24570
837.718	24700
837.856	24661
837.993	24574
838.131	24479
838.269	24380
838.406	24498
838.544	24391
838.681	24201
838.819	24125
838.956	24053
839.094	24041
839.231	23999
839.369	24155
839.506	24380
839.643	24407
839.781	24106
839.918	24057
840.055	23999
840.193	24106
840.33	23942
840.467	23927
840.604	23954
840.742	24114
840.879	23817
841.016	23893
841.153	23805
841.29	24186
841.427	23756
841.564	23923
841.701	23973
841.838	23961
841.975	23866
842.112	23843
842.249	23767
842.385	23695
842.522	23901
842.659	23851
842.796	23691
842.933	23634
843.069	23634
843.206	23604
843.343	23726
843.479	23680
843.616	23741
843.752	23486
843.889	23551
844.025	23634
844.162	23493
844.298	23490
844.435	23379
844.571	23349
844.708	23478
844.844	23478
844.98	23539
845.117	23474
845.253	23364
845.389	23402
845.525	23349
845.661	23372
845.798	23189
845.934	23360
846.07	23166
846.206	23155
846.342	23410
846.478	23041
846.614	22995
846.75	22991
846.886	22908
847.022	22911
847.158	22991
847.294	22976
847.429	22949
847.565	22999
847.701	22987
847.837	22603
847.972	22573
848.108	22854
848.244	22702
848.379	22607
848.515	22561
848.65	22500
848.786	22504
848.921	22607
849.057	22523
849.192	22618
849.328	22641
849.463	22447
849.598	22497
849.734	22440
849.869	22481
850.004	22291
850.14	22284
850.275	22333
850.41	22280
850.545	22230
850.68	22219
850.815	22363
850.95	22348
851.085	22386
851.22	22493
851.355	22333
851.49	22253
851.625	22253
851.76	22242
851.895	22101
852.03	22177
852.165	22371
852.299	22432
852.434	22360
852.569	22169
852.703	22379
852.838	22318
852.973	22394
853.107	22409
853.242	22253
853.376	22169
853.511	22097
853.645	22116
853.78	22226
853.914	22207
854.048	22059
854.183	22082
854.317	22166
854.451	22363
854.585	22093
854.72	22086
854.854	22048
854.988	22143
855.122	22261
855.256	22017
855.39	22188
855.524	22166
855.658	22154
855.792	22120
855.926	22177
856.06	22158
856.194	22105
856.327	21991
856.461	22040
856.595	21926
856.729	22116
856.862	22230
856.996	22223
857.13	22242
857.263	22169
857.397	22230
857.53	22112
857.664	22181
857.797	22105
857.931	22200
858.064	22185
858.197	22253
858.331	22135
858.464	21979
858.597	21983
858.731	22006
858.864	22078
858.997	22135
859.13	22105
859.263	22036
859.396	22303
859.529	22067
859.662	22143
859.795	21991
859.928	22230
860.061	22402
860.194	22284
860.327	22135
860.46	22185
860.592	22177
860.725	22249
860.858	22337
860.99	22211
861.123	22150
861.256	21964
861.388	22017
861.521	22774
861.653	21918
861.786	21956
861.918	21880
862.05	21941
862.183	22040
862.315	22029
862.447	22040
862.58	21934
862.712	21713
862.844	21720
862.976	21911
863.108	21823
863.24	22200
863.372	21785
863.504	21854
863.636	21842
863.768	21800
863.9	21804
864.032	21587
864.164	21720
864.296	21759
864.428	21865
864.559	21941
864.691	21789
864.823	21819
864.954	21762
865.086	21724
865.217	21675
865.349	21724
865.48	21675
865.612	21724
865.743	21816
865.875	21660
866.006	21751
866.137	21679
866.269	21667
866.4	21800
866.531	21545
866.662	21671
866.793	21622
866.924	21507
867.055	21660
867.186	21618
867.317	21606
867.448	21606
867.579	21656
867.71	21481
867.841	21439
867.972	21663
868.103	21652
868.233	21660
868.364	21580
868.495	21770
868.625	21785
868.756	21819
868.886	21819
869.017	21850
869.147	21941
869.278	21991
869.408	21945
869.539	21759
869.669	21918
869.799	21949
869.929	21979
870.06	22006
870.19	22143
870.32	22097
870.45	22249
870.58	22306
870.71	22356
870.84	22375
870.97	22329
871.1	22257
871.23	22443
871.36	22561
871.489	22329
871.619	22504
871.749	22462
871.879	22459
872.008	22531
872.138	22504
872.267	22466
872.397	22344
872.526	22287
872.656	22310
872.785	22375
872.915	22443
873.044	22599
873.173	22512
873.303	22592
873.432	22535
873.561	22596
873.69	22466
873.819	22375
873.948	22519
874.077	22569
874.206	22462
874.335	22478
874.464	22626
874.593	22748
874.722	22752
874.851	22698
874.979	22752
875.108	22721
875.237	22508
875.365	22519
875.494	22653
875.623	22645
875.751	22573
875.88	22698
876.008	22858
876.136	22854
876.265	23075
876.393	23265
876.521	23189
876.65	23223
876.778	23079
876.906	23071
877.034	23155
877.162	23006
877.29	22968
877.418	23056
877.546	22923
877.674	23003
877.802	23037
877.93	23117
878.058	23014
878.185	22885
878.313	23056
878.441	23109
878.568	22919
878.696	23010
878.824	23083
878.951	23166
879.079	23364
879.206	23330
879.333	23242
879.461	23086
879.588	23170
879.715	23105
879.842	23242
879.97	23261
880.097	22915
880.224	22793
880.351	22946
880.478	22957
880.605	22877
880.732	22778
880.859	23117
880.986	22816
881.112	22919
881.239	22797
881.366	22733
881.493	22535
881.619	22474
881.746	22519
881.872	22550
881.999	22523
882.125	22375
882.252	22493
882.378	22516
882.505	22580
882.631	22363
882.757	22188
882.883	22143
883.01	22169
883.136	22116
883.262	21975
883.388	21873
883.514	22124
883.64	22097
883.766	22059
883.892	21861
884.018	22002
884.143	22116
884.269	22101
884.395	21785
884.52	21755
884.646	21770
884.772	21583
884.897	21595
885.023	21953
885.148	21789
885.274	21797
885.399	21800
885.524	21629
885.65	21713
885.775	21667
885.9	21637
886.025	21899
886.15	21766
886.275	21698
886.4	21713
886.525	21774
886.65	21667
886.775	21583
886.9	21854
887.025	21895
887.149	21774
887.274	21641
887.399	21583
887.523	21500
887.648	21549
887.773	21485
887.897	21587
888.021	21568
888.146	21561
888.27	21534
888.395	21671
888.519	21557
888.643	21610
888.767	21591
888.891	21507
889.015	21230
889.139	21389
889.263	21332
889.387	21336
889.511	21515
889.635	21485
889.759	21294
889.883	21249
890.006	21230
890.13	21439
890.254	21192
890.377	21325
890.501	21184
890.624	21161
890.748	21150
890.871	20815
890.995	20830
891.118	20750
891.241	20830
891.364	20739
891.488	20948
891.611	20792
891.734	20910
891.857	20925
891.98	20891
892.103	20872
892.226	20967
892.349	20876
892.471	20651
892.594	20769
892.717	20834
892.839	20689
892.962	20746
893.085	20811
893.207	20849
893.33	20678
893.452	20617
893.575	20800
893.697	20686
893.819	20910
893.941	20986
894.064	20834
894.186	20644
894.308	20762
894.43	20781
894.552	20944
894.674	20918
894.796	20594
894.918	20659
895.04	20796
895.161	20838
895.283	20716
895.405	20754
895.526	20826
895.648	20708
895.769	20811
895.891	20830
896.012	20887
896.134	20845
896.255	20796
896.376	20758
896.498	20785
896.619	20826
896.74	20838
896.861	20773
896.982	21051
897.103	21268
897.224	21001
897.345	21020
897.466	20876
897.587	20975
897.708	21096
897.828	21058
897.949	20925
898.07	20781
898.19	20906
898.311	21051
898.431	20937
898.552	20963
898.672	20979
898.792	21013
898.913	21028
899.033	20826
899.153	20720
899.273	20613
899.393	20663
899.513	20781
899.633	20758
899.753	20777
899.873	20492
899.993	20651
900.113	20549
900.232	20655
900.352	20545
900.472	20499
900.591	20476
900.711	20431
900.83	20339
900.95	20503
901.069	20678
901.189	20400
901.308	20172
901.427	20001
901.546	20088
901.665	20065
901.784	20084
901.904	19883
902.023	19795
902.141	19506
902.26	19578
902.379	19689
902.498	19533
902.617	19491
902.735	19483
902.854	19445
902.973	19491
903.091	19221
903.21	19266
903.328	19213
903.446	19206
903.565	19031
903.683	19069
903.801	18977
903.919	18913
904.038	18916
904.156	18772
904.274	18821
904.392	18673
904.51	18817
904.627	18669
904.745	18825
904.863	18829
904.981	18525
905.098	18536
905.216	18471
905.334	18551
905.451	18635
905.569	18486
905.686	18513
905.803	18441
905.921	18292
906.038	18342
906.155	18319
906.272	18057
906.389	18102
906.506	18019
906.623	18045
906.74	17984
906.857	17790
906.974	17840
907.091	18007
907.208	18030
907.324	17939
907.441	17798
907.557	17741
907.674	17737
907.79	17695
907.907	17577
908.023	17687
908.139	17676
908.256	17611
908.372	17524
908.488	17535
908.604	17334
908.72	17303
908.836	17326
908.952	17326
909.068	17383
909.184	17512
909.3	17364
909.415	17402
909.531	17376
909.647	17067
909.762	17025
909.878	17056
909.993	17098
910.108	16999
910.224	17162
910.339	16991
910.454	16885
910.57	16896
910.685	16877
910.8	16968
910.915	17003
911.03	16835
911.145	16706
911.259	16805
911.374	16630
911.489	16607
911.604	16710
911.718	16440
911.833	16413
911.947	16367
912.062	16306
912.176	16519
912.291	16466
912.405	16455
912.519	16634
912.633	16615
912.748	16402
912.862	16489
912.976	16226
913.09	15968
913.204	16226
913.318	16211
913.431	16337
913.545	16325
913.659	16306
913.772	16188
913.886	16097
914	15983
914.113	16109
914.226	16139
914.34	16006
914.453	15937
914.566	15983
914.68	15861
914.793	15895
914.906	15637
915.019	15595
915.132	15526
915.245	15682
915.358	15663
915.47	15614
915.583	15603
915.696	15576
915.809	15724
915.921	15759
916.034	15584
916.146	15538
916.259	15530
916.371	15618
916.483	15466
916.595	15386
916.708	15443
916.82	15336
916.932	15447
917.044	15393
917.156	15329
917.268	15192
917.38	15348
917.491	15199
917.603	15195
917.715	15298
917.826	15237
917.938	15237
918.049	15138
918.161	15241
918.272	15329
918.384	15226
918.495	15161
918.606	14979
918.717	14876
918.828	15020
918.939	15055
919.05	14868
919.161	14994
919.272	14743
919.383	14906
919.494	15039
919.604	15127
919.715	14994
919.826	14845
919.936	14842
920.047	14975
920.157	14967
920.267	15135
920.378	14902
920.488	14899
920.598	15089
920.708	15336
920.818	15066
920.928	15001
921.038	15241
921.148	15154
921.258	14872
921.368	14800
921.477	14800
921.587	14720
921.697	14518
921.806	14663
921.916	14473
922.025	14381
922.134	14320
922.244	14263
922.353	14248
922.462	14221
922.571	14092
922.68	14012
922.789	14027
922.898	13871
923.007	13799
923.116	13894
923.224	13879
923.333	13944
923.442	13807
923.55	13780
923.659	13833
923.767	13799
923.876	13723
923.984	13795
924.092	13689
924.201	13681
924.309	13632
924.417	13651
924.525	13594
924.633	13620
924.741	14412
924.849	13384
924.956	13502
925.064	13434
925.172	13327
925.279	13339
925.387	13316
925.494	13312
925.602	13480
925.709	13392
925.816	13232
925.924	13346
926.031	13377
926.138	13209
926.245	13308
926.352	13225
926.459	13335
926.566	13358
926.673	13171
926.779	13156
926.886	13095
926.993	12947
927.099	12867
927.206	12840
927.312	12821
927.419	12890
927.525	12852
927.631	12928
927.737	12798
927.843	12669
927.95	12623
928.056	12768
928.162	12658
928.267	12673
928.373	13354
928.479	12719
928.585	12471
928.69	12528
928.796	12681
928.901	12612
929.007	12300
929.112	12574
929.218	12498
929.323	12479
929.428	12380
929.533	12513
929.638	12296
929.743	12391
929.848	12399
929.953	12289
930.058	12220
930.163	12098
930.267	12057
930.372	12281
930.477	12049
930.581	12235
930.685	12232
930.79	11893
930.894	12007
930.998	12041
931.103	12068
931.207	11676
931.311	11688
931.415	11600
931.519	11326
931.623	11337
