Data from test_V78500241_1883.txt Node
Date: Fri Mar 25 15:54:50 CST 2022
User: usil
Spectrometer: V785-0024
Trigger mode: 0
Integration Time (sec): 4.000000E-1
Scans to average: 1
Nonlinearity correction enabled: false
Boxcar width: 0
Storing dark spectrum: false
XAxis mode: Wavelengths
Number of Pixels in Spectrum: 1024
>>>>>Begin Spectral Data<<<<<
801.071	28497
801.214	28356
801.356	28234
801.499	28314
801.641	27964
801.783	28112
801.926	28139
802.068	28112
802.211	27960
802.353	27934
802.496	27888
802.638	27743
802.78	27781
802.923	27713
803.065	27625
803.208	27816
803.35	27831
803.492	27949
803.635	28029
803.777	27907
803.919	27930
804.061	28390
804.204	27960
804.346	27937
804.488	27850
804.63	27884
804.773	27846
804.915	28048
805.057	27998
805.199	28032
805.341	28097
805.483	28082
805.626	28219
805.768	27983
805.91	28158
806.052	28101
806.194	27987
806.336	28306
806.478	28135
806.62	28185
806.762	28150
806.904	28424
807.046	28672
807.188	28588
807.33	28596
807.472	28630
807.614	28413
807.756	28569
807.898	28443
808.04	28440
808.182	28459
808.324	28421
808.465	28436
808.607	28622
808.749	28637
808.891	28831
809.033	28805
809.174	28892
809.316	28763
809.458	28824
809.6	28634
809.741	28892
809.883	28748
810.025	28862
810.166	29064
810.308	29147
810.45	29033
810.591	28961
810.733	28816
810.875	28778
811.016	28740
811.158	28649
811.299	28968
811.441	28896
811.582	28911
811.724	28691
811.865	28599
812.007	28835
812.148	28812
812.29	28911
812.431	28991
812.573	29143
812.714	29174
812.855	29360
812.997	29436
813.138	29558
813.279	29490
813.421	29235
813.562	29353
813.703	29124
813.845	28946
813.986	28866
814.127	28569
814.268	28489
814.41	28577
814.551	28470
814.692	28504
814.833	28390
814.974	28455
815.115	28485
815.256	28538
815.397	28352
815.539	28382
815.68	28360
815.821	28333
815.962	28299
816.103	28219
816.244	28112
816.385	28177
816.526	28093
816.666	27922
816.807	27686
816.948	27892
817.089	27983
817.23	27770
817.371	27679
817.512	27812
817.653	27656
817.793	27812
817.934	27800
818.075	27698
818.216	27770
818.356	27819
818.497	27736
818.638	27530
818.778	27469
818.919	27469
819.06	27572
819.2	27698
819.341	27698
819.481	27854
819.622	27926
819.762	28074
819.903	28021
820.043	27983
820.184	27987
820.324	27918
820.465	28006
820.605	28044
820.746	27975
820.886	27888
821.026	27831
821.167	27964
821.307	27964
821.447	27762
821.588	27732
821.728	27690
821.868	27386
822.008	27233
822.149	27127
822.289	27291
822.429	26925
822.569	27051
822.709	27009
822.849	26804
822.99	26674
823.13	26785
823.27	26701
823.41	26587
823.55	26518
823.69	26674
823.83	26727
823.97	26473
824.11	26404
824.25	26396
824.389	26412
824.529	26514
824.669	26503
824.809	26708
824.949	26514
825.089	26503
825.228	26415
825.368	26282
825.508	26278
825.648	26320
825.787	26320
825.927	26347
826.067	26248
826.206	26195
826.346	26336
826.485	26267
826.625	26377
826.765	26343
826.904	26415
827.044	26065
827.183	26199
827.323	26027
827.462	25986
827.601	26027
827.741	25906
827.88	26103
828.02	25807
828.159	25997
828.298	26054
828.437	26088
828.577	25928
828.716	26168
828.855	25928
828.994	25681
829.134	25750
829.273	25753
829.412	25753
829.551	25685
829.69	25742
829.829	25708
829.968	25795
830.107	25753
830.246	25723
830.385	25567
830.524	25521
830.663	25487
830.802	25346
830.941	25209
831.08	25232
831.219	25499
831.357	25400
831.496	25609
831.635	25327
831.774	25072
831.913	25187
832.051	25282
832.19	25171
832.329	25148
832.467	24913
832.606	24924
832.744	24977
832.883	25072
833.022	24871
833.16	24966
833.299	25069
833.437	25015
833.576	25126
833.714	25110
833.852	25129
833.991	25084
834.129	25084
834.267	25168
834.406	25168
834.544	25088
834.682	25133
834.821	24954
834.959	25164
835.097	25031
835.235	25141
835.373	25065
835.511	25061
835.65	24954
835.788	24954
835.926	24772
836.064	24627
836.202	24757
836.34	24935
836.478	24897
836.615	24867
836.753	24837
836.891	24958
837.029	24886
837.167	24897
837.305	24829
837.443	24863
837.58	24688
837.718	24825
837.856	24722
837.993	24715
838.131	24711
838.269	24612
838.406	24707
838.544	24502
838.681	24403
838.819	24365
838.956	24171
839.094	24106
839.231	24243
839.369	24270
839.506	24429
839.643	24464
839.781	24197
839.918	24190
840.055	24266
840.193	24091
840.33	24015
840.467	24121
840.604	24228
840.742	24445
840.879	23946
841.016	24079
841.153	24057
841.29	24285
841.427	24079
841.564	24106
841.701	24076
841.838	24194
841.975	24003
842.112	23950
842.249	23813
842.385	23973
842.522	24205
842.659	23999
842.796	23843
842.933	23870
843.069	23771
843.206	23798
843.343	23969
843.479	23828
843.616	23840
843.752	23672
843.889	23745
844.025	23893
844.162	23554
844.298	23707
844.435	23573
844.571	23623
844.708	23710
844.844	23737
844.98	23726
845.117	23733
845.253	23509
845.389	23490
845.525	23551
845.661	23611
845.798	23337
845.934	23360
846.07	23391
846.206	23345
846.342	23444
846.478	23322
846.614	23124
846.75	22938
846.886	23117
847.022	23181
847.158	23143
847.294	23060
847.429	23067
847.565	23250
847.701	23235
847.837	22752
847.972	22698
848.108	22911
848.244	22984
848.379	22843
848.515	22698
848.65	22542
848.786	22694
848.921	22748
849.057	22767
849.192	22774
849.328	22710
849.463	22679
849.598	22557
849.734	22637
849.869	22523
850.004	22550
850.14	22417
850.275	22451
850.41	22367
850.545	22276
850.68	22402
850.815	22462
850.95	22421
851.085	22569
851.22	22577
851.355	22516
851.49	22386
851.625	22344
851.76	22417
851.895	22386
852.03	22341
852.165	22531
852.299	22409
852.434	22596
852.569	22459
852.703	22436
852.838	22569
852.973	22554
853.107	22580
853.242	22325
853.376	22223
853.511	22196
853.645	22181
853.78	22344
853.914	22325
854.048	22169
854.183	22226
854.317	22314
854.451	22493
854.585	22268
854.72	22295
854.854	22398
854.988	22177
855.122	22253
855.256	22010
855.39	22131
855.524	22402
855.658	22257
855.792	22386
855.926	22265
856.06	22352
856.194	22253
856.327	22265
856.461	22097
856.595	22265
856.729	22131
856.862	22371
856.996	22284
857.13	22280
857.263	22474
857.397	22322
857.53	22211
857.664	22211
857.797	22268
857.931	22367
858.064	22280
858.197	22333
858.331	22219
858.464	22344
858.597	22200
858.731	22249
858.864	22173
858.997	22200
859.13	22249
859.263	22481
859.396	22402
859.529	22257
859.662	22249
859.795	22238
859.928	22246
860.061	22375
860.194	22291
860.327	22295
860.46	22303
860.592	22402
860.725	22428
860.858	22390
860.99	22177
861.123	22200
861.256	22188
861.388	22257
861.521	23098
861.653	22150
861.786	22010
861.918	22150
862.05	22086
862.183	22272
862.315	22211
862.447	22337
862.58	22154
862.712	22067
862.844	21888
862.976	22154
863.108	21994
863.24	22535
863.372	21934
863.504	21953
863.636	21972
863.768	22070
863.9	21994
864.032	21709
864.164	21911
864.296	21911
864.428	22078
864.559	21975
864.691	22051
864.823	22051
864.954	21979
865.086	21918
865.217	21930
865.349	21785
865.48	21823
865.612	21865
865.743	21998
865.875	21854
866.006	21816
866.137	21823
866.269	21701
866.4	21903
866.531	21766
866.662	21690
866.793	21728
866.924	21857
867.055	21770
867.186	21812
867.317	21720
867.448	21679
867.579	21698
867.71	21690
867.841	21629
867.972	21846
868.103	21785
868.233	21759
868.364	21770
868.495	21797
868.625	22006
868.756	22177
868.886	22006
869.017	22067
869.147	22063
869.278	22139
869.408	22078
869.539	22063
869.669	22025
869.799	22086
869.929	22139
870.06	22021
870.19	22306
870.32	22371
870.45	22356
870.58	22398
870.71	22428
870.84	22341
870.97	22394
871.1	22493
871.23	22675
871.36	22660
871.489	22519
871.619	22481
871.749	22588
871.879	22672
872.008	22618
872.138	22504
872.267	22569
872.397	22497
872.526	22398
872.656	22504
872.785	22413
872.915	22588
873.044	22698
873.173	22687
873.303	22656
873.432	22672
873.561	22664
873.69	22580
873.819	22584
873.948	22782
874.077	22634
874.206	22618
874.335	22577
874.464	22809
874.593	22801
874.722	22820
874.851	22778
874.979	22824
875.108	22847
875.237	22736
875.365	22778
875.494	22752
875.623	23006
875.751	22816
875.88	22797
876.008	22968
876.136	22919
876.265	23231
876.393	23349
876.521	23242
876.65	23299
876.778	23254
876.906	23235
877.034	23269
877.162	23098
877.29	23086
877.418	23178
877.546	23265
877.674	23185
877.802	23212
877.93	23231
878.058	23212
878.185	23094
878.313	23056
878.441	23273
878.568	23071
878.696	22984
878.824	23147
878.951	23349
879.079	23322
879.206	23551
879.333	23372
879.461	23174
879.588	23155
879.715	23379
879.842	23425
879.97	23258
880.097	23052
880.224	23064
880.351	23010
880.478	23113
880.605	22900
880.732	22953
880.859	23166
880.986	22812
881.112	22934
881.239	22854
881.366	22702
881.493	22717
881.619	22504
881.746	22554
881.872	22744
881.999	22561
882.125	22630
882.252	22660
882.378	22474
882.505	22634
882.631	22360
882.757	22268
882.883	22405
883.01	22287
883.136	22166
883.262	22044
883.388	21987
883.514	22329
883.64	22337
883.766	22169
883.892	22093
884.018	22116
884.143	22322
884.269	22219
884.395	22006
884.52	21774
884.646	21888
884.772	21766
884.897	21770
885.023	21968
885.148	21979
885.274	22021
885.399	22040
885.524	21888
885.65	21918
885.775	21865
885.9	21800
886.025	22002
886.15	21953
886.275	21804
886.4	21880
886.525	21850
886.65	21774
886.775	21759
886.9	22006
887.025	22021
887.149	21819
887.274	21755
887.399	21641
887.523	21652
887.648	21504
887.773	21545
887.897	21709
888.021	21576
888.146	21641
888.27	21709
888.395	21629
888.519	21610
888.643	21644
888.767	21633
888.891	21572
889.015	21310
889.139	21534
889.263	21294
889.387	21496
889.511	21583
889.635	21519
889.759	21367
889.883	21492
890.006	21351
890.13	21538
890.254	21382
890.377	21317
890.501	21294
890.624	21214
890.748	21192
890.871	21077
890.995	21017
891.118	20956
891.241	20899
891.364	20910
891.488	21116
891.611	20925
891.734	21036
891.857	21203
891.98	20956
892.103	20952
892.226	20998
892.349	21100
892.471	20701
892.594	20979
892.717	20937
892.839	20921
892.962	20963
893.085	20921
893.207	20963
893.33	20674
893.452	20708
893.575	20929
893.697	20811
893.819	20941
893.941	21066
894.064	20960
894.186	20853
894.308	20830
894.43	20845
894.552	20998
894.674	20971
894.796	20800
894.918	20861
895.04	20910
895.161	20910
895.283	20902
895.405	20800
895.526	20845
895.648	20785
895.769	20925
895.891	20925
896.012	20914
896.134	20944
896.255	20849
896.376	20826
896.498	20857
896.619	20925
896.74	20929
896.861	20918
896.982	21093
897.103	21275
897.224	21184
897.345	21123
897.466	20998
897.587	21017
897.708	21127
897.828	21116
897.949	20971
898.07	20914
898.19	21024
898.311	21089
898.431	20990
898.552	21081
898.672	21199
898.792	21123
898.913	20971
899.033	20971
899.153	20815
899.273	20826
899.393	20720
899.513	20845
899.633	20727
899.753	20807
899.873	20826
899.993	20853
900.113	20727
900.232	20705
900.352	20701
900.472	20568
900.591	20480
900.711	20560
900.83	20674
900.95	20644
901.069	20640
901.189	20400
901.308	20218
901.427	20142
901.546	20069
901.665	20073
901.784	20199
901.904	20012
902.023	19978
902.141	19879
902.26	19681
902.379	19765
902.498	19655
902.617	19559
902.735	19613
902.854	19613
902.973	19548
903.091	19400
903.21	19164
903.328	19282
903.446	19312
903.565	19107
903.683	19122
903.801	18954
903.919	19065
904.038	19103
904.156	18840
904.274	18943
904.392	18856
904.51	18814
904.627	18760
904.745	18867
904.863	18973
904.981	18715
905.098	18582
905.216	18559
905.334	18448
905.451	18521
905.569	18528
905.686	18547
905.803	18426
905.921	18350
906.038	18433
906.155	18365
906.272	18213
906.389	18369
906.506	18060
906.623	18117
906.74	17954
906.857	17988
906.974	17996
907.091	18110
907.208	18209
907.324	18068
907.441	17969
907.557	17798
907.674	17726
907.79	17798
907.907	17714
908.023	17756
908.139	17794
908.256	17771
908.372	17642
908.488	17737
908.604	17585
908.72	17478
908.836	17433
908.952	17372
909.068	17391
909.184	17680
909.3	17543
909.415	17615
909.531	17482
909.647	17155
909.762	17174
909.878	17178
909.993	17220
910.108	17071
910.224	17079
910.339	17151
910.454	17113
910.57	17003
910.685	16824
910.8	17170
910.915	17102
911.03	17018
911.145	16816
911.259	16816
911.374	16626
911.489	16702
911.604	16603
911.718	16504
911.833	16538
911.947	16398
912.062	16314
912.176	16523
912.291	16489
912.405	16379
912.519	16740
912.633	16702
912.748	16546
912.862	16558
912.976	16375
913.09	16249
913.204	16341
913.318	16325
913.431	16409
913.545	16440
913.659	16382
913.772	16249
913.886	16211
914	16211
914.113	16215
914.226	16238
914.34	16215
914.453	15922
914.566	16048
914.68	15983
914.793	16017
914.906	15785
915.019	15800
915.132	15717
915.245	15709
915.358	15823
915.47	15751
915.583	15618
915.696	15778
915.809	15793
915.921	15838
916.034	15618
916.146	15553
916.259	15584
916.371	15599
916.483	15595
916.595	15553
916.708	15545
916.82	15587
916.932	15401
917.044	15454
917.156	15401
917.268	15302
917.38	15291
917.491	15367
917.603	15272
917.715	15393
917.826	15416
917.938	15298
918.049	15074
918.161	15287
918.272	15363
918.384	15321
918.495	15180
918.606	15173
918.717	14967
918.828	15074
918.939	15062
919.05	14975
919.161	15017
919.272	14891
919.383	14982
919.494	15173
919.604	15325
919.715	14990
919.826	14952
919.936	15100
920.047	15089
920.157	15089
920.267	15169
920.378	15077
920.488	15062
920.598	15165
920.708	15302
920.818	15112
920.928	15138
921.038	15272
921.148	15264
921.258	14891
921.368	14918
921.477	14769
921.587	14769
921.697	14640
921.806	14735
921.916	14625
922.025	14423
922.134	14301
922.244	14313
922.353	14438
922.462	14309
922.571	14187
922.68	14054
922.789	13993
922.898	13989
923.007	13917
923.116	13986
923.224	13989
923.333	14001
923.442	13860
923.55	13883
923.659	13830
923.767	13875
923.876	13776
923.984	13925
924.092	13670
924.201	13704
924.309	13780
924.417	13685
924.525	13689
924.633	13639
924.741	14427
924.849	13521
924.956	13582
925.064	13499
925.172	13453
925.279	13480
925.387	13521
925.494	13373
925.602	13537
925.709	13430
925.816	13327
925.924	13392
926.031	13460
926.138	13403
926.245	13415
926.352	13213
926.459	13320
926.566	13369
926.673	13247
926.779	13103
926.886	13209
926.993	13038
927.099	12954
927.206	13019
927.312	12916
927.419	12985
927.525	12894
927.631	12973
927.737	12962
927.843	12821
927.95	12696
928.056	12859
928.162	12779
928.267	12829
928.373	13415
928.479	12852
928.585	12646
928.69	12711
928.796	12795
928.901	12631
929.007	12490
929.112	12669
929.218	12665
929.323	12483
929.428	12494
929.533	12589
929.638	12433
929.743	12403
929.848	12486
929.953	12357
930.058	12247
930.163	12175
930.267	12262
930.372	12289
930.477	12125
930.581	12403
930.685	12273
930.79	12019
930.894	12041
930.998	11961
931.103	12125
931.207	11767
931.311	11733
931.415	11581
931.519	11486
931.623	11379
