Data from test_V78500241_1180.txt Node
Date: Fri Mar 25 15:49:58 CST 2022
User: usil
Spectrometer: V785-0024
Trigger mode: 0
Integration Time (sec): 4.000000E-1
Scans to average: 1
Nonlinearity correction enabled: false
Boxcar width: 0
Storing dark spectrum: false
XAxis mode: Wavelengths
Number of Pixels in Spectrum: 1024
>>>>>Begin Spectral Data<<<<<
801.071	28675
801.214	28584
801.356	28379
801.499	28284
801.641	28070
801.783	28082
801.926	28139
802.068	28147
802.211	28090
802.353	27903
802.496	27979
802.638	27960
802.78	27873
802.923	27789
803.065	27720
803.208	27747
803.35	27888
803.492	27914
803.635	28013
803.777	27937
803.919	27937
804.061	28417
804.204	28090
804.346	28105
804.488	27968
804.63	27960
804.773	28055
804.915	28150
805.057	28162
805.199	28063
805.341	28082
805.483	28310
805.626	28185
805.768	28090
805.91	28333
806.052	28382
806.194	28112
806.336	28363
806.478	28249
806.62	28360
806.762	28413
806.904	28466
807.046	28771
807.188	28664
807.33	28683
807.472	28771
807.614	28634
807.756	28729
807.898	28489
808.04	28512
808.182	28462
808.324	28634
808.465	28630
808.607	28858
808.749	28934
808.891	29090
809.033	29098
809.174	28995
809.316	28946
809.458	28930
809.6	28904
809.741	29208
809.883	29029
810.025	29223
810.166	29284
810.308	29322
810.45	29136
810.591	29189
810.733	28976
810.875	28869
811.016	28782
811.158	28854
811.299	29174
811.441	29117
811.582	29166
811.724	29113
811.865	28885
812.007	29022
812.148	29006
812.29	29121
812.431	29143
812.573	29265
812.714	29364
812.855	29558
812.997	29558
813.138	29775
813.279	29619
813.421	29623
813.562	29383
813.703	29235
813.845	29102
813.986	28987
814.127	28702
814.268	28679
814.41	28736
814.551	28649
814.692	28759
814.833	28611
814.974	28771
815.115	28588
815.256	28554
815.397	28580
815.539	28447
815.68	28314
815.821	28618
815.962	28535
816.103	28474
816.244	28386
816.385	28284
816.526	28082
816.666	28013
816.807	27964
816.948	28040
817.089	27991
817.23	28055
817.371	28006
817.512	27895
817.653	28006
817.793	27937
817.934	27907
818.075	27911
818.216	28067
818.356	28074
818.497	27789
818.638	27561
818.778	27808
818.919	27865
819.06	27713
819.2	27972
819.341	27979
819.481	27899
819.622	28238
819.762	28162
819.903	28299
820.043	28139
820.184	28242
820.324	28082
820.465	28135
820.605	28150
820.746	28162
820.886	27964
821.026	28196
821.167	28059
821.307	28105
821.447	27979
821.588	27914
821.728	27835
821.868	27671
822.008	27519
822.149	27507
822.289	27416
822.429	26998
822.569	27020
822.709	27039
822.849	26929
822.99	26967
823.13	26895
823.27	26830
823.41	26655
823.55	26613
823.69	26883
823.83	26773
823.97	26765
824.11	26655
824.25	26396
824.389	26575
824.529	26701
824.669	26659
824.809	26693
824.949	26674
825.089	26651
825.228	26613
825.368	26450
825.508	26465
825.648	26442
825.787	26545
825.927	26568
826.067	26370
826.206	26499
826.346	26579
826.485	26556
826.625	26366
826.765	26590
826.904	26453
827.044	26320
827.183	26244
827.323	26244
827.462	26191
827.601	26229
827.741	26248
827.88	26256
828.02	25989
828.159	26126
828.298	26206
828.437	26195
828.577	26240
828.716	26332
828.855	26221
828.994	25898
829.134	25997
829.273	25936
829.412	25852
829.551	25936
829.69	25955
829.829	25875
829.968	25989
830.107	25837
830.246	25871
830.385	25814
830.524	25799
830.663	25776
830.802	25609
830.941	25594
831.08	25320
831.219	25639
831.357	25647
831.496	25818
831.635	25403
831.774	25369
831.913	25392
832.051	25400
832.19	25339
832.329	25324
832.467	25133
832.606	25034
832.744	25084
832.883	25046
833.022	25034
833.16	25129
833.299	25247
833.437	25183
833.576	25187
833.714	25228
833.852	25217
833.991	25217
834.129	25308
834.267	25274
834.406	25206
834.544	25350
834.682	25244
834.821	25034
834.959	25343
835.097	25099
835.235	25270
835.373	25164
835.511	25061
835.65	25057
835.788	25057
835.926	25050
836.064	24779
836.202	24920
836.34	25023
836.478	25129
836.615	24943
836.753	25080
836.891	25122
837.029	25057
837.167	24935
837.305	25046
837.443	24954
837.58	24909
837.718	24897
837.856	24932
837.993	24715
838.131	24768
838.269	24726
838.406	24814
838.544	24779
838.681	24422
838.819	24494
838.956	24399
839.094	24220
839.231	24410
839.369	24604
839.506	24688
839.643	24631
839.781	24407
839.918	24277
840.055	24213
840.193	24194
840.33	24144
840.467	24228
840.604	24292
840.742	24525
840.879	24133
841.016	24190
841.153	24174
841.29	24228
841.427	24289
841.564	24254
841.701	24239
841.838	24190
841.975	24186
842.112	24292
842.249	23992
842.385	24011
842.522	24258
842.659	24155
842.796	24110
842.933	23992
843.069	23992
843.206	23908
843.343	24038
843.479	24018
843.616	23878
843.752	23809
843.889	23760
844.025	23824
844.162	23752
844.298	23843
844.435	23771
844.571	23684
844.708	23817
844.844	23882
844.98	23912
845.117	23870
845.253	23737
845.389	23528
845.525	23539
845.661	23649
845.798	23600
845.934	23448
846.07	23478
846.206	23402
846.342	23634
846.478	23486
846.614	23284
846.75	23193
846.886	23220
847.022	23341
847.158	23239
847.294	23200
847.429	23315
847.565	23102
847.701	23482
847.837	22850
847.972	23010
848.108	23067
848.244	23018
848.379	22942
848.515	22831
848.65	22816
848.786	22961
848.921	22900
849.057	22957
849.192	22999
849.328	22733
849.463	22812
849.598	22713
849.734	22744
849.869	22736
850.004	22611
850.14	22592
850.275	22561
850.41	22535
850.545	22611
850.68	22649
850.815	22451
850.95	22611
851.085	22733
851.22	22717
851.355	22398
851.49	22527
851.625	22599
851.76	22569
851.895	22489
852.03	22592
852.165	22599
852.299	22767
852.434	22664
852.569	22687
852.703	22660
852.838	22805
852.973	22744
853.107	22721
853.242	22516
853.376	22462
853.511	22299
853.645	22402
853.78	22550
853.914	22314
854.048	22440
854.183	22462
854.317	22485
854.451	22645
854.585	22432
854.72	22440
854.854	22493
854.988	22443
855.122	22360
855.256	22352
855.39	22265
855.524	22402
855.658	22402
855.792	22462
855.926	22280
856.06	22424
856.194	22440
856.327	22390
856.461	22424
856.595	22382
856.729	22375
856.862	22588
856.996	22318
857.13	22424
857.263	22428
857.397	22485
857.53	22341
857.664	22474
857.797	22512
857.931	22618
858.064	22470
858.197	22554
858.331	22451
858.464	22394
858.597	22295
858.731	22318
858.864	22481
858.997	22447
859.13	22413
859.263	22390
859.396	22519
859.529	22402
859.662	22306
859.795	22375
859.928	22428
860.061	22641
860.194	22580
860.327	22485
860.46	22291
860.592	22504
860.725	22653
860.858	22615
860.99	22455
861.123	22318
861.256	22341
861.388	22462
861.521	23239
861.653	22356
861.786	22219
861.918	22246
862.05	22211
862.183	22337
862.315	22360
862.447	22394
862.58	22272
862.712	22025
862.844	22074
862.976	22219
863.108	22188
863.24	22569
863.372	22067
863.504	22200
863.636	22109
863.768	22120
863.9	22105
864.032	22059
864.164	22097
864.296	22067
864.428	22287
864.559	22185
864.691	22223
864.823	22078
864.954	22070
865.086	22150
865.217	22051
865.349	22002
865.48	22082
865.612	21983
865.743	22181
865.875	22021
866.006	22002
866.137	22063
866.269	22021
866.4	21994
866.531	21956
866.662	21911
866.793	21846
866.924	21861
867.055	22112
867.186	21937
867.317	21827
867.448	21930
867.579	21907
867.71	21941
867.841	21759
867.972	21895
868.103	21972
868.233	21869
868.364	21930
868.495	21968
868.625	22120
868.756	22234
868.886	21960
869.017	22067
869.147	22200
869.278	22257
869.408	22211
869.539	22192
869.669	22223
869.799	22177
869.929	22329
870.06	22291
870.19	22489
870.32	22478
870.45	22481
870.58	22470
870.71	22485
870.84	22694
870.97	22664
871.1	22542
871.23	22759
871.36	22843
871.489	22664
871.619	22725
871.749	22721
871.879	22866
872.008	22869
872.138	22847
872.267	22733
872.397	22653
872.526	22561
872.656	22554
872.785	22588
872.915	22938
873.044	22911
873.173	22801
873.303	22744
873.432	22927
873.561	22805
873.69	22797
873.819	22717
873.948	22687
874.077	22809
874.206	22763
874.335	22713
874.464	22873
874.593	22984
874.722	22968
874.851	23064
874.979	23037
875.108	22927
875.237	22965
875.365	22919
875.494	22957
875.623	23064
875.751	22980
875.88	22942
876.008	23132
876.136	23216
876.265	23425
876.393	23421
876.521	23463
876.65	23452
876.778	23448
876.906	23269
877.034	23360
877.162	23372
877.29	23261
877.418	23421
877.546	23372
877.674	23474
877.802	23326
877.93	23185
878.058	23277
878.185	23098
878.313	23235
878.441	23395
878.568	23105
878.696	23280
878.824	23315
878.951	23463
879.079	23543
879.206	23608
879.333	23474
879.461	23372
879.588	23372
879.715	23478
879.842	23642
879.97	23341
880.097	23174
880.224	23075
880.351	23223
880.478	23162
880.605	23109
880.732	23128
880.859	23410
880.986	23124
881.112	23178
881.239	22991
881.366	22892
881.493	22721
881.619	22565
881.746	22801
881.872	22637
881.999	22744
882.125	22527
882.252	22679
882.378	22698
882.505	22790
882.631	22649
882.757	22402
882.883	22554
883.01	22261
883.136	22405
883.262	22265
883.388	22226
883.514	22287
883.64	22367
883.766	22306
883.892	22086
884.018	22169
884.143	22363
884.269	22268
884.395	22063
884.52	22078
884.646	22051
884.772	21949
884.897	22040
885.023	22032
885.148	22013
885.274	22162
885.399	22120
885.524	21964
885.65	22029
885.775	21998
885.9	21972
886.025	22276
886.15	22131
886.275	21953
886.4	21876
886.525	22021
886.65	21865
886.775	21892
886.9	22124
887.025	22196
887.149	22147
887.274	21861
887.399	21759
887.523	21850
887.648	21816
887.773	21747
887.897	21816
888.021	21812
888.146	21648
888.27	21964
888.395	21926
888.519	21785
888.643	21838
888.767	21869
888.891	21660
889.015	21469
889.139	21610
889.263	21591
889.387	21671
889.511	21850
889.635	21591
889.759	21504
889.883	21526
890.006	21618
890.13	21542
890.254	21534
890.377	21496
890.501	21321
890.624	21264
890.748	21306
890.871	21116
890.995	21161
891.118	21142
891.241	21081
891.364	21089
891.488	21214
891.611	21066
891.734	21093
891.857	21150
891.98	21104
892.103	21184
892.226	21093
892.349	21009
892.471	20914
892.594	21096
892.717	21005
892.839	21081
892.962	21104
893.085	21062
893.207	21062
893.33	20944
893.452	20937
893.575	20910
893.697	20967
893.819	21039
893.941	21222
894.064	21192
894.186	20910
894.308	21013
894.43	21039
894.552	21093
894.674	21096
894.796	20902
894.918	20914
895.04	20952
895.161	21058
895.283	21005
895.405	20990
895.526	21051
895.648	21043
895.769	21013
895.891	20941
896.012	21047
896.134	21066
896.255	21020
896.376	21024
896.498	20944
896.619	21066
896.74	20918
896.861	21131
896.982	21214
897.103	21481
897.224	21222
897.345	21184
897.466	21062
897.587	21256
897.708	21340
897.828	21283
897.949	21211
898.07	21043
898.19	21104
898.311	21142
898.431	21184
898.552	21127
898.672	21241
898.792	21348
898.913	21237
899.033	21055
899.153	21020
899.273	20754
899.393	21013
899.513	21005
899.633	20986
899.753	20842
899.873	20906
899.993	20853
900.113	20830
900.232	20853
900.352	20902
900.472	20743
900.591	20678
900.711	20746
900.83	20609
900.95	20735
901.069	20762
901.189	20594
901.308	20408
901.427	20214
901.546	20248
901.665	20309
901.784	20294
901.904	20100
902.023	20027
902.141	19909
902.26	19864
902.379	19856
902.498	19677
902.617	19734
902.735	19761
902.854	19689
902.973	19666
903.091	19422
903.21	19301
903.328	19556
903.446	19358
903.565	19339
903.683	19263
903.801	19148
903.919	19213
904.038	19141
904.156	19034
904.274	18977
904.392	19008
904.51	18947
904.627	18916
904.745	18989
904.863	19027
904.981	18837
905.098	18715
905.216	18730
905.334	18715
905.451	18658
905.569	18506
905.686	18681
905.803	18669
905.921	18445
906.038	18563
906.155	18445
906.272	18350
906.389	18346
906.506	18136
906.623	18209
906.74	18209
906.857	18098
906.974	18121
907.091	18338
907.208	18304
907.324	18117
907.441	18140
907.557	17996
907.674	17923
907.79	17824
907.907	17882
908.023	17901
908.139	17813
908.256	17805
908.372	17748
908.488	17817
908.604	17638
908.72	17668
908.836	17528
908.952	17661
909.068	17733
909.184	17722
909.3	17543
909.415	17657
909.531	17562
909.647	17372
909.762	17204
909.878	17261
909.993	17349
910.108	17284
910.224	17349
910.339	17178
910.454	17143
910.57	17121
910.685	17071
910.8	17322
910.915	17299
911.03	16972
911.145	16877
911.259	16896
911.374	16915
911.489	16786
911.604	16649
911.718	16641
911.833	16656
911.947	16603
912.062	16535
912.176	16664
912.291	16630
912.405	16546
912.519	16786
912.633	16786
912.748	16622
912.862	16569
912.976	16447
913.09	16337
913.204	16348
913.318	16447
913.431	16474
913.545	16516
913.659	16516
913.772	16363
913.886	16314
914	16230
914.113	16367
914.226	16257
914.34	16272
914.453	16139
914.566	16230
914.68	16128
914.793	15937
914.906	15774
915.019	15842
915.132	15686
915.245	15823
915.358	15778
915.47	15831
915.583	15770
915.696	15717
915.809	15857
915.921	15915
916.034	15667
916.146	15694
916.259	15580
916.371	15720
916.483	15747
916.595	15591
916.708	15610
916.82	15610
916.932	15663
917.044	15553
917.156	15564
917.268	15386
917.38	15458
917.491	15405
917.603	15466
917.715	15469
917.826	15374
917.938	15420
918.049	15260
918.161	15416
918.272	15454
918.384	15447
918.495	15370
918.606	15192
918.717	15192
918.828	15199
918.939	15230
919.05	15154
919.161	15119
919.272	14929
919.383	15024
919.494	15222
919.604	15420
919.715	15135
919.826	15047
919.936	15028
920.047	15298
920.157	15093
920.267	15249
920.378	15127
920.488	15032
920.598	15344
920.708	15386
920.818	15268
920.928	15279
921.038	15401
921.148	15374
921.258	15093
921.368	14948
921.477	14971
921.587	14746
921.697	14670
921.806	14937
921.916	14678
922.025	14492
922.134	14461
922.244	14366
922.353	14560
922.462	14336
922.571	14309
922.68	14115
922.789	14126
922.898	14123
923.007	13986
923.116	14233
923.224	14081
923.333	14050
923.442	14054
923.55	14069
923.659	13993
923.767	14005
923.876	13791
923.984	14039
924.092	13788
924.201	13894
924.309	13849
924.417	13772
924.525	13742
924.633	13734
924.741	14495
924.849	13514
924.956	13582
925.064	13510
925.172	13502
925.279	13472
925.387	13556
925.494	13510
925.602	13605
925.709	13487
925.816	13445
925.924	13438
926.031	13552
926.138	13453
926.245	13480
926.352	13441
926.459	13434
926.566	13483
926.673	13434
926.779	13270
926.886	13270
926.993	13050
927.099	12943
927.206	12993
927.312	12947
927.419	13103
927.525	12993
927.631	13042
927.737	12981
927.843	12913
927.95	12802
928.056	12897
928.162	12871
928.267	12829
928.373	13514
928.479	12894
928.585	12688
928.69	12734
928.796	12810
928.901	12707
929.007	12555
929.112	12726
929.218	12604
929.323	12559
929.428	12498
929.533	12745
929.638	12426
929.743	12471
929.848	12559
929.953	12540
930.058	12441
930.163	12273
930.267	12285
930.372	12391
930.477	12205
930.581	12460
930.685	12300
930.79	12098
930.894	12243
930.998	12098
931.103	12186
931.207	11790
931.311	11783
931.415	11661
931.519	11482
931.623	11490
