Data from test_V78500241_1535.txt Node
Date: Fri Mar 25 15:52:26 CST 2022
User: usil
Spectrometer: V785-0024
Trigger mode: 0
Integration Time (sec): 4.000000E-1
Scans to average: 1
Nonlinearity correction enabled: false
Boxcar width: 0
Storing dark spectrum: false
XAxis mode: Wavelengths
Number of Pixels in Spectrum: 1024
>>>>>Begin Spectral Data<<<<<
801.071	28428
801.214	28318
801.356	28010
801.499	27895
801.641	27991
801.783	27934
801.926	27987
802.068	27812
802.211	27808
802.353	27823
802.496	27473
802.638	27576
802.78	27427
802.923	27477
803.065	27389
803.208	27393
803.35	27610
803.492	27591
803.635	27751
803.777	27599
803.919	27838
804.061	28173
804.204	27778
804.346	27717
804.488	27610
804.63	27736
804.773	27717
804.915	27876
805.057	27831
805.199	27713
805.341	27884
805.483	27956
805.626	27747
805.768	27922
805.91	27930
806.052	28002
806.194	27854
806.336	27918
806.478	27903
806.62	27831
806.762	28177
806.904	28204
807.046	28310
807.188	28299
807.33	28310
807.472	28557
807.614	28329
807.756	28276
807.898	28116
808.04	28040
808.182	28238
808.324	28280
808.465	28325
808.607	28371
808.749	28603
808.891	28596
809.033	28694
809.174	28535
809.316	28500
809.458	28466
809.6	28679
809.741	28748
809.883	28809
810.025	28809
810.166	28854
810.308	28915
810.45	28755
810.591	28771
810.733	28721
810.875	28531
811.016	28516
811.158	28432
811.299	28645
811.441	28698
811.582	28656
811.724	28611
811.865	28497
812.007	28542
812.148	28531
812.29	28717
812.431	28774
812.573	29003
812.714	28957
812.855	29037
812.997	29151
813.138	29292
813.279	29197
813.421	29044
813.562	29083
813.703	28923
813.845	28793
813.986	28668
814.127	28360
814.268	28272
814.41	28432
814.551	28325
814.692	28337
814.833	28143
814.974	28261
815.115	28261
815.256	28112
815.397	28188
815.539	28162
815.68	27911
815.821	28109
815.962	28017
816.103	28200
816.244	28070
816.385	27854
816.526	27945
816.666	27641
816.807	27511
816.948	27629
817.089	27709
817.23	27610
817.371	27576
817.512	27576
817.653	27618
817.793	27709
817.934	27572
818.075	27530
818.216	27587
818.356	27492
818.497	27515
818.638	27313
818.778	27321
818.919	27382
819.06	27351
819.2	27272
819.341	27682
819.481	27542
819.622	27690
819.762	27964
819.903	27892
820.043	27724
820.184	27686
820.324	27819
820.465	27759
820.605	27812
820.746	27728
820.886	27648
821.026	27705
821.167	27701
821.307	27663
821.447	27633
821.588	27443
821.728	27367
821.868	27363
822.008	27119
822.149	27119
822.289	26971
822.429	26693
822.569	26842
822.709	26693
822.849	26568
822.99	26564
823.13	26571
823.27	26533
823.41	26556
823.55	26275
823.69	26396
823.83	26431
823.97	26328
824.11	26130
824.25	26278
824.389	26122
824.529	26153
824.669	26088
824.809	26336
824.949	26343
825.089	26343
825.228	26320
825.368	26088
825.508	26058
825.648	25860
825.787	26195
825.927	26058
826.067	26043
826.206	26062
826.346	26073
826.485	26164
826.625	26134
826.765	26157
826.904	26134
827.044	25765
827.183	25852
827.323	25738
827.462	25791
827.601	25841
827.741	25955
827.88	25799
828.02	25708
828.159	25750
828.298	25811
828.437	25750
828.577	25647
828.716	25898
828.855	25746
828.994	25582
829.134	25426
829.273	25685
829.412	25563
829.551	25563
829.69	25556
829.829	25506
829.968	25658
830.107	25468
830.246	25518
830.385	25483
830.524	25396
830.663	25369
830.802	25327
830.941	25019
831.08	25168
831.219	25206
831.357	25152
831.496	25304
831.635	25133
831.774	24977
831.913	24954
832.051	25008
832.19	24856
832.329	24833
832.467	24760
832.606	24707
832.744	24741
832.883	24578
833.022	24719
833.16	24760
833.299	24856
833.437	24669
833.576	24977
833.714	24856
833.852	25027
833.991	24977
834.129	24985
834.267	24916
834.406	24760
834.544	24863
834.682	24901
834.821	24810
834.959	24924
835.097	24791
835.235	24951
835.373	24852
835.511	24837
835.65	24639
835.788	24601
835.926	24502
836.064	24448
836.202	24490
836.34	24665
836.478	24681
836.615	24620
836.753	24722
836.891	24677
837.029	24620
837.167	24593
837.305	24525
837.443	24525
837.58	24559
837.718	24604
837.856	24494
837.993	24547
838.131	24570
838.269	24292
838.406	24403
838.544	24369
838.681	24083
838.819	24251
838.956	24098
839.094	24064
839.231	23931
839.369	24110
839.506	24388
839.643	24258
839.781	23859
839.918	23847
840.055	23931
840.193	23912
840.33	23885
840.467	23920
840.604	23882
840.742	24136
840.879	23760
841.016	23798
841.153	23672
841.29	23954
841.427	23859
841.564	23904
841.701	23893
841.838	23802
841.975	23748
842.112	23737
842.249	23733
842.385	23505
842.522	23901
842.659	23684
842.796	23608
842.933	23585
843.069	23623
843.206	23627
843.343	23581
843.479	23611
843.616	23566
843.752	23406
843.889	23455
844.025	23554
844.162	23387
844.298	23356
844.435	23395
844.571	23345
844.708	23376
844.844	23585
844.98	23543
845.117	23543
845.253	23376
845.389	23307
845.525	23463
845.661	23239
845.798	23189
845.934	23033
846.07	23098
846.206	23079
846.342	23250
846.478	23086
846.614	22881
846.75	22805
846.886	22847
847.022	22873
847.158	22938
847.294	22835
847.429	22889
847.565	22755
847.701	23117
847.837	22561
847.972	22459
848.108	22694
848.244	22748
848.379	22485
848.515	22561
848.65	22462
848.786	22417
848.921	22428
849.057	22542
849.192	22584
849.328	22466
849.463	22481
849.598	22504
849.734	22402
849.869	22291
850.004	22188
850.14	22265
850.275	22162
850.41	22055
850.545	22192
850.68	22109
850.815	22234
850.95	22006
851.085	22394
851.22	22310
851.355	22322
851.49	22177
851.625	22059
851.76	22185
851.895	22124
852.03	22238
852.165	22048
852.299	22382
852.434	22333
852.569	22299
852.703	22253
852.838	22223
852.973	22249
853.107	22314
853.242	22223
853.376	22128
853.511	21941
853.645	22120
853.78	22120
853.914	22181
854.048	22017
854.183	21972
854.317	22051
854.451	22200
854.585	22070
854.72	22074
854.854	22067
854.988	21956
855.122	22032
855.256	21960
855.39	22002
855.524	22200
855.658	22082
855.792	22013
855.926	22044
856.06	22147
856.194	22143
856.327	22090
856.461	21987
856.595	21918
856.729	21949
856.862	22143
856.996	22032
857.13	22135
857.263	22242
857.397	22135
857.53	22044
857.664	22101
857.797	22105
857.931	22188
858.064	22078
858.197	22116
858.331	22040
858.464	21972
858.597	21945
858.731	22010
858.864	21884
858.997	21987
859.13	21991
859.263	22017
859.396	22101
859.529	21991
859.662	21983
859.795	22006
859.928	22158
860.061	22082
860.194	22234
860.327	22040
860.46	22010
860.592	22185
860.725	22238
860.858	22158
860.99	22002
861.123	21945
861.256	21922
861.388	22120
861.521	22546
861.653	21941
861.786	21747
861.918	21842
862.05	21831
862.183	21972
862.315	21987
862.447	21968
862.58	21873
862.712	21759
862.844	21785
862.976	21842
863.108	21766
863.24	22154
863.372	21679
863.504	21766
863.636	21732
863.768	21793
863.9	21614
864.032	21534
864.164	21576
864.296	21633
864.428	21819
864.559	21766
864.691	21789
864.823	21698
864.954	21622
865.086	21709
865.217	21660
865.349	21492
865.48	21675
865.612	21644
865.743	21797
865.875	21641
866.006	21576
866.137	21618
866.269	21583
866.4	21705
866.531	21606
866.662	21519
866.793	21492
866.924	21530
867.055	21606
867.186	21568
867.317	21504
867.448	21408
867.579	21549
867.71	21473
867.841	21507
867.972	21576
868.103	21610
868.233	21561
868.364	21519
868.495	21610
868.625	21785
868.756	21861
868.886	21709
869.017	21755
869.147	21865
869.278	21793
869.408	21797
869.539	21865
869.669	21888
869.799	21838
869.929	21895
870.06	21774
870.19	22143
870.32	22070
870.45	22120
870.58	22272
870.71	22379
870.84	22211
870.97	22226
871.1	22185
871.23	22207
871.36	22432
871.489	22344
871.619	22382
871.749	22474
871.879	22485
872.008	22409
872.138	22325
872.267	22257
872.397	22352
872.526	22181
872.656	22211
872.785	22272
872.915	22390
873.044	22474
873.173	22333
873.303	22360
873.432	22478
873.561	22573
873.69	22497
873.819	22436
873.948	22622
874.077	22451
874.206	22360
874.335	22386
874.464	22508
874.593	22725
874.722	22500
874.851	22691
874.979	22497
875.108	22656
875.237	22649
875.365	22489
875.494	22641
875.623	22694
875.751	22615
875.88	22641
876.008	22725
876.136	22774
876.265	22991
876.393	23181
876.521	23098
876.65	23105
876.778	23109
876.906	22889
877.034	22877
877.162	22923
877.29	22930
877.418	22984
877.546	22911
877.674	22873
877.802	22972
877.93	22923
878.058	23029
878.185	22923
878.313	22862
878.441	22976
878.568	22721
878.696	22915
878.824	22908
878.951	23124
879.079	23109
879.206	23341
879.333	23056
879.461	23037
879.588	23090
879.715	23102
879.842	23337
879.97	23010
880.097	22744
880.224	22778
880.351	22816
880.478	22793
880.605	22831
880.732	22748
880.859	23140
880.986	22668
881.112	22721
881.239	22584
881.366	22478
881.493	22436
881.619	22382
881.746	22386
881.872	22348
881.999	22360
882.125	22215
882.252	22352
882.378	22318
882.505	22367
882.631	22211
882.757	22112
882.883	22059
883.01	22090
883.136	21926
883.262	21930
883.388	21907
883.514	22048
883.64	22029
883.766	21888
883.892	21728
884.018	21743
884.143	22051
884.269	22040
884.395	21838
884.52	21698
884.646	21660
884.772	21538
884.897	21583
885.023	21667
885.148	21713
885.274	21705
885.399	21759
885.524	21633
885.65	21637
885.775	21755
885.9	21591
886.025	21755
886.15	21774
886.275	21667
886.4	21633
886.525	21671
886.65	21534
886.775	21530
886.9	21587
887.025	21808
887.149	21720
887.274	21515
887.399	21443
887.523	21515
887.648	21393
887.773	21428
887.897	21519
888.021	21515
888.146	21325
888.27	21515
888.395	21622
888.519	21481
888.643	21492
888.767	21515
888.891	21348
889.015	21302
889.139	21382
889.263	21192
889.387	21500
889.511	21344
889.635	21325
889.759	21241
889.883	21192
890.006	21233
890.13	21313
890.254	21237
890.377	21096
890.501	20982
890.624	20952
890.748	21047
890.871	21036
890.995	20697
891.118	20571
891.241	20750
891.364	20830
891.488	20929
891.611	20670
891.734	20823
891.857	20762
891.98	20826
892.103	20804
892.226	20708
892.349	20697
892.471	20549
892.594	20609
892.717	20754
892.839	20716
892.962	20663
893.085	20800
893.207	20568
893.33	20537
893.452	20621
893.575	20689
893.697	20712
893.819	20826
893.941	20864
894.064	20834
894.186	20537
894.308	20655
894.43	20712
894.552	20800
894.674	20716
894.796	20640
894.918	20762
895.04	20720
895.161	20800
895.283	20720
895.405	20522
895.526	20743
895.648	20609
895.769	20727
895.891	20632
896.012	20769
896.134	20845
896.255	20693
896.376	20594
896.498	20781
896.619	20667
896.74	20651
896.861	20720
896.982	21005
897.103	21161
897.224	20899
897.345	20842
897.466	20800
897.587	20895
897.708	20933
897.828	21066
897.949	20902
898.07	20613
898.19	20864
898.311	20990
898.431	20887
898.552	20880
898.672	20918
898.792	20944
898.913	20853
899.033	20762
899.153	20693
899.273	20522
899.393	20701
899.513	20708
899.633	20495
899.753	20629
899.873	20518
899.993	20724
900.113	20549
900.232	20549
900.352	20571
900.472	20484
900.591	20381
900.711	20438
900.83	20278
900.95	20530
901.069	20514
901.189	20347
901.308	20020
901.427	20065
901.546	19986
901.665	20031
901.784	19974
901.904	19951
902.023	19670
902.141	19613
902.26	19552
902.379	19677
902.498	19468
902.617	19411
902.735	19487
902.854	19430
902.973	19369
903.091	19187
903.21	19133
903.328	19088
903.446	18951
903.565	18977
903.683	18894
903.801	18844
903.919	18840
904.038	18844
904.156	18791
904.274	18833
904.392	18585
904.51	18677
904.627	18707
904.745	18730
904.863	18734
904.981	18551
905.098	18376
905.216	18350
905.334	18410
905.451	18369
905.569	18422
905.686	18403
905.803	18311
905.921	18171
906.038	18213
906.155	18174
906.272	18125
906.389	18159
906.506	17988
906.623	17923
906.74	17901
906.857	17817
906.974	17764
907.091	18148
907.208	18007
907.324	17863
907.441	17828
907.557	17623
907.674	17566
907.79	17547
907.907	17661
908.023	17676
908.139	17551
908.256	17668
908.372	17501
908.488	17490
908.604	17455
908.72	17296
908.836	17376
908.952	17239
909.068	17395
909.184	17417
909.3	17410
909.415	17322
909.531	17288
909.647	17113
909.762	17041
909.878	17071
909.993	17147
910.108	17003
910.224	16957
910.339	17025
910.454	16934
910.57	16831
910.685	16790
910.8	17033
910.915	16930
911.03	16828
911.145	16675
911.259	16721
911.374	16618
911.489	16500
911.604	16523
911.718	16363
911.833	16276
911.947	16196
912.062	16284
912.176	16375
912.291	16485
912.405	16344
912.519	16645
912.633	16527
912.748	16462
912.862	16382
912.976	16169
913.09	16067
913.204	16040
913.318	16181
913.431	16246
913.545	16276
913.659	16257
913.772	16051
913.886	16002
914	15968
914.113	16055
914.226	16116
914.34	15949
914.453	15903
914.566	15937
914.68	15770
914.793	15751
914.906	15595
915.019	15496
915.132	15435
915.245	15500
915.358	15542
915.47	15568
915.583	15561
915.696	15595
915.809	15675
915.921	15682
916.034	15507
916.146	15420
916.259	15496
916.371	15458
916.483	15515
916.595	15447
916.708	15500
916.82	15405
916.932	15264
917.044	15367
917.156	15355
917.268	15154
917.38	15218
917.491	15188
917.603	15249
917.715	15256
917.826	15325
917.938	15112
918.049	14990
918.161	15214
918.272	15184
918.384	15203
918.495	15032
918.606	15009
918.717	14902
918.828	14948
918.939	14902
919.05	14811
919.161	14948
919.272	14708
919.383	14796
919.494	14948
919.604	15085
919.715	14887
919.826	14785
919.936	14819
920.047	15051
920.157	14910
920.267	15028
920.378	14876
920.488	14792
920.598	15097
920.708	15195
920.818	15013
920.928	15005
921.038	15135
921.148	15142
921.258	14807
921.368	14731
921.477	14655
921.587	14705
921.697	14514
921.806	14610
921.916	14495
922.025	14339
922.134	14313
922.244	14248
922.353	14256
922.462	14183
922.571	14073
922.68	13917
922.789	13906
922.898	13830
923.007	13837
923.116	13909
923.224	13879
923.333	13852
923.442	13784
923.55	13734
923.659	13696
923.767	13708
923.876	13693
923.984	13803
924.092	13685
924.201	13662
924.309	13578
924.417	13651
924.525	13537
924.633	13567
924.741	14579
924.849	13388
924.956	13518
925.064	13274
925.172	13232
925.279	13377
925.387	13293
925.494	13362
925.602	13457
925.709	13350
925.816	13247
925.924	13221
926.031	13202
926.138	13225
926.245	13373
926.352	13263
926.459	13198
926.566	13213
926.673	13145
926.779	13038
926.886	13038
926.993	12928
927.099	12943
927.206	12787
927.312	12844
927.419	12821
927.525	12863
927.631	12863
927.737	12848
927.843	12650
927.95	12566
928.056	12681
928.162	12700
928.267	12734
928.373	13346
928.479	12696
928.585	12433
928.69	12608
928.796	12711
928.901	12513
929.007	12391
929.112	12475
929.218	12544
929.323	12498
929.428	12448
929.533	12445
929.638	12270
929.743	12407
929.848	12403
929.953	12300
930.058	12213
930.163	12030
930.267	12133
930.372	12182
930.477	11939
930.581	12292
930.685	12106
930.79	11980
930.894	11961
930.998	11958
931.103	12076
931.207	11737
931.311	11608
931.415	11425
931.519	11280
931.623	11315
