Data from test_V78500241_894.txt Node
Date: Fri Mar 25 15:47:59 CST 2022
User: usil
Spectrometer: V785-0024
Trigger mode: 0
Integration Time (sec): 4.000000E-1
Scans to average: 1
Nonlinearity correction enabled: false
Boxcar width: 0
Storing dark spectrum: false
XAxis mode: Wavelengths
Number of Pixels in Spectrum: 1024
>>>>>Begin Spectral Data<<<<<
801.071	28341
801.214	28352
801.356	27968
801.499	27926
801.641	27926
801.783	27964
801.926	28025
802.068	27930
802.211	27918
802.353	27914
802.496	27690
802.638	27682
802.78	27622
802.923	27526
803.065	27622
803.208	27724
803.35	27656
803.492	27583
803.635	27660
803.777	27682
803.919	27857
804.061	28226
804.204	27934
804.346	27873
804.488	27663
804.63	27755
804.773	27766
804.915	27778
805.057	27930
805.199	27907
805.341	27918
805.483	27983
805.626	27907
805.768	27762
805.91	27930
806.052	28013
806.194	27914
806.336	28192
806.478	27987
806.62	28036
806.762	28169
806.904	28234
807.046	28531
807.188	28367
807.33	28394
807.472	28459
807.614	28371
807.756	28527
807.898	28394
808.04	28242
808.182	28249
808.324	28230
808.465	28177
808.607	28550
808.749	28542
808.891	28698
809.033	28888
809.174	28717
809.316	28679
809.458	28660
809.6	28622
809.741	28858
809.883	28869
810.025	28938
810.166	28953
810.308	28961
810.45	28927
810.591	28847
810.733	28736
810.875	28592
811.016	28611
811.158	28607
811.299	28816
811.441	29010
811.582	28873
811.724	28843
811.865	28733
812.007	28546
812.148	28713
812.29	28706
812.431	28767
812.573	29025
812.714	29041
812.855	29220
812.997	29273
813.138	29444
813.279	29334
813.421	29265
813.562	29315
813.703	29162
813.845	28995
813.986	28653
814.127	28516
814.268	28379
814.41	28360
814.551	28360
814.692	28443
814.833	28413
814.974	28474
815.115	28295
815.256	28234
815.397	28276
815.539	28306
815.68	28204
815.821	28128
815.962	28284
816.103	28166
816.244	28128
816.385	27964
816.526	27907
816.666	27838
816.807	27778
816.948	27861
817.089	27732
817.23	27762
817.371	27755
817.512	27686
817.653	27709
817.793	27633
817.934	27728
818.075	27637
818.216	27660
818.356	27663
818.497	27561
818.638	27469
818.778	27427
818.919	27435
819.06	27542
819.2	27671
819.341	27751
819.481	27675
819.622	27846
819.762	28006
819.903	28017
820.043	27972
820.184	27778
820.324	27793
820.465	27838
820.605	27831
820.746	27857
820.886	27705
821.026	27804
821.167	27899
821.307	27869
821.447	27793
821.588	27770
821.728	27587
821.868	27359
822.008	27173
822.149	27142
822.289	27260
822.429	26948
822.569	26921
822.709	26895
822.849	26678
822.99	26788
823.13	26689
823.27	26648
823.41	26541
823.55	26575
823.69	26606
823.83	26575
823.97	26396
824.11	26408
824.25	26301
824.389	26278
824.529	26385
824.669	26366
824.809	26701
824.949	26389
825.089	26453
825.228	26442
825.368	26153
825.508	26282
825.648	26301
825.787	26301
825.927	26351
826.067	26168
826.206	26294
826.346	26362
826.485	26336
826.625	26229
826.765	26336
826.904	26187
827.044	26027
827.183	26161
827.323	25909
827.462	26130
827.601	26065
827.741	25951
827.88	25902
828.02	25887
828.159	25993
828.298	26153
828.437	25966
828.577	25959
828.716	26005
828.855	25936
828.994	25727
829.134	25723
829.273	25738
829.412	25715
829.551	25670
829.69	25635
829.829	25624
829.968	25841
830.107	25681
830.246	25620
830.385	25647
830.524	25677
830.663	25419
830.802	25438
830.941	25362
831.08	25209
831.219	25354
831.357	25354
831.496	25590
831.635	25316
831.774	25118
831.913	25179
832.051	25129
832.19	25053
832.329	25141
832.467	24947
832.606	24966
832.744	24875
832.883	24981
833.022	24825
833.16	24954
833.299	24867
833.437	24916
833.576	25031
833.714	24943
833.852	25164
833.991	25012
834.129	25114
834.267	25114
834.406	24939
834.544	25072
834.682	25080
834.821	25008
834.959	25156
835.097	24920
835.235	24985
835.373	25008
835.511	24962
835.65	24924
835.788	24837
835.926	24688
836.064	24738
836.202	24677
836.34	24726
836.478	25065
836.615	24779
836.753	24863
836.891	24939
837.029	24894
837.167	24715
837.305	24673
837.443	24669
837.58	24681
837.718	24772
837.856	24715
837.993	24555
838.131	24604
838.269	24547
838.406	24544
838.544	24509
838.681	24414
838.819	24262
838.956	24201
839.094	24167
839.231	24197
839.369	24300
839.506	24601
839.643	24186
839.781	24121
839.918	24034
840.055	24087
840.193	24125
840.33	23977
840.467	24030
840.604	24174
840.742	24232
840.879	23965
841.016	23961
841.153	23878
841.29	24289
841.427	23958
841.564	24136
841.701	24098
841.838	23954
841.975	23904
842.112	24049
842.249	23863
842.385	23878
842.522	23996
842.659	23794
842.796	23630
842.933	23703
843.069	23680
843.206	23687
843.343	23760
843.479	23665
843.616	23710
843.752	23539
843.889	23623
844.025	23604
844.162	23634
844.298	23627
844.435	23657
844.571	23486
844.708	23585
844.844	23623
844.98	23707
845.117	23684
845.253	23543
845.389	23524
845.525	23356
845.661	23505
845.798	23235
845.934	23292
846.07	23368
846.206	23288
846.342	23330
846.478	23284
846.614	23010
846.75	22919
846.886	22980
847.022	23022
847.158	23132
847.294	23014
847.429	22995
847.565	23006
847.701	23170
847.837	22763
847.972	22797
848.108	22740
848.244	22854
848.379	22656
848.515	22763
848.65	22603
848.786	22527
848.921	22615
849.057	22702
849.192	22710
849.328	22535
849.463	22607
849.598	22577
849.734	22493
849.869	22413
850.004	22379
850.14	22398
850.275	22447
850.41	22272
850.545	22306
850.68	22303
850.815	22478
850.95	22348
851.085	22379
851.22	22455
851.355	22382
851.49	22310
851.625	22291
851.76	22314
851.895	22276
852.03	22295
852.165	22363
852.299	22344
852.434	22413
852.569	22303
852.703	22314
852.838	22440
852.973	22455
853.107	22561
853.242	22337
853.376	22299
853.511	22070
853.645	22131
853.78	22249
853.914	22261
854.048	22048
854.183	22169
854.317	22150
854.451	22413
854.585	22284
854.72	22211
854.854	22143
854.988	22162
855.122	22192
855.256	21975
855.39	22196
855.524	22185
855.658	22223
855.792	22257
855.926	22112
856.06	22367
856.194	22249
856.327	22105
856.461	22032
856.595	22158
856.729	22150
856.862	22284
856.996	22303
857.13	22204
857.263	22341
857.397	22367
857.53	22143
857.664	22211
857.797	22310
857.931	22318
858.064	22181
858.197	22219
858.331	22181
858.464	22211
858.597	22051
858.731	22116
858.864	22173
858.997	22162
859.13	22226
859.263	22234
859.396	22207
859.529	22192
859.662	22135
859.795	22139
859.928	22150
860.061	22341
860.194	22341
860.327	22280
860.46	22181
860.592	22318
860.725	22424
860.858	22272
860.99	22196
861.123	22101
861.256	22154
861.388	22204
861.521	22725
861.653	22070
861.786	21964
861.918	21941
862.05	22078
862.183	22124
862.315	22169
862.447	22105
862.58	22070
862.712	21846
862.844	21854
862.976	22055
863.108	22013
863.24	22333
863.372	21812
863.504	21793
863.636	21915
863.768	22013
863.9	21911
864.032	21835
864.164	21793
864.296	21854
864.428	21949
864.559	21987
864.691	21895
864.823	21865
864.954	21827
865.086	21766
865.217	21827
865.349	21690
865.48	21873
865.612	21755
865.743	21823
865.875	21785
866.006	21778
866.137	21774
866.269	21884
866.4	21732
866.531	21736
866.662	21622
866.793	21720
866.924	21736
867.055	21625
867.186	21648
867.317	21572
867.448	21781
867.579	21618
867.71	21625
867.841	21675
867.972	21762
868.103	21713
868.233	21698
868.364	21686
868.495	21713
868.625	21857
868.756	22063
868.886	21804
869.017	21949
869.147	22032
869.278	22055
869.408	21934
869.539	21899
869.669	22147
869.799	21899
869.929	22120
870.06	22017
870.19	22211
870.32	22234
870.45	22215
870.58	22322
870.71	22367
870.84	22421
870.97	22382
871.1	22390
871.23	22500
871.36	22512
871.489	22405
871.619	22409
871.749	22535
871.879	22691
872.008	22573
872.138	22546
872.267	22546
872.397	22413
872.526	22386
872.656	22459
872.785	22379
872.915	22554
873.044	22649
873.173	22546
873.303	22755
873.432	22512
873.561	22557
873.69	22447
873.819	22584
873.948	22588
874.077	22565
874.206	22531
874.335	22519
874.464	22641
874.593	22706
874.722	22672
874.851	22820
874.979	22755
875.108	22820
875.237	22683
875.365	22725
875.494	22675
875.623	22839
875.751	22634
875.88	22771
876.008	22877
876.136	22915
876.265	23277
876.393	23307
876.521	23307
876.65	23250
876.778	23303
876.906	23170
877.034	22938
877.162	23140
877.29	23037
877.418	23155
877.546	22987
877.674	23022
877.802	23155
877.93	23090
878.058	23117
878.185	22953
878.313	23113
878.441	23090
878.568	22927
878.696	22957
878.824	23094
878.951	23330
879.079	23250
879.206	23372
879.333	23284
879.461	23052
879.588	23212
879.715	23204
879.842	23474
879.97	23246
880.097	22881
880.224	22885
880.351	22984
880.478	22881
880.605	22847
880.732	22828
880.859	23090
880.986	22984
881.112	22843
881.239	22835
881.366	22542
881.493	22535
881.619	22550
881.746	22599
881.872	22481
881.999	22519
882.125	22428
882.252	22447
882.378	22459
882.505	22557
882.631	22325
882.757	22181
882.883	22040
883.01	22143
883.136	22078
883.262	22154
883.388	22048
883.514	22246
883.64	22257
883.766	22063
883.892	21930
884.018	21876
884.143	22124
884.269	22139
884.395	21937
884.52	21808
884.646	21869
884.772	21622
884.897	21724
885.023	21709
885.148	21819
885.274	21892
885.399	21774
885.524	21827
885.65	21720
885.775	21861
885.9	21743
886.025	21983
886.15	21857
886.275	21686
886.4	21682
886.525	21800
886.65	21755
886.775	21671
886.9	21876
887.025	21941
887.149	21618
887.274	21606
887.399	21542
887.523	21557
887.648	21458
887.773	21477
887.897	21633
888.021	21614
888.146	21580
888.27	21606
888.395	21663
888.519	21564
888.643	21561
888.767	21572
888.891	21382
889.015	21268
889.139	21435
889.263	21378
889.387	21583
889.511	21637
889.635	21500
889.759	21264
889.883	21325
890.006	21397
890.13	21386
890.254	21291
890.377	21256
890.501	21173
890.624	21009
890.748	21108
890.871	21036
890.995	20979
891.118	20864
891.241	20857
891.364	21001
891.488	20944
891.611	20899
891.734	20902
891.857	20910
891.98	21020
892.103	20952
892.226	20823
892.349	20853
892.471	20762
892.594	20857
892.717	20861
892.839	20842
892.962	20826
893.085	20853
893.207	20842
893.33	20777
893.452	20590
893.575	20887
893.697	20834
893.819	20914
893.941	20967
894.064	20952
894.186	20705
894.308	20686
894.43	20906
894.552	20918
894.674	20800
894.796	20648
894.918	20716
895.04	20811
895.161	20834
895.283	20872
895.405	20735
895.526	20739
895.648	20667
895.769	20804
895.891	20781
896.012	20925
896.134	20781
896.255	20777
896.376	20724
896.498	20781
896.619	20788
896.74	20769
896.861	20807
896.982	21119
897.103	21351
897.224	20956
897.345	21032
897.466	20948
897.587	20998
897.708	21032
897.828	21070
897.949	20963
898.07	20823
898.19	20921
898.311	21119
898.431	20963
898.552	20910
898.672	21100
898.792	21131
898.913	21100
899.033	20773
899.153	20773
899.273	20651
899.393	20705
899.513	20800
899.633	20609
899.753	20735
899.873	20640
899.993	20693
900.113	20678
900.232	20667
900.352	20678
900.472	20571
900.591	20355
900.711	20427
900.83	20358
900.95	20552
901.069	20545
901.189	20324
901.308	20191
901.427	19951
901.546	20115
901.665	20206
901.784	20054
901.904	20008
902.023	19814
902.141	19609
902.26	19674
902.379	19632
902.498	19616
902.617	19548
902.735	19582
902.854	19510
902.973	19540
903.091	19285
903.21	19209
903.328	19187
903.446	19183
903.565	19110
903.683	18916
903.801	18951
903.919	19099
904.038	18867
904.156	18844
904.274	18882
904.392	18829
904.51	18772
904.627	18787
904.745	18863
904.863	18852
904.981	18509
905.098	18570
905.216	18433
905.334	18517
905.451	18464
905.569	18441
905.686	18399
905.803	18380
905.921	18228
906.038	18300
906.155	18201
906.272	18148
906.389	18106
906.506	17988
906.623	18041
906.74	17920
906.857	17813
906.974	17821
907.091	18038
907.208	18243
907.324	17996
907.441	17866
907.557	17802
907.674	17691
907.79	17589
907.907	17661
908.023	17760
908.139	17733
908.256	17539
908.372	17638
908.488	17562
908.604	17627
908.72	17471
908.836	17398
908.952	17448
909.068	17444
909.184	17471
909.3	17414
909.415	17402
909.531	17391
909.647	17162
909.762	17098
909.878	17147
909.993	17143
910.108	17025
910.224	17136
910.339	17094
910.454	16889
910.57	16927
910.685	16949
910.8	17083
910.915	17006
911.03	16946
911.145	16759
911.259	16675
911.374	16752
911.489	16668
911.604	16478
911.718	16474
911.833	16485
911.947	16310
912.062	16291
912.176	16360
912.291	16421
912.405	16500
912.519	16626
912.633	16626
912.748	16535
912.862	16386
912.976	16253
913.09	16131
913.204	16200
913.318	16173
913.431	16382
913.545	16246
913.659	16276
913.772	16261
913.886	16120
914	16036
914.113	16143
914.226	16120
914.34	16048
914.453	15888
914.566	16071
914.68	15857
914.793	15979
914.906	15759
915.019	15618
915.132	15622
915.245	15717
915.358	15652
915.47	15641
915.583	15606
915.696	15599
915.809	15724
915.921	15743
916.034	15618
916.146	15568
916.259	15572
916.371	15576
916.483	15519
916.595	15538
916.708	15488
916.82	15485
916.932	15431
917.044	15447
917.156	15321
917.268	15260
917.38	15359
917.491	15245
917.603	15389
917.715	15306
917.826	15389
917.938	15321
918.049	15112
918.161	15218
918.272	15256
918.384	15386
918.495	15207
918.606	14990
918.717	15058
918.828	15104
918.939	15013
919.05	14967
919.161	15055
919.272	14765
919.383	14800
919.494	15104
919.604	15287
919.715	15062
919.826	14880
919.936	14948
920.047	14990
920.157	14918
920.267	15119
920.378	15024
920.488	14975
920.598	15116
920.708	15287
920.818	15032
920.928	15188
921.038	15264
921.148	15252
921.258	14830
921.368	14773
921.477	14712
921.587	14693
921.697	14587
921.806	14743
921.916	14537
922.025	14358
922.134	14377
922.244	14225
922.353	14396
922.462	14153
922.571	14153
922.68	14058
922.789	13997
922.898	13970
923.007	13921
923.116	14008
923.224	13928
923.333	14016
923.442	13864
923.55	13761
923.659	13898
923.767	13932
923.876	13727
923.984	13849
924.092	13704
924.201	13765
924.309	13674
924.417	13666
924.525	13685
924.633	13643
924.741	14541
924.849	13483
924.956	13590
925.064	13350
925.172	13327
925.279	13407
925.387	13312
925.494	13377
925.602	13540
925.709	13358
925.816	13221
925.924	13324
926.031	13384
926.138	13232
926.245	13358
926.352	13206
926.459	13263
926.566	13346
926.673	13206
926.779	13126
926.886	13110
926.993	12966
927.099	12905
927.206	12802
927.312	12867
927.419	12947
927.525	12977
927.631	12905
927.737	12760
927.843	12719
927.95	12620
928.056	12726
928.162	12760
928.267	12730
928.373	13331
928.479	12787
928.585	12525
928.69	12719
928.796	12764
928.901	12616
929.007	12429
929.112	12627
929.218	12608
929.323	12460
929.428	12372
929.533	12623
929.638	12448
929.743	12365
929.848	12350
929.953	12319
930.058	12281
930.163	12140
930.267	12136
930.372	12266
930.477	12076
930.581	12350
930.685	12144
930.79	12057
930.894	12015
930.998	12064
931.103	12083
931.207	11764
931.311	11627
931.415	11604
931.519	11425
931.623	11345
