Data from test_V78500241_3280.txt Node
Date: Fri Mar 25 16:04:31 CST 2022
User: usil
Spectrometer: V785-0024
Trigger mode: 0
Integration Time (sec): 4.000000E-1
Scans to average: 1
Nonlinearity correction enabled: false
Boxcar width: 0
Storing dark spectrum: false
XAxis mode: Wavelengths
Number of Pixels in Spectrum: 1024
>>>>>Begin Spectral Data<<<<<
801.071	28691
801.214	28626
801.356	28341
801.499	28303
801.641	28128
801.783	28303
801.926	28386
802.068	28249
802.211	28055
802.353	28154
802.496	28002
802.638	27975
802.78	27892
802.923	27781
803.065	27880
803.208	27968
803.35	27838
803.492	28059
803.635	28021
803.777	28010
803.919	28078
804.061	28462
804.204	28150
804.346	28051
804.488	28074
804.63	28265
804.773	28059
804.915	28417
805.057	28379
805.199	28204
805.341	28280
805.483	28291
805.626	28386
805.768	28173
805.91	28253
806.052	28322
806.194	28211
806.336	28592
806.478	28371
806.62	28367
806.762	28550
806.904	28508
807.046	28850
807.188	28831
807.33	28790
807.472	28839
807.614	28782
807.756	28809
807.898	28660
808.04	28588
808.182	28386
808.324	28702
808.465	28634
808.607	28843
808.749	28881
808.891	29170
809.033	29071
809.174	29147
809.316	28999
809.458	28919
809.6	29029
809.741	29132
809.883	29185
810.025	29372
810.166	29284
810.308	29299
810.45	29231
810.591	29166
810.733	28946
810.875	28980
811.016	28900
811.158	28858
811.299	29124
811.441	29143
811.582	29208
811.724	28919
811.865	28942
812.007	28923
812.148	29067
812.29	29094
812.431	29220
812.573	29463
812.714	29444
812.855	29482
812.997	29684
813.138	29832
813.279	29585
813.421	29585
813.562	29474
813.703	29471
813.845	29284
813.986	29128
814.127	28862
814.268	28733
814.41	28755
814.551	28740
814.692	28653
814.833	28698
814.974	28672
815.115	28752
815.256	28736
815.397	28645
815.539	28675
815.68	28527
815.821	28455
815.962	28603
816.103	28618
816.244	28459
816.385	28333
816.526	28379
816.666	28158
816.807	27865
816.948	28074
817.089	28147
817.23	27949
817.371	27888
817.512	28109
817.653	28048
817.793	27972
817.934	28188
818.075	28059
818.216	28032
818.356	28097
818.497	28082
818.638	27857
818.778	27873
818.919	27766
819.06	27823
819.2	27949
819.341	28055
819.481	28112
819.622	28356
819.762	28390
819.903	28497
820.043	28367
820.184	28131
820.324	28238
820.465	28230
820.605	28329
820.746	28219
820.886	28131
821.026	28185
821.167	28162
821.307	28295
821.447	27941
821.588	28040
821.728	27838
821.868	27789
822.008	27485
822.149	27538
822.289	27523
822.429	27367
822.569	27249
822.709	27207
822.849	27165
822.99	27036
823.13	27024
823.27	26998
823.41	26796
823.55	26777
823.69	26921
823.83	26906
823.97	26819
824.11	26655
824.25	26773
824.389	26743
824.529	26849
824.669	26739
824.809	26792
824.949	26735
825.089	26823
825.228	26735
825.368	26492
825.508	26469
825.648	26545
825.787	26606
825.927	26739
826.067	26598
826.206	26602
826.346	26644
826.485	26594
826.625	26552
826.765	26792
826.904	26556
827.044	26442
827.183	26336
827.323	26427
827.462	26362
827.601	26408
827.741	26313
827.88	26317
828.02	26248
828.159	26294
828.298	26347
828.437	26294
828.577	26214
828.716	26278
828.855	26054
828.994	26176
829.134	26020
829.273	25936
829.412	25803
829.551	25944
829.69	26046
829.829	26031
829.968	26012
830.107	26024
830.246	26016
830.385	25921
830.524	25849
830.663	25681
830.802	25731
830.941	25563
831.08	25624
831.219	25666
831.357	25841
831.496	25913
831.635	25731
831.774	25499
831.913	25479
832.051	25430
832.19	25304
832.329	25350
832.467	25365
832.606	25263
832.744	25164
832.883	25346
833.022	25190
833.16	25377
833.299	25316
833.437	25236
833.576	25289
833.714	25400
833.852	25327
833.991	25460
834.129	25365
834.267	25460
834.406	25411
834.544	25449
834.682	25282
834.821	25221
834.959	25362
835.097	25202
835.235	25407
835.373	25198
835.511	25266
835.65	25171
835.788	25126
835.926	25103
836.064	24867
836.202	24916
836.34	25232
836.478	25156
836.615	25225
836.753	25183
836.891	25301
837.029	25202
837.167	25148
837.305	25046
837.443	25023
837.58	25015
837.718	25171
837.856	25164
837.993	24882
838.131	24970
838.269	24894
838.406	24848
838.544	24829
838.681	24692
838.819	24650
838.956	24384
839.094	24521
839.231	24528
839.369	24715
839.506	24798
839.643	24840
839.781	24486
839.918	24460
840.055	24475
840.193	24262
840.33	24319
840.467	24243
840.604	24399
840.742	24741
840.879	24292
841.016	24254
841.153	24228
841.29	24384
841.427	24296
841.564	24372
841.701	24281
841.838	24254
841.975	24228
842.112	24319
842.249	24186
842.385	24083
842.522	24308
842.659	24152
842.796	24087
842.933	24232
843.069	24034
843.206	24140
843.343	24197
843.479	24224
843.616	24232
843.752	23897
843.889	23824
844.025	24041
844.162	23904
844.298	23988
844.435	23878
844.571	23878
844.708	23965
844.844	24007
844.98	23984
845.117	23977
845.253	23809
845.389	23882
845.525	23843
845.661	23802
845.798	23691
845.934	23630
846.07	23596
846.206	23657
846.342	23718
846.478	23554
846.614	23398
846.75	23235
846.886	23296
847.022	23497
847.158	23410
847.294	23246
847.429	23383
847.565	23204
847.701	23577
847.837	23064
847.972	23090
848.108	23060
848.244	23098
848.379	22942
848.515	22900
848.65	22850
848.786	23010
848.921	22896
849.057	23159
849.192	23136
849.328	22892
849.463	23014
849.598	22877
849.734	22835
849.869	22729
850.004	22653
850.14	22721
850.275	22763
850.41	22637
850.545	22592
850.68	22660
850.815	22744
850.95	22767
851.085	22972
851.22	22736
851.355	22653
851.49	22645
851.625	22759
851.76	22679
851.895	22565
852.03	22656
852.165	22782
852.299	22645
852.434	22828
852.569	22725
852.703	22710
852.838	22839
852.973	22858
853.107	22740
853.242	22607
853.376	22584
853.511	22352
853.645	22481
853.78	22592
853.914	22565
854.048	22462
854.183	22314
854.317	22538
854.451	22653
854.585	22679
854.72	22573
854.854	22729
854.988	22352
855.122	22466
855.256	22447
855.39	22630
855.524	22664
855.658	22622
855.792	22504
855.926	22493
856.06	22653
856.194	22672
856.327	22512
856.461	22440
856.595	22432
856.729	22615
856.862	22637
856.996	22523
857.13	22618
857.263	22618
857.397	22611
857.53	22443
857.664	22584
857.797	22512
857.931	22580
858.064	22428
858.197	22721
858.331	22542
858.464	22405
858.597	22447
858.731	22649
858.864	22500
858.997	22561
859.13	22516
859.263	22554
859.396	22611
859.529	22424
859.662	22447
859.795	22481
859.928	22497
860.061	22713
860.194	22660
860.327	22577
860.46	22500
860.592	22607
860.725	22641
860.858	22489
860.99	22481
861.123	22542
861.256	22478
861.388	22508
861.521	23041
861.653	22367
861.786	22356
861.918	22306
862.05	22462
862.183	22516
862.315	22470
862.447	22607
862.58	22436
862.712	22394
862.844	22177
862.976	22322
863.108	22238
863.24	22702
863.372	22211
863.504	22173
863.636	22287
863.768	22249
863.9	22276
864.032	22093
864.164	22204
864.296	22287
864.428	22363
864.559	22356
864.691	22230
864.823	22238
864.954	22234
865.086	22150
865.217	22219
865.349	22154
865.48	22139
865.612	22105
865.743	22382
865.875	22154
866.006	22116
866.137	22116
866.269	22226
866.4	22185
866.531	22124
866.662	21991
866.793	22055
866.924	22147
867.055	22013
867.186	22223
867.317	22124
867.448	21987
867.579	22090
867.71	21941
867.841	22013
867.972	22097
868.103	21930
868.233	22025
868.364	22143
868.495	22162
868.625	22356
868.756	22337
868.886	22234
869.017	22287
869.147	22424
869.278	22310
869.408	22447
869.539	22204
869.669	22417
869.799	22474
869.929	22417
870.06	22356
870.19	22550
870.32	22618
870.45	22725
870.58	22698
870.71	22824
870.84	22816
870.97	22755
871.1	22634
871.23	22900
871.36	22892
871.489	22733
871.619	22839
871.749	23022
871.879	22972
872.008	23022
872.138	23064
872.267	22831
872.397	22797
872.526	22919
872.656	22759
872.785	22831
872.915	23003
873.044	22949
873.173	23025
873.303	23056
873.432	22854
873.561	23025
873.69	22869
873.819	23006
873.948	23075
874.077	22942
874.206	22968
874.335	22915
874.464	23113
874.593	23185
874.722	23064
874.851	23185
874.979	23071
875.108	23235
875.237	23067
875.365	23025
875.494	23022
875.623	23265
875.751	23033
875.88	23117
876.008	23330
876.136	23425
876.265	23653
876.393	23691
876.521	23608
876.65	23668
876.778	23589
876.906	23433
877.034	23467
877.162	23490
877.29	23368
877.418	23486
877.546	23425
877.674	23501
877.802	23512
877.93	23395
878.058	23395
878.185	23376
878.313	23398
878.441	23448
878.568	23379
878.696	23307
878.824	23524
878.951	23600
879.079	23585
879.206	23798
879.333	23551
879.461	23421
879.588	23562
879.715	23668
879.842	23703
879.97	23425
880.097	23200
880.224	23372
880.351	23410
880.478	23299
880.605	23277
880.732	23395
880.859	23581
880.986	23474
881.112	23212
881.239	23181
881.366	22991
881.493	22995
881.619	22930
881.746	22885
881.872	22862
881.999	22896
882.125	22790
882.252	22938
882.378	22778
882.505	22831
882.631	22755
882.757	22478
882.883	22721
883.01	22702
883.136	22440
883.262	22352
883.388	22314
883.514	22641
883.64	22653
883.766	22402
883.892	22322
884.018	22398
884.143	22413
884.269	22645
884.395	22185
884.52	22207
884.646	22242
884.772	22112
884.897	22044
885.023	22226
885.148	22379
885.274	22219
885.399	22348
885.524	22097
885.65	22124
885.775	22090
885.9	22242
886.025	22253
886.15	22329
886.275	22120
886.4	22002
886.525	22196
886.65	22067
886.775	22090
886.9	22272
887.025	22276
887.149	22280
887.274	21968
887.399	21937
887.523	21915
887.648	21953
887.773	21781
887.897	21979
888.021	21922
888.146	21880
888.27	21915
888.395	21998
888.519	21964
888.643	21934
888.767	21835
888.891	21724
889.015	21743
889.139	21854
889.263	21694
889.387	21797
889.511	21956
889.635	21819
889.759	21819
889.883	21698
890.006	21595
890.13	21755
890.254	21698
890.377	21557
890.501	21454
890.624	21481
890.748	21500
890.871	21268
890.995	21264
891.118	21207
891.241	21302
891.364	21367
891.488	21310
891.611	21298
891.734	21268
891.857	21348
891.98	21412
892.103	21294
892.226	21294
892.349	21233
892.471	21222
892.594	21165
892.717	21218
892.839	21146
892.962	21112
893.085	21233
893.207	21100
893.33	21058
893.452	21119
893.575	21188
893.697	21070
893.819	21332
893.941	21306
894.064	21325
894.186	21104
894.308	21146
894.43	21310
894.552	21256
894.674	21157
894.796	21096
894.918	21024
895.04	21108
895.161	21081
895.283	21112
895.405	21104
895.526	21024
895.648	21070
895.769	21169
895.891	21112
896.012	21211
896.134	21127
896.255	21176
896.376	21104
896.498	21188
896.619	21043
896.74	21032
896.861	21077
896.982	21488
897.103	21500
897.224	21287
897.345	21283
897.466	21169
897.587	21241
897.708	21530
897.828	21370
897.949	21260
898.07	21169
898.19	21268
898.311	21363
898.431	21291
898.552	21310
898.672	21313
898.792	21408
898.913	21412
899.033	21169
899.153	21142
899.273	21047
899.393	20998
899.513	21062
899.633	21047
899.753	21135
899.873	20990
899.993	21089
900.113	21074
900.232	21005
900.352	20971
900.472	20845
900.591	20807
900.711	20830
900.83	20769
900.95	20967
901.069	21093
901.189	20590
901.308	20564
901.427	20446
901.546	20393
901.665	20309
901.784	20374
901.904	20358
902.023	20259
902.141	20058
902.26	19894
902.379	19928
902.498	19936
902.617	19856
902.735	19940
902.854	19894
902.973	19811
903.091	19628
903.21	19632
903.328	19495
903.446	19460
903.565	19308
903.683	19274
903.801	19198
903.919	19304
904.038	19266
904.156	19065
904.274	19190
904.392	18962
904.51	19183
904.627	19088
904.745	19122
904.863	19046
904.981	18913
905.098	18707
905.216	18810
905.334	18791
905.451	18692
905.569	18692
905.686	18840
905.803	18726
905.921	18464
906.038	18646
906.155	18646
906.272	18509
906.389	18540
906.506	18304
906.623	18372
906.74	18281
906.857	18110
906.974	18235
907.091	18353
907.208	18372
907.324	18315
907.441	18190
907.557	17973
907.674	18148
907.79	17950
907.907	17882
908.023	18049
908.139	17954
908.256	17927
908.372	17977
908.488	17817
908.604	17828
908.72	17668
908.836	17779
908.952	17710
909.068	17767
909.184	17813
909.3	17783
909.415	17824
909.531	17695
909.647	17414
909.762	17467
909.878	17410
909.993	17463
910.108	17337
910.224	17383
910.339	17391
910.454	17280
910.57	17292
910.685	17239
910.8	17337
910.915	17334
911.03	17189
911.145	17067
911.259	17041
911.374	17014
911.489	16953
911.604	16949
911.718	16694
911.833	16755
911.947	16668
912.062	16626
912.176	16816
912.291	16771
912.405	16675
912.519	16889
912.633	16839
912.748	16645
912.862	16733
912.976	16603
913.09	16523
913.204	16573
913.318	16519
913.431	16672
913.545	16683
913.659	16603
913.772	16413
913.886	16337
914	16306
914.113	16424
914.226	16447
914.34	16348
914.453	16131
914.566	16306
914.68	16280
914.793	16166
914.906	16101
915.019	15926
915.132	15800
915.245	15926
915.358	15941
915.47	15987
915.583	15857
915.696	15934
915.809	15964
915.921	15964
916.034	15911
916.146	15732
916.259	15797
916.371	15903
916.483	15873
916.595	15759
916.708	15762
916.82	15732
916.932	15637
917.044	15572
917.156	15739
917.268	15557
917.38	15496
917.491	15485
917.603	15549
917.715	15595
917.826	15526
917.938	15485
918.049	15370
918.161	15466
918.272	15614
918.384	15610
918.495	15530
918.606	15344
918.717	15123
918.828	15241
918.939	15336
919.05	15161
919.161	15237
919.272	15142
919.383	15188
919.494	15386
919.604	15504
919.715	15317
919.826	15077
919.936	15214
920.047	15287
920.157	15165
920.267	15420
920.378	15184
920.488	15218
920.598	15397
920.708	15530
920.818	15332
920.928	15329
921.038	15477
921.148	15462
921.258	15154
921.368	15051
921.477	14944
921.587	14895
921.697	14750
921.806	15001
921.916	14765
922.025	14663
922.134	14674
922.244	14526
922.353	14549
922.462	14442
922.571	14370
922.68	14332
922.789	14176
922.898	14240
923.007	14145
923.116	14161
923.224	14263
923.333	14180
923.442	14050
923.55	13993
923.659	13986
923.767	14100
923.876	13932
923.984	14050
924.092	14062
924.201	13951
924.309	13864
924.417	13986
924.525	13845
924.633	13898
924.741	14617
924.849	13708
924.956	13795
925.064	13674
925.172	13578
925.279	13597
925.387	13575
925.494	13624
925.602	13636
925.709	13594
925.816	13525
925.924	13514
926.031	13575
926.138	13605
926.245	13620
926.352	13411
926.459	13514
926.566	13613
926.673	13487
926.779	13350
926.886	13346
926.993	13198
927.099	13187
927.206	13126
927.312	13031
927.419	13187
927.525	13042
927.631	13168
927.737	13065
927.843	13031
927.95	12913
928.056	12958
928.162	12962
928.267	13000
928.373	13426
928.479	12996
928.585	12757
928.69	12989
928.796	12966
928.901	12779
929.007	12631
929.112	12837
929.218	12745
929.323	12772
929.428	12593
929.533	12730
929.638	12665
929.743	12627
929.848	12662
929.953	12585
930.058	12460
930.163	12410
930.267	12342
930.372	12502
930.477	12251
930.581	12551
930.685	12388
930.79	12209
930.894	12220
930.998	12228
931.103	12311
931.207	11927
931.311	11977
931.415	11817
931.519	11596
931.623	11638
