Data from test_V78500241_2829.txt Node
Date: Fri Mar 25 16:01:23 CST 2022
User: usil
Spectrometer: V785-0024
Trigger mode: 0
Integration Time (sec): 4.000000E-1
Scans to average: 1
Nonlinearity correction enabled: false
Boxcar width: 0
Storing dark spectrum: false
XAxis mode: Wavelengths
Number of Pixels in Spectrum: 1024
>>>>>Begin Spectral Data<<<<<
801.071	29090
801.214	29185
801.356	28919
801.499	28915
801.641	28835
801.783	28946
801.926	28915
802.068	28793
802.211	28877
802.353	28839
802.496	28546
802.638	28554
802.78	28569
802.923	28459
803.065	28394
803.208	28417
803.35	28470
803.492	28782
803.635	28641
803.777	28645
803.919	28790
804.061	28911
804.204	28778
804.346	28725
804.488	28793
804.63	28706
804.773	28653
804.915	28797
805.057	28824
805.199	28812
805.341	28824
805.483	29102
805.626	28923
805.768	28835
805.91	28866
806.052	29098
806.194	28850
806.336	28972
806.478	28949
806.62	28892
806.762	29006
806.904	29398
807.046	29505
807.188	29547
807.33	29512
807.472	29486
807.614	29345
807.756	29326
807.898	29303
808.04	29212
808.182	29170
808.324	29303
808.465	29280
808.607	29490
808.749	29668
808.891	29790
809.033	29764
809.174	29661
809.316	29707
809.458	29790
809.6	29448
809.741	29832
809.883	29798
810.025	29973
810.166	30049
810.308	29923
810.45	29942
810.591	29874
810.733	29821
810.875	29718
811.016	29600
811.158	29680
811.299	29745
811.441	29794
811.582	29821
811.724	29627
811.865	29566
812.007	29676
812.148	29790
812.29	29771
812.431	29939
812.573	30102
812.714	30133
812.855	30235
812.997	30315
813.138	30433
813.279	30456
813.421	30323
813.562	30216
813.703	30117
813.845	29828
813.986	29608
814.127	29524
814.268	29425
814.41	29512
814.551	29375
814.692	29585
814.833	29334
814.974	29482
815.115	29440
815.256	29235
815.397	29212
815.539	29185
815.68	29121
815.821	29341
815.962	29284
816.103	29200
816.244	29083
816.385	28915
816.526	28957
816.666	28866
816.807	28675
816.948	28763
817.089	28862
817.23	28782
817.371	28782
817.512	28710
817.653	28752
817.793	28740
817.934	28664
818.075	28805
818.216	28774
818.356	28626
818.497	28569
818.638	28577
818.778	28554
818.919	28470
819.06	28645
819.2	28596
819.341	28831
819.481	28812
819.622	28961
819.762	29086
819.903	29033
820.043	28919
820.184	28991
820.324	28812
820.465	28900
820.605	28980
820.746	28816
820.886	28656
821.026	28896
821.167	28782
821.307	28869
821.447	28752
821.588	28786
821.728	28596
821.868	28318
822.008	28242
822.149	28207
822.289	28325
822.429	27972
822.569	27949
822.709	27766
822.849	27968
822.99	27759
823.13	27606
823.27	27724
823.41	27500
823.55	27462
823.69	27492
823.83	27743
823.97	27485
824.11	27386
824.25	27344
824.389	27496
824.529	27606
824.669	27370
824.809	27618
824.949	27511
825.089	27370
825.228	27348
825.368	27207
825.508	27218
825.648	27298
825.787	27344
825.927	27424
826.067	27340
826.206	27275
826.346	27332
826.485	27435
826.625	27310
826.765	27389
826.904	27355
827.044	27032
827.183	27214
827.323	26967
827.462	27047
827.601	27093
827.741	26880
827.88	27043
828.02	26868
828.159	26944
828.298	27108
828.437	26933
828.577	27039
828.716	27104
828.855	26929
828.994	26750
829.134	26705
829.273	26731
829.412	26625
829.551	26727
829.69	26651
829.829	26739
829.968	26845
830.107	26788
830.246	26727
830.385	26644
830.524	26731
830.663	26465
830.802	26377
830.941	26438
831.08	26195
831.219	26282
831.357	26404
831.496	26492
831.635	26275
831.774	26130
831.913	26077
832.051	26077
832.19	26062
832.329	26005
832.467	25997
832.606	25921
832.744	25826
832.883	25864
833.022	25989
833.16	26016
833.299	25978
833.437	25944
833.576	26054
833.714	26046
833.852	26046
833.991	26073
834.129	26073
834.267	26008
834.406	25997
834.544	26046
834.682	25978
834.821	25913
834.959	26122
835.097	25921
835.235	26062
835.373	25974
835.511	25940
835.65	25875
835.788	25830
835.926	25784
836.064	25582
836.202	25666
836.34	25837
836.478	26016
836.615	25700
836.753	25670
836.891	25784
837.029	25833
837.167	25803
837.305	25723
837.443	25670
837.58	25738
837.718	25769
837.856	25731
837.993	25708
838.131	25613
838.269	25312
838.406	25575
838.544	25521
838.681	25388
838.819	25171
838.956	25084
839.094	25244
839.231	25194
839.369	25160
839.506	25468
839.643	25491
839.781	25042
839.918	25129
840.055	25152
840.193	25046
840.33	24920
840.467	25107
840.604	25065
840.742	25240
840.879	24924
841.016	24928
841.153	24920
841.29	25187
841.427	24992
841.564	25103
841.701	25004
841.838	24962
841.975	24932
842.112	24924
842.249	24878
842.385	24741
842.522	24859
842.659	24722
842.796	24768
842.933	24871
843.069	24741
843.206	24681
843.343	24886
843.479	24703
843.616	24627
843.752	24566
843.889	24582
844.025	24738
844.162	24475
844.298	24692
844.435	24445
844.571	24574
844.708	24650
844.844	24856
844.98	24616
845.117	24608
845.253	24460
845.389	24551
845.525	24308
845.661	24452
845.798	24213
845.934	24414
846.07	24194
846.206	24346
846.342	24407
846.478	24213
846.614	24190
846.75	23984
846.886	23961
847.022	24060
847.158	24098
847.294	23920
847.429	24045
847.565	23996
847.701	24213
847.837	23722
847.972	23676
848.108	23733
848.244	23798
848.379	23570
848.515	23687
848.65	23524
848.786	23638
848.921	23611
849.057	23638
849.192	23703
849.328	23558
849.463	23558
849.598	23452
849.734	23501
849.869	23512
850.004	23360
850.14	23490
850.275	23379
850.41	23265
850.545	23337
850.68	23326
850.815	23383
850.95	23216
851.085	23581
851.22	23379
851.355	23364
851.49	23280
851.625	23288
851.76	23204
851.895	23273
852.03	23204
852.165	23299
852.299	23303
852.434	23307
852.569	23326
852.703	23360
852.838	23444
852.973	23436
853.107	23535
853.242	23277
853.376	23197
853.511	23086
853.645	23064
853.78	23204
853.914	23143
854.048	23124
854.183	23200
854.317	23155
854.451	23311
854.585	23132
854.72	23258
854.854	23162
854.988	23075
855.122	23132
855.256	23197
855.39	23124
855.524	23299
855.658	23212
855.792	23147
855.926	23185
856.06	23178
856.194	23090
856.327	23178
856.461	23079
856.595	23067
856.729	23109
856.862	23307
856.996	23330
857.13	23185
857.263	23296
857.397	23208
857.53	23181
857.664	23227
857.797	23064
857.931	23254
858.064	23250
858.197	23181
858.331	23140
858.464	23098
858.597	23025
858.731	23231
858.864	23079
858.997	22946
859.13	23151
859.263	23181
859.396	23212
859.529	23086
859.662	23086
859.795	23162
859.928	23223
860.061	23356
860.194	23444
860.327	23208
860.46	23334
860.592	23334
860.725	23307
860.858	23277
860.99	23159
861.123	23147
861.256	23083
861.388	23193
861.521	23893
861.653	23083
861.786	22854
861.918	22881
862.05	23124
862.183	23014
862.315	23067
862.447	23200
862.58	23079
862.712	22843
862.844	22862
862.976	22923
863.108	22953
863.24	23337
863.372	22934
863.504	22911
863.636	22927
863.768	22953
863.9	22980
864.032	22889
864.164	22946
864.296	22885
864.428	23003
864.559	22889
864.691	23022
864.823	22976
864.954	22881
865.086	22877
865.217	22816
865.349	22679
865.48	22656
865.612	22812
865.743	22881
865.875	22694
866.006	22706
866.137	22748
866.269	22873
866.4	22790
866.531	22664
866.662	22618
866.793	22691
866.924	22702
867.055	22763
867.186	22694
867.317	22691
867.448	22584
867.579	22706
867.71	22466
867.841	22668
867.972	22702
868.103	22675
868.233	22607
868.364	22664
868.495	22660
868.625	22885
868.756	22965
868.886	22805
869.017	22889
869.147	22957
869.278	22984
869.408	22957
869.539	22816
869.669	22972
869.799	22934
869.929	22984
870.06	22885
870.19	23185
870.32	23216
870.45	23208
870.58	23345
870.71	23440
870.84	23368
870.97	23341
871.1	23269
871.23	23410
871.36	23307
871.489	23353
871.619	23436
871.749	23452
871.879	23573
872.008	23562
872.138	23596
872.267	23410
872.397	23406
872.526	23379
872.656	23280
872.785	23307
872.915	23596
873.044	23505
873.173	23452
873.303	23543
873.432	23573
873.561	23623
873.69	23615
873.819	23467
873.948	23543
874.077	23463
874.206	23379
874.335	23490
874.464	23619
874.593	23733
874.722	23646
874.851	23752
874.979	23821
875.108	23843
875.237	23748
875.365	23589
875.494	23741
875.623	23737
875.751	23665
875.88	23828
876.008	23843
876.136	23984
876.265	24114
876.393	24197
876.521	24034
876.65	24235
876.778	24228
876.906	24106
877.034	23973
877.162	24098
877.29	24064
877.418	24072
877.546	24053
877.674	24015
877.802	24144
877.93	24098
878.058	24003
878.185	24117
878.313	24022
878.441	24030
878.568	23752
878.696	24144
878.824	24053
878.951	24136
879.079	24311
879.206	24353
879.333	24235
879.461	24022
879.588	24239
879.715	24300
879.842	24194
879.97	24114
880.097	23912
880.224	23946
880.351	23866
880.478	23710
880.605	23882
880.732	23847
880.859	24045
880.986	23946
881.112	23824
881.239	23767
881.366	23592
881.493	23543
881.619	23429
881.746	23383
881.872	23501
881.999	23383
882.125	23356
882.252	23585
882.378	23493
882.505	23433
882.631	23273
882.757	23113
882.883	23395
883.01	23261
883.136	23033
883.262	22968
883.388	22904
883.514	23071
883.64	23132
883.766	23075
883.892	22934
884.018	22835
884.143	23025
884.269	23155
884.395	22797
884.52	22706
884.646	22767
884.772	22569
884.897	22523
885.023	22771
885.148	22877
885.274	22896
885.399	22831
885.524	22607
885.65	22767
885.775	22691
885.9	22733
886.025	22778
886.15	22763
886.275	22630
886.4	22683
886.525	22683
886.65	22599
886.775	22694
886.9	22755
887.025	22976
887.149	22580
887.274	22527
887.399	22451
887.523	22462
887.648	22485
887.773	22382
887.897	22607
888.021	22622
888.146	22310
888.27	22523
888.395	22466
888.519	22550
888.643	22523
888.767	22459
888.891	22386
889.015	22276
889.139	22371
889.263	22421
889.387	22318
889.511	22538
889.635	22470
889.759	22147
889.883	22223
890.006	22306
890.13	22394
890.254	22242
890.377	22219
890.501	22006
890.624	22036
890.748	22063
890.871	21926
890.995	21762
891.118	21739
891.241	21789
891.364	21797
891.488	21994
891.611	21915
891.734	21743
891.857	21842
891.98	21778
892.103	21831
892.226	21724
892.349	21652
892.471	21595
892.594	21675
892.717	21701
892.839	21800
892.962	21572
893.085	21736
893.207	21743
893.33	21542
893.452	21572
893.575	21778
893.697	21587
893.819	21861
893.941	21831
894.064	21827
894.186	21644
894.308	21580
894.43	21736
894.552	21705
894.674	21755
894.796	21568
894.918	21705
895.04	21705
895.161	21633
895.283	21759
895.405	21580
895.526	21561
895.648	21679
895.769	21652
895.891	21652
896.012	21755
896.134	21800
896.255	21652
896.376	21587
896.498	21591
896.619	21690
896.74	21622
896.861	21709
896.982	21949
897.103	22036
897.224	22070
897.345	21827
897.466	21812
897.587	21671
897.708	22017
897.828	21861
897.949	21717
898.07	21656
898.19	21774
898.311	21956
898.431	21720
898.552	21876
898.672	21926
898.792	21888
898.913	21865
899.033	21739
899.153	21591
899.273	21538
899.393	21530
899.513	21553
899.633	21492
899.753	21644
899.873	21405
899.993	21576
900.113	21526
900.232	21443
900.352	21450
900.472	21424
900.591	21287
900.711	21218
900.83	21291
900.95	21481
901.069	21310
901.189	21233
901.308	20956
901.427	20944
901.546	20804
901.665	20880
901.784	20800
901.904	20655
902.023	20705
902.141	20450
902.26	20366
902.379	20476
902.498	20358
902.617	20275
902.735	20404
902.854	20278
902.973	20282
903.091	20084
903.21	19951
903.328	20024
903.446	19959
903.565	19993
903.683	19811
903.801	19635
903.919	19788
904.038	19769
904.156	19590
904.274	19632
904.392	19559
904.51	19567
904.627	19457
904.745	19647
904.863	19594
904.981	19403
905.098	19251
905.216	19270
905.334	19362
905.451	19206
905.569	19183
905.686	19255
905.803	19232
905.921	18951
906.038	19133
906.155	19137
906.272	18863
906.389	18920
906.506	18703
906.623	18757
906.74	18768
906.857	18661
906.974	18715
907.091	18821
907.208	18886
907.324	18810
907.441	18646
907.557	18388
907.674	18376
907.79	18353
907.907	18346
908.023	18532
908.139	18494
908.256	18426
908.372	18262
908.488	18369
908.604	18201
908.72	18174
908.836	18186
908.952	18114
909.068	18155
909.184	18220
909.3	18098
909.415	18159
909.531	18095
909.647	17889
909.762	17832
909.878	17859
909.993	17912
910.108	17859
910.224	17764
910.339	17893
910.454	17646
910.57	17687
910.685	17532
910.8	17821
910.915	17805
911.03	17570
911.145	17486
911.259	17520
911.374	17440
911.489	17337
911.604	17265
911.718	17197
911.833	17292
911.947	17098
912.062	16987
912.176	17204
912.291	17235
912.405	17143
912.519	17379
912.633	17261
912.748	17223
912.862	17086
912.976	17124
913.09	16946
913.204	17022
913.318	16923
913.431	17102
913.545	17041
913.659	16999
913.772	16953
913.886	16835
914	16645
914.113	16869
914.226	16900
914.34	16866
914.453	16683
914.566	16694
914.68	16675
914.793	16580
914.906	16382
915.019	16440
915.132	16310
915.245	16276
915.358	16295
915.47	16272
915.583	16325
915.696	16379
915.809	16352
915.921	16447
916.034	16306
916.146	16147
916.259	16211
916.371	16303
916.483	16147
916.595	16181
916.708	16238
916.82	16139
916.932	16128
917.044	16112
917.156	16040
917.268	15926
917.38	15953
917.491	15911
917.603	15842
917.715	15987
917.826	16017
917.938	15831
918.049	15819
918.161	15842
918.272	16032
918.384	15960
918.495	15934
918.606	15663
918.717	15606
918.828	15629
918.939	15641
919.05	15500
919.161	15515
919.272	15408
919.383	15530
919.494	15709
919.604	15888
919.715	15561
919.826	15549
919.936	15576
920.047	15660
920.157	15606
920.267	15774
920.378	15614
920.488	15542
920.598	15641
920.708	15884
920.818	15717
920.928	15701
921.038	15850
921.148	15770
921.258	15485
921.368	15412
921.477	15378
921.587	15329
921.697	15222
921.806	15428
921.916	15165
922.025	15043
922.134	14967
922.244	14906
922.353	14910
922.462	14758
922.571	14667
922.68	14655
922.789	14526
922.898	14575
923.007	14492
923.116	14571
923.224	14518
923.333	14526
923.442	14431
923.55	14355
923.659	14442
923.767	14427
923.876	14320
923.984	14389
924.092	14275
924.201	14278
924.309	14336
924.417	14252
924.525	14164
924.633	14161
924.741	15184
924.849	14115
924.956	14100
925.064	13993
925.172	13917
925.279	13967
925.387	13951
925.494	13959
925.602	14069
925.709	13963
925.816	13909
925.924	13906
926.031	14008
926.138	13932
926.245	13925
926.352	13784
926.459	13894
926.566	13928
926.673	13776
926.779	13712
926.886	13639
926.993	13468
927.099	13518
927.206	13453
927.312	13464
927.419	13556
927.525	13510
927.631	13472
927.737	13388
927.843	13285
927.95	13175
928.056	13316
928.162	13381
928.267	13400
928.373	13955
928.479	13350
928.585	13069
928.69	13217
928.796	13266
928.901	13190
929.007	13046
929.112	13110
929.218	13126
929.323	13069
929.428	12973
929.533	13103
929.638	12947
929.743	12890
929.848	12943
929.953	12920
930.058	12806
930.163	12730
930.267	12696
930.372	12837
930.477	12616
930.581	12875
930.685	12673
930.79	12479
930.894	12578
930.998	12456
931.103	12620
931.207	12304
931.311	12171
931.415	12182
931.519	11901
931.623	11912
