Data from test_V78500241_1378.txt Node
Date: Fri Mar 25 15:51:20 CST 2022
User: usil
Spectrometer: V785-0024
Trigger mode: 0
Integration Time (sec): 4.000000E-1
Scans to average: 1
Nonlinearity correction enabled: false
Boxcar width: 0
Storing dark spectrum: false
XAxis mode: Wavelengths
Number of Pixels in Spectrum: 1024
>>>>>Begin Spectral Data<<<<<
801.071	27964
801.214	27861
801.356	27663
801.499	27614
801.641	27530
801.783	27386
801.926	27545
802.068	27530
802.211	27542
802.353	27458
802.496	27294
802.638	27275
802.78	27161
802.923	27169
803.065	27123
803.208	27077
803.35	27119
803.492	27386
803.635	27313
803.777	27218
803.919	27378
804.061	27610
804.204	27427
804.346	27283
804.488	27313
804.63	27302
804.773	27386
804.915	27408
805.057	27496
805.199	27401
805.341	27439
805.483	27622
805.626	27511
805.768	27473
805.91	27580
806.052	27701
806.194	27481
806.336	27789
806.478	27492
806.62	27439
806.762	27625
806.904	27850
807.046	28101
807.188	28013
807.33	28036
807.472	27930
807.614	27903
807.756	27926
807.898	27854
808.04	27819
808.182	27793
808.324	27846
808.465	27857
808.607	27987
808.749	28226
808.891	28211
809.033	28367
809.174	28219
809.316	28166
809.458	28207
809.6	28196
809.741	28322
809.883	28417
810.025	28432
810.166	28466
810.308	28432
810.45	28352
810.591	28325
810.733	28325
810.875	28074
811.016	28101
811.158	28112
811.299	28314
811.441	28314
811.582	28386
811.724	28226
811.865	28196
812.007	28242
812.148	28211
812.29	28204
812.431	28226
812.573	28599
812.714	28626
812.855	28596
812.997	28675
813.138	28938
813.279	28885
813.421	28542
813.562	28535
813.703	28615
813.845	28375
813.986	28173
814.127	27960
814.268	27934
814.41	27857
814.551	27743
814.692	27964
814.833	27911
814.974	27888
815.115	27800
815.256	27789
815.397	27717
815.539	27705
815.68	27816
815.821	27572
815.962	27572
816.103	27747
816.244	27485
816.385	27481
816.526	27435
816.666	27176
816.807	27161
816.948	27062
817.089	27291
817.23	27176
817.371	27085
817.512	27188
817.653	27154
817.793	27165
817.934	27176
818.075	27249
818.216	27142
818.356	27123
818.497	27100
818.638	26914
818.778	26918
818.919	26838
819.06	26853
819.2	27005
819.341	27066
819.481	27112
819.622	27359
819.762	27469
819.903	27462
820.043	27310
820.184	27363
820.324	27165
820.465	27367
820.605	27245
820.746	27351
820.886	27294
821.026	27397
821.167	27279
821.307	27298
821.447	27275
821.588	27085
821.728	26815
821.868	26739
822.008	26712
822.149	26606
822.289	26651
822.429	26461
822.569	26404
822.709	26434
822.849	26092
822.99	26138
823.13	26229
823.27	26149
823.41	25947
823.55	25852
823.69	25951
823.83	25936
823.97	26001
824.11	25788
824.25	25738
824.389	25818
824.529	25909
824.669	25833
824.809	25913
824.949	25913
825.089	25830
825.228	25830
825.368	25632
825.508	25674
825.648	25658
825.787	25582
825.927	25674
826.067	25567
826.206	25632
826.346	25734
826.485	25658
826.625	25624
826.765	25776
826.904	25643
827.044	25327
827.183	25403
827.323	25308
827.462	25411
827.601	25415
827.741	25415
827.88	25453
828.02	25320
828.159	25171
828.298	25346
828.437	25521
828.577	25194
828.716	25479
828.855	25274
828.994	25084
829.134	25038
829.273	25095
829.412	25019
829.551	25080
829.69	25133
829.829	24962
829.968	25148
830.107	25114
830.246	25019
830.385	24924
830.524	24783
830.663	24852
830.802	24738
830.941	24700
831.08	24547
831.219	24753
831.357	24696
831.496	24871
831.635	24692
831.774	24513
831.913	24536
832.051	24574
832.19	24528
832.329	24532
832.467	24319
832.606	24228
832.744	24102
832.883	24228
833.022	24216
833.16	24342
833.299	24197
833.437	24361
833.576	24460
833.714	24273
833.852	24445
833.991	24547
834.129	24460
834.267	24338
834.406	24334
834.544	24414
834.682	24483
834.821	24376
834.959	24547
835.097	24338
835.235	24388
835.373	24372
835.511	24403
835.65	24197
835.788	24163
835.926	24026
836.064	24102
836.202	24041
836.34	24186
836.478	24270
836.615	24076
836.753	24178
836.891	24323
837.029	24205
837.167	24273
837.305	24106
837.443	24060
837.58	24171
837.718	24087
837.856	24041
837.993	23958
838.131	23969
838.269	23828
838.406	23935
838.544	23843
838.681	23707
838.819	23718
838.956	23547
839.094	23539
839.231	23615
839.369	23733
839.506	23878
839.643	23828
839.781	23573
839.918	23493
840.055	23474
840.193	23486
840.33	23349
840.467	23395
840.604	23539
840.742	23786
840.879	23231
841.016	23417
841.153	23326
841.29	23516
841.427	23455
841.564	23341
841.701	23467
841.838	23490
841.975	23254
842.112	23406
842.249	23292
842.385	23178
842.522	23398
842.659	23273
842.796	23227
842.933	23166
843.069	23124
843.206	23155
843.343	23193
843.479	23162
843.616	23174
843.752	22892
843.889	22949
844.025	23121
844.162	22896
844.298	23178
844.435	23010
844.571	22828
844.708	23098
844.844	23143
844.98	23094
845.117	23010
845.253	22930
845.389	22729
845.525	22930
845.661	22862
845.798	22580
845.934	22767
846.07	22596
846.206	22752
846.342	22904
846.478	22702
846.614	22424
846.75	22348
846.886	22436
847.022	22497
847.158	22500
847.294	22500
847.429	22440
847.565	22382
847.701	22694
847.837	22173
847.972	21968
848.108	22299
848.244	22192
848.379	22070
848.515	22036
848.65	22040
848.786	21979
848.921	22067
849.057	22173
849.192	22021
849.328	21979
849.463	22120
849.598	22029
849.734	21857
849.869	21774
850.004	21819
850.14	21930
850.275	21724
850.41	21785
850.545	21698
850.68	21759
850.815	21797
850.95	21739
851.085	21934
851.22	21892
851.355	21850
851.49	21835
851.625	21751
851.76	21789
851.895	21705
852.03	21656
852.165	21888
852.299	21743
852.434	21884
852.569	21835
852.703	21728
852.838	21793
852.973	21953
853.107	21960
853.242	21656
853.376	21766
853.511	21515
853.645	21496
853.78	21644
853.914	21534
854.048	21591
854.183	21576
854.317	21656
854.451	21686
854.585	21599
854.72	21557
854.854	21599
854.988	21526
855.122	21686
855.256	21587
855.39	21568
855.524	21660
855.658	21739
855.792	21633
855.926	21606
856.06	21682
856.194	21648
856.327	21644
856.461	21462
856.595	21603
856.729	21618
856.862	21663
856.996	21568
857.13	21599
857.263	21701
857.397	21713
857.53	21542
857.664	21504
857.797	21701
857.931	21713
858.064	21618
858.197	21717
858.331	21694
858.464	21504
858.597	21431
858.731	21599
858.864	21538
858.997	21561
859.13	21542
859.263	21564
859.396	21595
859.529	21496
859.662	21549
859.795	21530
859.928	21648
860.061	21720
860.194	21854
860.327	21580
860.46	21504
860.592	21759
860.725	21747
860.858	21671
860.99	21663
861.123	21603
861.256	21576
861.388	21652
861.521	22188
861.653	21504
861.786	21374
861.918	21363
862.05	21477
862.183	21374
862.315	21500
862.447	21644
862.58	21439
862.712	21374
862.844	21222
862.976	21397
863.108	21340
863.24	21793
863.372	21291
863.504	21298
863.636	21329
863.768	21397
863.9	21298
864.032	21260
864.164	21184
864.296	21420
864.428	21420
864.559	21435
864.691	21386
864.823	21249
864.954	21222
865.086	21279
865.217	21169
865.349	21146
865.48	21233
865.612	21142
865.743	21336
865.875	21222
866.006	21135
866.137	21188
866.269	21272
866.4	21237
866.531	21093
866.662	21112
866.793	21119
866.924	21176
867.055	21161
867.186	21180
867.317	21055
867.448	21100
867.579	21096
867.71	20975
867.841	20941
867.972	21192
868.103	21135
868.233	21226
868.364	21150
868.495	21195
868.625	21272
868.756	21488
868.886	21313
869.017	21443
869.147	21587
869.278	21485
869.408	21412
869.539	21435
869.669	21428
869.799	21401
869.929	21500
870.06	21561
870.19	21549
870.32	21610
870.45	21679
870.58	21827
870.71	21941
870.84	21884
870.97	21778
871.1	21797
871.23	21899
871.36	21747
871.489	21812
871.619	21903
871.749	21922
871.879	21960
872.008	22162
872.138	21979
872.267	21861
872.397	21774
872.526	21770
872.656	21873
872.785	21728
872.915	22017
873.044	22013
873.173	21998
873.303	22017
873.432	22002
873.561	22070
873.69	21850
873.819	22074
873.948	22086
874.077	21854
874.206	22074
874.335	21979
874.464	22131
874.593	22158
874.722	22169
874.851	22253
874.979	22128
875.108	22322
875.237	22128
875.365	22162
875.494	22154
875.623	22249
875.751	22166
875.88	22341
876.008	22310
876.136	22341
876.265	22668
876.393	22641
876.521	22820
876.65	22706
876.778	22512
876.906	22436
877.034	22531
877.162	22497
877.29	22493
877.418	22569
877.546	22546
877.674	22607
877.802	22603
877.93	22466
878.058	22508
878.185	22409
878.313	22535
878.441	22516
878.568	22478
878.696	22603
878.824	22656
878.951	22702
879.079	22721
879.206	22869
879.333	22584
879.461	22649
879.588	22584
879.715	22611
879.842	22889
879.97	22535
880.097	22344
880.224	22402
880.351	22508
880.478	22424
880.605	22322
880.732	22352
880.859	22542
880.986	22386
881.112	22367
881.239	22276
881.366	22048
881.493	22070
881.619	22029
881.746	22036
881.872	21915
881.999	22006
882.125	21857
882.252	21884
882.378	21934
882.505	22051
882.631	21819
882.757	21690
882.883	21739
883.01	21739
883.136	21671
883.262	21481
883.388	21424
883.514	21641
883.64	21698
883.766	21542
883.892	21351
884.018	21389
884.143	21599
884.269	21553
884.395	21374
884.52	21374
884.646	21313
884.772	21249
884.897	21146
885.023	21283
885.148	21321
885.274	21408
885.399	21428
885.524	21256
885.65	21416
885.775	21161
885.9	21226
886.025	21473
886.15	21336
886.275	21249
886.4	21184
886.525	21401
886.65	21207
886.775	21218
886.9	21367
887.025	21378
887.149	21294
887.274	21112
887.399	21058
887.523	21108
887.648	20899
887.773	20948
887.897	21112
888.021	21085
888.146	20971
888.27	21154
888.395	21218
888.519	21173
888.643	21104
888.767	21199
888.891	20952
889.015	20804
889.139	20857
889.263	20826
889.387	21001
889.511	20963
889.635	20986
889.759	20708
889.883	20830
890.006	20769
890.13	20937
890.254	20758
890.377	20758
890.501	20609
890.624	20507
890.748	20609
890.871	20507
890.995	20457
891.118	20408
891.241	20499
891.364	20461
891.488	20457
891.611	20362
891.734	20484
891.857	20495
891.98	20522
892.103	20438
892.226	20320
892.349	20408
892.471	20210
892.594	20252
892.717	20339
892.839	20298
892.962	20278
893.085	20343
893.207	20294
893.33	20248
893.452	20275
893.575	20370
893.697	20278
893.819	20606
893.941	20583
894.064	20514
894.186	20199
894.308	20164
894.43	20396
894.552	20400
894.674	20374
894.796	20256
894.918	20332
895.04	20317
895.161	20358
895.283	20370
895.405	20286
895.526	20339
895.648	20252
895.769	20389
895.891	20385
896.012	20313
896.134	20275
896.255	20275
896.376	20218
896.498	20313
896.619	20400
896.74	20225
896.861	20301
896.982	20716
897.103	20739
897.224	20560
897.345	20564
897.466	20522
897.587	20549
897.708	20651
897.828	20625
897.949	20320
898.07	20423
898.19	20457
898.311	20579
898.431	20526
898.552	20583
898.672	20609
898.792	20644
898.913	20434
899.033	20469
899.153	20259
899.273	20233
899.393	20301
899.513	20336
899.633	20240
899.753	20313
899.873	20225
899.993	20343
900.113	20324
900.232	20221
900.352	20191
900.472	20119
900.591	20008
900.711	20210
900.83	20005
900.95	20134
901.069	20142
901.189	19963
901.308	19609
901.427	19753
901.546	19658
901.665	19731
901.784	19590
901.904	19400
902.023	19476
902.141	19282
902.26	19118
902.379	19190
902.498	19114
902.617	19091
902.735	19103
902.854	19225
902.973	19031
903.091	18913
903.21	18844
903.328	18897
903.446	18726
903.565	18631
903.683	18623
903.801	18513
903.919	18559
904.038	18506
904.156	18361
904.274	18422
904.392	18338
904.51	18403
904.627	18384
904.745	18464
904.863	18346
904.981	18186
905.098	18079
905.216	18064
905.334	18186
905.451	18060
905.569	17996
905.686	18167
905.803	17988
905.921	17893
906.038	17984
906.155	17786
906.272	17699
906.389	17748
906.506	17554
906.623	17615
906.74	17596
906.857	17368
906.974	17535
907.091	17604
907.208	17649
907.324	17528
907.441	17459
907.557	17421
907.674	17212
907.79	17193
907.907	17299
908.023	17398
908.139	17349
908.256	17349
908.372	17121
908.488	17143
908.604	17052
908.72	17041
908.836	17220
908.952	17018
909.068	17128
909.184	17109
909.3	16995
909.415	17060
909.531	17025
909.647	16839
909.762	16793
909.878	16820
909.993	16729
910.108	16630
910.224	16698
910.339	16649
910.454	16542
910.57	16523
910.685	16485
910.8	16763
910.915	16672
911.03	16485
911.145	16447
911.259	16360
911.374	16268
911.489	16261
911.604	16162
911.718	16017
911.833	16071
911.947	15857
912.062	15922
912.176	16124
912.291	16071
912.405	16082
912.519	16322
912.633	16261
912.748	16154
912.862	16025
912.976	15941
913.09	15770
913.204	15770
913.318	15781
913.431	15842
913.545	15922
913.659	15945
913.772	15739
913.886	15690
914	15682
914.113	15778
914.226	15667
914.34	15698
914.453	15477
914.566	15682
914.68	15587
914.793	15614
914.906	15386
915.019	15317
915.132	15272
915.245	15199
915.358	15218
915.47	15298
915.583	15241
915.696	15256
915.809	15321
915.921	15332
916.034	15176
916.146	15192
916.259	15131
916.371	15294
916.483	15222
916.595	15055
916.708	15135
916.82	15104
916.932	15058
917.044	14990
917.156	15081
917.268	14849
917.38	14975
917.491	14861
917.603	14891
917.715	14887
917.826	14986
917.938	14819
918.049	14712
918.161	14777
918.272	15024
918.384	14998
918.495	14823
918.606	14792
918.717	14731
918.828	14629
918.939	14731
919.05	14545
919.161	14564
919.272	14454
919.383	14568
919.494	14861
919.604	14826
919.715	14629
919.826	14632
919.936	14533
920.047	14712
920.157	14598
920.267	14750
920.378	14674
920.488	14617
920.598	14739
920.708	14975
920.818	14868
920.928	14754
921.038	14899
921.148	14887
921.258	14674
921.368	14594
921.477	14389
921.587	14374
921.697	14278
921.806	14339
921.916	14233
922.025	14050
922.134	14142
922.244	13940
922.353	14084
922.462	13868
922.571	13845
922.68	13613
922.789	13689
922.898	13681
923.007	13636
923.116	13677
923.224	13597
923.333	13590
923.442	13529
923.55	13571
923.659	13537
923.767	13430
923.876	13381
923.984	13487
924.092	13362
924.201	13400
924.309	13373
924.417	13369
924.525	13373
924.633	13350
924.741	14256
924.849	13050
924.956	13209
925.064	13133
925.172	12993
925.279	13072
925.387	13152
925.494	13061
925.602	13110
925.709	13076
925.816	12939
925.924	13061
926.031	13164
926.138	12977
926.245	13137
926.352	12924
926.459	13065
926.566	13023
926.673	12939
926.779	12863
926.886	12715
926.993	12608
927.099	12597
927.206	12540
927.312	12612
927.419	12578
927.525	12544
927.631	12642
927.737	12513
927.843	12414
927.95	12441
928.056	12407
928.162	12410
928.267	12570
928.373	13175
928.479	12502
928.585	12232
928.69	12330
928.796	12464
928.901	12266
929.007	12182
929.112	12319
929.218	12262
929.323	12201
929.428	12171
929.533	12289
929.638	12102
929.743	12140
929.848	12175
929.953	12155
930.058	12007
930.163	11927
930.267	11859
930.372	12022
930.477	11775
930.581	12019
930.685	11878
930.79	11779
930.894	11775
930.998	11707
931.103	11813
931.207	11455
931.311	11440
931.415	11318
931.519	11201
931.623	11071
