Data from test_V78500241_2349.txt Node
Date: Fri Mar 25 15:58:04 CST 2022
User: usil
Spectrometer: V785-0024
Trigger mode: 0
Integration Time (sec): 4.000000E-1
Scans to average: 1
Nonlinearity correction enabled: false
Boxcar width: 0
Storing dark spectrum: false
XAxis mode: Wavelengths
Number of Pixels in Spectrum: 1024
>>>>>Begin Spectral Data<<<<<
801.071	28812
801.214	28721
801.356	28615
801.499	28641
801.641	28405
801.783	28390
801.926	28341
802.068	28371
802.211	28382
802.353	28230
802.496	28093
802.638	28234
802.78	28021
802.923	28051
803.065	28147
803.208	28093
803.35	28185
803.492	28177
803.635	28310
803.777	28143
803.919	28299
804.061	28607
804.204	28318
804.346	28280
804.488	28280
804.63	28249
804.773	28265
804.915	28440
805.057	28401
805.199	28215
805.341	28341
805.483	28542
805.626	28485
805.768	28367
805.91	28497
806.052	28615
806.194	28371
806.336	28603
806.478	28554
806.62	28542
806.762	28531
806.904	28786
807.046	28942
807.188	28946
807.33	28980
807.472	28995
807.614	28824
807.756	28850
807.898	28812
808.04	28721
808.182	28691
808.324	28869
808.465	28995
808.607	29090
808.749	29094
808.891	29288
809.033	29269
809.174	29311
809.316	29189
809.458	29143
809.6	29025
809.741	29273
809.883	29269
810.025	29463
810.166	29345
810.308	29516
810.45	29334
810.591	29307
810.733	29307
810.875	29052
811.016	29079
811.158	29113
811.299	29269
811.441	29261
811.582	29490
811.724	29315
811.865	29189
812.007	29337
812.148	29246
812.29	29292
812.431	29387
812.573	29547
812.714	29573
812.855	29661
812.997	29710
813.138	29935
813.279	29760
813.421	29707
813.562	29668
813.703	29493
813.845	29395
813.986	29143
814.127	29018
814.268	28866
814.41	28866
814.551	28900
814.692	28805
814.833	28930
814.974	28942
815.115	28866
815.256	28755
815.397	28847
815.539	28740
815.68	28869
815.821	28622
815.962	28721
816.103	28573
816.244	28481
816.385	28413
816.526	28500
816.666	28310
816.807	28303
816.948	28246
817.089	28318
817.23	28204
817.371	28143
817.512	28101
817.653	28192
817.793	28162
817.934	28124
818.075	28207
818.216	28242
818.356	28105
818.497	28074
818.638	27998
818.778	28021
818.919	28010
819.06	28017
819.2	28040
819.341	28230
819.481	28173
819.622	28238
819.762	28527
819.903	28398
820.043	28356
820.184	28405
820.324	28360
820.465	28512
820.605	28249
820.746	28371
820.886	28116
821.026	28303
821.167	28352
821.307	28481
821.447	28253
821.588	28200
821.728	28002
821.868	27918
822.008	27759
822.149	27698
822.289	27743
822.429	27504
822.569	27351
822.709	27477
822.849	27184
822.99	27298
823.13	27154
823.27	27104
823.41	27074
823.55	26838
823.69	27135
823.83	27043
823.97	26956
824.11	26857
824.25	26967
824.389	26845
824.529	27047
824.669	26845
824.809	27032
824.949	26819
825.089	26937
825.228	26971
825.368	26693
825.508	26815
825.648	26746
825.787	26735
825.927	26929
826.067	26670
826.206	26864
826.346	26830
826.485	26834
826.625	26819
826.765	26853
826.904	26773
827.044	26552
827.183	26492
827.323	26332
827.462	26533
827.601	26571
827.741	26549
827.88	26590
828.02	26396
828.159	26362
828.298	26438
828.437	26480
828.577	26431
828.716	26651
828.855	26457
828.994	26176
829.134	26008
829.273	26149
829.412	26058
829.551	26073
829.69	26244
829.829	26027
829.968	26229
830.107	26256
830.246	26206
830.385	26195
830.524	25970
830.663	26065
830.802	25932
830.941	25776
831.08	25769
831.219	25852
831.357	25807
831.496	25955
831.635	25791
831.774	25765
831.913	25689
832.051	25594
832.19	25502
832.329	25544
832.467	25533
832.606	25407
832.744	25289
832.883	25506
833.022	25320
833.16	25422
833.299	25491
833.437	25358
833.576	25499
833.714	25510
833.852	25674
833.991	25556
834.129	25594
834.267	25552
834.406	25597
834.544	25514
834.682	25571
834.821	25407
834.959	25594
835.097	25491
835.235	25533
835.373	25407
835.511	25468
835.65	25400
835.788	25438
835.926	25312
836.064	25240
836.202	25244
836.34	25411
836.478	25392
836.615	25346
836.753	25445
836.891	25335
837.029	25373
837.167	25343
837.305	25228
837.443	25247
837.58	25164
837.718	25084
837.856	25156
837.993	25129
838.131	25148
838.269	24985
838.406	25080
838.544	25088
838.681	24878
838.819	24726
838.956	24715
839.094	24483
839.231	24635
839.369	24768
839.506	25080
839.643	24814
839.781	24730
839.918	24502
840.055	24483
840.193	24646
840.33	24479
840.467	24570
840.604	24589
840.742	24867
840.879	24376
841.016	24563
841.153	24437
841.29	24608
841.427	24486
841.564	24540
841.701	24620
841.838	24513
841.975	24369
842.112	24361
842.249	24327
842.385	24247
842.522	24391
842.659	24216
842.796	24235
842.933	24464
843.069	24304
843.206	24289
843.343	24357
843.479	24273
843.616	24281
843.752	24095
843.889	24098
844.025	24201
844.162	24110
844.298	24079
844.435	24053
844.571	24045
844.708	24171
844.844	24163
844.98	24216
845.117	24125
845.253	24038
845.389	23863
845.525	23916
845.661	23878
845.798	23760
845.934	23824
846.07	23760
846.206	23855
846.342	23741
846.478	23707
846.614	23463
846.75	23516
846.886	23417
847.022	23524
847.158	23535
847.294	23627
847.429	23551
847.565	23566
847.701	23741
847.837	23288
847.972	23246
848.108	23341
848.244	23406
848.379	23094
848.515	23147
848.65	23094
848.786	23121
848.921	23052
849.057	23147
849.192	23258
849.328	23151
849.463	23014
849.598	22991
849.734	22972
849.869	22953
850.004	22873
850.14	22904
850.275	22820
850.41	22626
850.545	22835
850.68	22771
850.815	22801
850.95	22835
851.085	23079
851.22	22877
851.355	22729
851.49	22847
851.625	22805
851.76	22854
851.895	22733
852.03	22740
852.165	22835
852.299	22835
852.434	22965
852.569	22915
852.703	22858
852.838	22923
852.973	22942
853.107	23037
853.242	22809
853.376	22653
853.511	22607
853.645	22519
853.78	22793
853.914	22736
854.048	22584
854.183	22641
854.317	22706
854.451	22843
854.585	22637
854.72	22683
854.854	22782
854.988	22615
855.122	22744
855.256	22618
855.39	22615
855.524	22717
855.658	22790
855.792	22782
855.926	22850
856.06	22736
856.194	22793
856.327	22698
856.461	22577
856.595	22645
856.729	22679
856.862	22771
856.996	22645
857.13	22702
857.263	22755
857.397	22793
857.53	22626
857.664	22687
857.797	22713
857.931	22729
858.064	22675
858.197	22828
858.331	22748
858.464	22596
858.597	22615
858.731	22535
858.864	22557
858.997	22596
859.13	22694
859.263	22679
859.396	22801
859.529	22542
859.662	22694
859.795	22679
859.928	22698
860.061	22710
860.194	22919
860.327	22656
860.46	22736
860.592	22816
860.725	22755
860.858	22713
860.99	22725
861.123	22557
861.256	22603
861.388	22607
861.521	23337
861.653	22523
861.786	22455
861.918	22455
862.05	22580
862.183	22611
862.315	22523
862.447	22550
862.58	22596
862.712	22493
862.844	22268
862.976	22447
863.108	22398
863.24	22957
863.372	22310
863.504	22223
863.636	22363
863.768	22455
863.9	22394
864.032	22173
864.164	22318
864.296	22421
864.428	22417
864.559	22360
864.691	22436
864.823	22371
864.954	22386
865.086	22337
865.217	22348
865.349	22306
865.48	22303
865.612	22242
865.743	22382
865.875	22367
866.006	22246
866.137	22173
866.269	22280
866.4	22215
866.531	22188
866.662	22226
866.793	22101
866.924	22162
867.055	22219
867.186	22268
867.317	22150
867.448	22021
867.579	22154
867.71	22192
867.841	22074
867.972	22128
868.103	22150
868.233	22280
868.364	22192
868.495	22291
868.625	22379
868.756	22451
868.886	22356
869.017	22405
869.147	22592
869.278	22546
869.408	22409
869.539	22432
869.669	22504
869.799	22523
869.929	22432
870.06	22440
870.19	22729
870.32	22592
870.45	22752
870.58	22835
870.71	22904
870.84	22824
870.97	22835
871.1	22946
871.23	23025
871.36	22927
871.489	22740
871.619	22892
871.749	23010
871.879	23067
872.008	23117
872.138	23083
872.267	22919
872.397	22942
872.526	22854
872.656	22790
872.785	22869
872.915	23025
873.044	23056
873.173	23117
873.303	23147
873.432	23067
873.561	23014
873.69	23083
873.819	23071
873.948	23105
874.077	23166
874.206	23041
874.335	22942
874.464	23090
874.593	23235
874.722	23159
874.851	23292
874.979	23364
875.108	23349
875.237	23071
875.365	23132
875.494	23204
875.623	23341
875.751	23292
875.88	23223
876.008	23376
876.136	23353
876.265	23623
876.393	23775
876.521	23748
876.65	23779
876.778	23623
876.906	23634
877.034	23543
877.162	23699
877.29	23543
877.418	23627
877.546	23452
877.674	23573
877.802	23630
877.93	23592
878.058	23512
878.185	23478
878.313	23444
878.441	23505
878.568	23345
878.696	23509
878.824	23497
878.951	23611
879.079	23771
879.206	23870
879.333	23817
879.461	23596
879.588	23577
879.715	23851
879.842	23836
879.97	23691
880.097	23353
880.224	23425
880.351	23535
880.478	23360
880.605	23383
880.732	23425
880.859	23604
880.986	23402
881.112	23478
881.239	23185
881.366	23235
881.493	22984
881.619	22850
881.746	22999
881.872	22934
881.999	22923
882.125	22915
882.252	22976
882.378	22881
882.505	23033
882.631	22847
882.757	22691
882.883	22733
883.01	22725
883.136	22599
883.262	22398
883.388	22363
883.514	22618
883.64	22569
883.766	22557
883.892	22276
884.018	22459
884.143	22569
884.269	22603
884.395	22409
884.52	22341
884.646	22196
884.772	22268
884.897	22158
885.023	22280
885.148	22352
885.274	22421
885.399	22337
885.524	22261
885.65	22287
885.775	22249
885.9	22226
886.025	22409
886.15	22470
886.275	22246
886.4	22238
886.525	22204
886.65	22211
886.775	22257
886.9	22325
887.025	22379
887.149	22223
887.274	22128
887.399	22055
887.523	22010
887.648	21922
887.773	21888
887.897	22147
888.021	22063
888.146	21945
888.27	22051
888.395	22120
888.519	21907
888.643	22078
888.767	22093
888.891	21983
889.015	21739
889.139	21804
889.263	21759
889.387	21835
889.511	21934
889.635	22017
889.759	21789
889.883	21713
890.006	21755
890.13	21880
890.254	21739
890.377	21838
890.501	21534
890.624	21481
890.748	21606
890.871	21378
890.995	21344
891.118	21237
891.241	21332
891.364	21351
891.488	21382
891.611	21431
891.734	21264
891.857	21378
891.98	21302
892.103	21408
892.226	21275
892.349	21302
892.471	21119
892.594	21272
892.717	21344
892.839	21150
892.962	21211
893.085	21241
893.207	21184
893.33	21051
893.452	21233
893.575	21306
893.697	21100
893.819	21386
893.941	21462
894.064	21348
894.186	21188
894.308	21180
894.43	21321
894.552	21428
894.674	21332
894.796	21131
894.918	21127
895.04	21188
895.161	21321
895.283	21264
895.405	21093
895.526	21233
895.648	21138
895.769	21127
895.891	21264
896.012	21272
896.134	21245
896.255	21287
896.376	21226
896.498	21268
896.619	21313
896.74	21275
896.861	21245
896.982	21568
897.103	21637
897.224	21450
897.345	21351
897.466	21336
897.587	21408
897.708	21542
897.828	21523
897.949	21458
898.07	21283
898.19	21344
898.311	21587
898.431	21310
898.552	21420
898.672	21519
898.792	21507
898.913	21294
899.033	21325
899.153	21154
899.273	21138
899.393	21036
899.513	21233
899.633	21051
899.753	21112
899.873	21089
899.993	21131
900.113	21112
900.232	21131
900.352	21154
900.472	20990
900.591	20849
900.711	20952
900.83	20906
900.95	20906
901.069	21013
901.189	20826
901.308	20545
901.427	20473
901.546	20450
901.665	20545
901.784	20412
901.904	20362
902.023	20107
902.141	20176
902.26	20031
902.379	20035
902.498	19959
902.617	19890
902.735	20058
902.854	19875
902.973	19871
903.091	19582
903.21	19597
903.328	19571
903.446	19556
903.565	19392
903.683	19411
903.801	19308
903.919	19369
904.038	19369
904.156	19194
904.274	19381
904.392	19225
904.51	19190
904.627	19091
904.745	19304
904.863	19244
904.981	18886
905.098	18753
905.216	18909
905.334	18928
905.451	18882
905.569	18802
905.686	18920
905.803	18844
905.921	18673
906.038	18582
906.155	18631
906.272	18646
906.389	18677
906.506	18410
906.623	18429
906.74	18334
906.857	18281
906.974	18247
907.091	18456
907.208	18479
907.324	18429
907.441	18247
907.557	18026
907.674	18117
907.79	18057
907.907	18019
908.023	18057
908.139	18110
908.256	18038
908.372	18041
908.488	17916
908.604	17866
908.72	17760
908.836	17821
908.952	17767
909.068	17764
909.184	17874
909.3	17866
909.415	17870
909.531	17771
909.647	17642
909.762	17524
909.878	17444
909.993	17471
910.108	17429
910.224	17391
910.339	17467
910.454	17379
910.57	17216
910.685	17242
910.8	17589
910.915	17516
911.03	17250
911.145	17098
911.259	17060
911.374	17098
911.489	16999
911.604	16923
911.718	16782
911.833	16911
911.947	16835
912.062	16596
912.176	16987
912.291	16801
912.405	16740
912.519	16987
912.633	17029
912.748	16831
912.862	16831
912.976	16698
913.09	16637
913.204	16523
913.318	16713
913.431	16748
913.545	16771
913.659	16717
913.772	16519
913.886	16500
914	16421
914.113	16459
914.226	16531
914.34	16424
914.453	16341
914.566	16470
914.68	16348
914.793	16234
914.906	16071
915.019	16025
915.132	15956
915.245	16059
915.358	16055
915.47	15964
915.583	15918
915.696	16025
915.809	16112
915.921	16116
916.034	15895
916.146	15953
916.259	15850
916.371	15956
916.483	15816
916.595	15793
916.708	15865
916.82	15876
916.932	15808
917.044	15789
917.156	15785
917.268	15720
917.38	15644
917.491	15591
917.603	15618
917.715	15709
917.826	15652
917.938	15507
918.049	15443
918.161	15580
918.272	15736
918.384	15576
918.495	15488
918.606	15329
918.717	15275
918.828	15405
918.939	15523
919.05	15249
919.161	15344
919.272	15135
919.383	15203
919.494	15397
919.604	15485
919.715	15412
919.826	15169
919.936	15374
920.047	15477
920.157	15298
920.267	15534
920.378	15393
920.488	15260
920.598	15538
920.708	15584
920.818	15511
920.928	15435
921.038	15606
921.148	15473
921.258	15142
921.368	15097
921.477	15009
921.587	15112
921.697	14883
921.806	15005
921.916	14819
922.025	14750
922.134	14689
922.244	14644
922.353	14640
922.462	14571
922.571	14465
922.68	14343
922.789	14305
922.898	14328
923.007	14317
923.116	14320
923.224	14248
923.333	14237
923.442	14069
923.55	14187
923.659	14100
923.767	14138
923.876	13989
923.984	14221
924.092	13982
924.201	13986
924.309	14024
924.417	14024
924.525	13936
924.633	13928
924.741	14842
924.849	13738
924.956	13830
925.064	13727
925.172	13590
925.279	13666
925.387	13727
925.494	13693
925.602	13765
925.709	13723
925.816	13563
925.924	13613
926.031	13689
926.138	13632
926.245	13643
926.352	13571
926.459	13674
926.566	13552
926.673	13460
926.779	13472
926.886	13350
926.993	13236
927.099	13206
927.206	13255
927.312	13198
927.419	13301
927.525	13240
927.631	13156
927.737	13171
927.843	12993
927.95	12920
928.056	12958
928.162	12985
928.267	13015
928.373	13666
928.479	13034
928.585	12886
928.69	12958
928.796	13012
928.901	12859
929.007	12722
929.112	12814
929.218	12825
929.323	12692
929.428	12700
929.533	12837
929.638	12673
929.743	12669
929.848	12722
929.953	12673
930.058	12559
930.163	12479
930.267	12422
930.372	12422
930.477	12342
930.581	12536
930.685	12464
930.79	12186
930.894	12350
930.998	12254
931.103	12429
931.207	12034
931.311	11901
931.415	11790
931.519	11615
931.623	11634
