Data from test_V78500241_2062.txt Node
Date: Fri Mar 25 15:56:05 CST 2022
User: usil
Spectrometer: V785-0024
Trigger mode: 0
Integration Time (sec): 4.000000E-1
Scans to average: 1
Nonlinearity correction enabled: false
Boxcar width: 0
Storing dark spectrum: false
XAxis mode: Wavelengths
Number of Pixels in Spectrum: 1024
>>>>>Begin Spectral Data<<<<<
801.071	28934
801.214	28896
801.356	28774
801.499	28618
801.641	28523
801.783	28527
801.926	28577
802.068	28706
802.211	28641
802.353	28531
802.496	28268
802.638	28299
802.78	28325
802.923	28139
803.065	28169
803.208	28074
803.35	28215
803.492	28516
803.635	28398
803.777	28306
803.919	28527
804.061	28858
804.204	28527
804.346	28455
804.488	28413
804.63	28516
804.773	28478
804.915	28596
805.057	28622
805.199	28561
805.341	28538
805.483	28752
805.626	28675
805.768	28653
805.91	28694
806.052	28599
806.194	28622
806.336	28987
806.478	28679
806.62	28725
806.762	28839
806.904	29022
807.046	29227
807.188	29204
807.33	29052
807.472	29200
807.614	29048
807.756	29159
807.898	29052
808.04	28961
808.182	29022
808.324	29162
808.465	29109
808.607	29113
808.749	29383
808.891	29535
809.033	29649
809.174	29463
809.316	29311
809.458	29539
809.6	29326
809.741	29554
809.883	29467
810.025	29589
810.166	29707
810.308	29714
810.45	29627
810.591	29585
810.733	29478
810.875	29375
811.016	29227
811.158	29223
811.299	29467
811.441	29570
811.582	29425
811.724	29322
811.865	29505
812.007	29299
812.148	29341
812.29	29387
812.431	29535
812.573	29714
812.714	29950
812.855	29908
812.997	30140
813.138	30072
813.279	30106
813.421	29851
813.562	29908
813.703	29794
813.845	29653
813.986	29372
814.127	29147
814.268	29166
814.41	29086
814.551	29147
814.692	29174
814.833	28980
814.974	29044
815.115	29094
815.256	28999
815.397	29044
815.539	28873
815.68	28972
815.821	28839
815.962	28938
816.103	28946
816.244	28847
816.385	28812
816.526	28649
816.666	28550
816.807	28322
816.948	28409
817.089	28497
817.23	28432
817.371	28455
817.512	28398
817.653	28356
817.793	28348
817.934	28348
818.075	28474
818.216	28489
818.356	28489
818.497	28234
818.638	28090
818.778	28192
818.919	28276
819.06	28177
819.2	28276
819.341	28382
819.481	28257
819.622	28611
819.762	28759
819.903	28782
820.043	28660
820.184	28603
820.324	28527
820.465	28577
820.605	28561
820.746	28436
820.886	28421
821.026	28542
821.167	28493
821.307	28470
821.447	28489
821.588	28382
821.728	28261
821.868	28131
822.008	27972
822.149	27926
822.289	27857
822.429	27637
822.569	27637
822.709	27603
822.849	27424
822.99	27492
823.13	27382
823.27	27260
823.41	27173
823.55	27150
823.69	27180
823.83	27272
823.97	27180
824.11	27077
824.25	26998
824.389	26948
824.529	27165
824.669	27138
824.809	27127
824.949	27119
825.089	27176
825.228	27161
825.368	26914
825.508	26971
825.648	26979
825.787	26899
825.927	27066
826.067	26986
826.206	27062
826.346	27024
826.485	27039
826.625	26906
826.765	27009
826.904	27032
827.044	26697
827.183	26705
827.323	26655
827.462	26568
827.601	26682
827.741	26754
827.88	26777
828.02	26442
828.159	26651
828.298	26667
828.437	26830
828.577	26602
828.716	26720
828.855	26476
828.994	26278
829.134	26453
829.273	26374
829.412	26343
829.551	26492
829.69	26412
829.829	26492
829.968	26366
830.107	26476
830.246	26298
830.385	26237
830.524	26267
830.663	26149
830.802	26081
830.941	25936
831.08	25917
831.219	26050
831.357	26054
831.496	26244
831.635	25940
831.774	25890
831.913	25833
832.051	25841
832.19	25696
832.329	25784
832.467	25719
832.606	25624
832.744	25594
832.883	25666
833.022	25559
833.16	25719
833.299	25628
833.437	25685
833.576	25685
833.714	25784
833.852	25742
833.991	25624
834.129	25849
834.267	25788
834.406	25734
834.544	25719
834.682	25712
834.821	25864
834.959	25757
835.097	25655
835.235	25799
835.373	25696
835.511	25685
835.65	25597
835.788	25586
835.926	25327
836.064	25217
836.202	25396
836.34	25616
836.478	25563
836.615	25563
836.753	25479
836.891	25537
837.029	25578
837.167	25403
837.305	25457
837.443	25350
837.58	25445
837.718	25365
837.856	25403
837.993	25225
838.131	25324
838.269	25095
838.406	25263
838.544	25190
838.681	24977
838.819	24916
838.956	24753
839.094	24753
839.231	24768
839.369	24928
839.506	25175
839.643	25050
839.781	24844
839.918	24696
840.055	24837
840.193	24696
840.33	24749
840.467	24745
840.604	24821
840.742	25034
840.879	24627
841.016	24563
841.153	24612
841.29	24844
841.427	24825
841.564	24802
841.701	24650
841.838	24578
841.975	24540
842.112	24646
842.249	24563
842.385	24494
842.522	24646
842.659	24414
842.796	24441
842.933	24433
843.069	24372
843.206	24445
843.343	24479
843.479	24475
843.616	24547
843.752	24205
843.889	24235
844.025	24407
844.162	24262
844.298	24323
844.435	24270
844.571	24114
844.708	24213
844.844	24330
844.98	24483
845.117	24414
845.253	24163
845.389	24064
845.525	24133
845.661	23958
845.798	24022
845.934	24068
846.07	23992
846.206	23950
846.342	24072
846.478	23992
846.614	23836
846.75	23638
846.886	23638
847.022	23821
847.158	23741
847.294	23630
847.429	23676
847.565	23680
847.701	23977
847.837	23440
847.972	23372
848.108	23368
848.244	23421
848.379	23288
848.515	23322
848.65	23254
848.786	23273
848.921	23356
849.057	23372
849.192	23444
849.328	23288
849.463	23170
849.598	23132
849.734	23216
849.869	23193
850.004	23056
850.14	23136
850.275	23025
850.41	22927
850.545	23037
850.68	23044
850.815	23067
850.95	23003
851.085	23151
851.22	23254
851.355	23071
851.49	23094
851.625	22957
851.76	23003
851.895	22843
852.03	22938
852.165	22949
852.299	23025
852.434	23189
852.569	23060
852.703	22987
852.838	23147
852.973	23094
853.107	23044
853.242	23025
853.376	22892
853.511	22755
853.645	22797
853.78	23033
853.914	22877
854.048	22812
854.183	22866
854.317	22816
854.451	23025
854.585	22850
854.72	22820
854.854	22968
854.988	22809
855.122	22828
855.256	22820
855.39	22706
855.524	22949
855.658	22911
855.792	22873
855.926	22938
856.06	22805
856.194	22869
856.327	22809
856.461	22820
856.595	22923
856.729	22847
856.862	22972
856.996	22801
857.13	22938
857.263	22755
857.397	22889
857.53	22748
857.664	22854
857.797	23029
857.931	22995
858.064	22923
858.197	22877
858.331	22698
858.464	22809
858.597	22835
858.731	22850
858.864	22908
858.997	22850
859.13	22873
859.263	22908
859.396	22892
859.529	22824
859.662	22850
859.795	22755
859.928	22816
860.061	22999
860.194	22946
860.327	22938
860.46	22892
860.592	22946
860.725	22946
860.858	22999
860.99	22850
861.123	22843
861.256	22752
861.388	22908
861.521	23524
861.653	22736
861.786	22668
861.918	22725
862.05	22687
862.183	22733
862.315	22900
862.447	22869
862.58	22683
862.712	22451
862.844	22428
862.976	22622
863.108	22660
863.24	23014
863.372	22565
863.504	22561
863.636	22459
863.768	22500
863.9	22554
864.032	22447
864.164	22459
864.296	22455
864.428	22615
864.559	22618
864.691	22672
864.823	22527
864.954	22557
865.086	22516
865.217	22497
865.349	22291
865.48	22436
865.612	22500
865.743	22649
865.875	22314
866.006	22443
866.137	22497
866.269	22424
866.4	22303
866.531	22344
866.662	22440
866.793	22325
866.924	22413
867.055	22341
867.186	22238
867.317	22211
867.448	22261
867.579	22352
867.71	22333
867.841	22200
867.972	22310
868.103	22265
868.233	22348
868.364	22436
868.495	22569
868.625	22504
868.756	22580
868.886	22500
869.017	22615
869.147	22713
869.278	22733
869.408	22607
869.539	22611
869.669	22630
869.799	22615
869.929	22683
870.06	22645
870.19	22946
870.32	22797
870.45	22828
870.58	22976
870.71	23132
870.84	23140
870.97	22889
871.1	23079
871.23	23162
871.36	23174
871.489	23151
871.619	23174
871.749	23185
871.879	23261
872.008	23299
872.138	23124
872.267	23170
872.397	23064
872.526	22999
872.656	22999
872.785	23151
872.915	23307
873.044	23235
873.173	23185
873.303	23299
873.432	23303
873.561	23220
873.69	23193
873.819	23155
873.948	23326
874.077	23197
874.206	23181
874.335	23216
874.464	23307
874.593	23410
874.722	23425
874.851	23318
874.979	23425
875.108	23486
875.237	23353
875.365	23395
875.494	23368
875.623	23387
875.751	23379
875.88	23459
876.008	23482
876.136	23611
876.265	23771
876.393	23923
876.521	23912
876.65	23802
876.778	23828
876.906	23638
877.034	23687
877.162	23729
877.29	23661
877.418	23798
877.546	23779
877.674	23764
877.802	23771
877.93	23668
878.058	23638
878.185	23615
878.313	23638
878.441	23611
878.568	23592
878.696	23733
878.824	23866
878.951	23969
879.079	23882
879.206	23999
879.333	23863
879.461	23695
879.588	23760
879.715	23939
879.842	23988
879.97	23851
880.097	23482
880.224	23425
880.351	23520
880.478	23573
880.605	23482
880.732	23543
880.859	23771
880.986	23535
881.112	23554
881.239	23455
881.366	23398
881.493	23200
881.619	23216
881.746	23242
881.872	23166
881.999	23098
882.125	22999
882.252	23094
882.378	23083
882.505	23235
882.631	22904
882.757	22717
882.883	22904
883.01	22831
883.136	22744
883.262	22675
883.388	22554
883.514	22759
883.64	22839
883.766	22675
883.892	22569
884.018	22546
884.143	22679
884.269	22725
884.395	22375
884.52	22470
884.646	22470
884.772	22424
884.897	22428
885.023	22519
885.148	22424
885.274	22516
885.399	22436
885.524	22398
885.65	22440
885.775	22402
885.9	22382
886.025	22516
886.15	22584
886.275	22375
886.4	22417
886.525	22394
886.65	22253
886.775	22299
886.9	22436
887.025	22580
887.149	22265
887.274	22173
887.399	22131
887.523	22124
887.648	22025
887.773	21979
887.897	22242
888.021	22299
888.146	22040
888.27	22226
888.395	22276
888.519	22131
888.643	22059
888.767	22284
888.891	22128
889.015	22025
889.139	22093
889.263	21797
889.387	22032
889.511	22242
889.635	22059
889.759	22002
889.883	21892
890.006	22025
890.13	21949
890.254	21880
890.377	21835
890.501	21572
890.624	21766
890.748	21694
890.871	21610
890.995	21599
891.118	21420
891.241	21549
891.364	21587
891.488	21622
891.611	21447
891.734	21500
891.857	21469
891.98	21462
892.103	21450
892.226	21466
892.349	21386
892.471	21249
892.594	21466
892.717	21382
892.839	21412
892.962	21367
893.085	21412
893.207	21450
893.33	21306
893.452	21298
893.575	21420
893.697	21386
893.819	21507
893.941	21618
894.064	21496
894.186	21329
894.308	21302
894.43	21374
894.552	21557
894.674	21401
894.796	21211
894.918	21256
895.04	21389
895.161	21264
895.283	21294
895.405	21169
895.526	21485
895.648	21473
895.769	21378
895.891	21416
896.012	21355
896.134	21412
896.255	21351
896.376	21195
896.498	21287
896.619	21306
896.74	21428
896.861	21435
896.982	21580
897.103	21778
897.224	21625
897.345	21534
897.466	21492
897.587	21648
897.708	21606
897.828	21530
897.949	21401
898.07	21351
898.19	21469
898.311	21587
898.431	21435
898.552	21519
898.672	21557
898.792	21793
898.913	21572
899.033	21401
899.153	21275
899.273	21245
899.393	21401
899.513	21348
899.633	21260
899.753	21370
899.873	21256
899.993	21351
900.113	21230
900.232	21268
900.352	21123
900.472	21074
900.591	21047
900.711	21039
900.83	21104
900.95	21032
901.069	21188
901.189	20971
901.308	20659
901.427	20499
901.546	20670
901.665	20568
901.784	20651
901.904	20476
902.023	20457
902.141	20180
902.26	20191
902.379	20313
902.498	20073
902.617	20149
902.735	20138
902.854	20153
902.973	19951
903.091	19811
903.21	19727
903.328	19704
903.446	19712
903.565	19556
903.683	19594
903.801	19392
903.919	19453
904.038	19453
904.156	19377
904.274	19365
904.392	19270
904.51	19209
904.627	19301
904.745	19244
904.863	19464
904.981	19084
905.098	18989
905.216	18958
905.334	18981
905.451	19050
905.569	18970
905.686	18989
905.803	18875
905.921	18772
906.038	18875
906.155	18772
906.272	18631
906.389	18722
906.506	18506
906.623	18559
906.74	18509
906.857	18460
906.974	18395
907.091	18509
907.208	18688
907.324	18528
907.441	18319
907.557	18174
907.674	18292
907.79	18106
907.907	18133
908.023	18167
908.139	18117
908.256	18087
908.372	18095
908.488	18114
908.604	18007
908.72	17954
908.836	17901
908.952	17832
909.068	17958
909.184	18007
909.3	17885
909.415	17931
909.531	17859
909.647	17657
909.762	17581
909.878	17512
909.993	17566
910.108	17562
910.224	17630
910.339	17471
910.454	17581
910.57	17448
910.685	17322
910.8	17600
910.915	17577
911.03	17376
911.145	17227
911.259	17242
911.374	17200
911.489	17170
911.604	17155
911.718	17018
911.833	16972
911.947	16816
912.062	16778
912.176	16927
912.291	17014
912.405	16934
912.519	17098
912.633	17018
912.748	16942
912.862	16805
912.976	16733
913.09	16618
913.204	16717
913.318	16729
913.431	16866
913.545	16812
913.659	16816
913.772	16656
913.886	16527
914	16417
914.113	16615
914.226	16706
914.34	16565
914.453	16314
914.566	16527
914.68	16352
914.793	16314
914.906	16204
915.019	16154
915.132	16078
915.245	16017
915.358	16135
915.47	16078
915.583	15975
915.696	16124
915.809	16238
915.921	16318
916.034	16010
916.146	15983
916.259	15949
916.371	16105
916.483	15926
916.595	15915
916.708	15949
916.82	15941
916.932	15838
917.044	15842
917.156	15846
917.268	15755
917.38	15747
917.491	15770
917.603	15759
917.715	15804
917.826	15831
917.938	15606
918.049	15523
918.161	15641
918.272	15766
918.384	15762
918.495	15584
918.606	15488
918.717	15389
918.828	15477
918.939	15530
919.05	15329
919.161	15420
919.272	15237
919.383	15203
919.494	15443
919.604	15648
919.715	15416
919.826	15325
919.936	15291
920.047	15462
920.157	15408
920.267	15629
920.378	15443
920.488	15298
920.598	15534
920.708	15629
920.818	15473
920.928	15397
921.038	15622
921.148	15584
921.258	15252
921.368	15283
921.477	15055
921.587	15154
921.697	15032
921.806	15207
921.916	14967
922.025	14792
922.134	14727
922.244	14655
922.353	14785
922.462	14579
922.571	14560
922.68	14415
922.789	14320
922.898	14389
923.007	14336
923.116	14476
923.224	14339
923.333	14396
923.442	14305
923.55	14157
923.659	14153
923.767	14252
923.876	14115
923.984	14183
924.092	14031
924.201	14145
924.309	14065
924.417	14134
924.525	13989
924.633	14027
924.741	14941
924.849	13807
924.956	13967
925.064	13738
925.172	13849
925.279	13784
925.387	13784
925.494	13700
925.602	13803
925.709	13750
925.816	13632
925.924	13731
926.031	13822
926.138	13712
926.245	13666
926.352	13563
926.459	13719
926.566	13670
926.673	13601
926.779	13483
926.886	13430
926.993	13381
927.099	13308
927.206	13198
927.312	13282
927.419	13358
927.525	13251
927.631	13331
927.737	13088
927.843	13149
927.95	12993
928.056	13038
928.162	13160
928.267	13217
928.373	13738
928.479	13126
928.585	12920
928.69	13129
928.796	13061
928.901	12905
929.007	12802
929.112	12894
929.218	12825
929.323	12886
929.428	12745
929.533	12840
929.638	12734
929.743	12726
929.848	12677
929.953	12692
930.058	12506
930.163	12494
930.267	12429
930.372	12555
930.477	12399
930.581	12631
930.685	12475
930.79	12346
930.894	12323
930.998	12266
931.103	12486
931.207	12015
931.311	11954
931.415	11874
931.519	11710
931.623	11699
