Data from test_V78500241_154.txt Node
Date: Fri Mar 25 15:42:52 CST 2022
User: usil
Spectrometer: V785-0024
Trigger mode: 0
Integration Time (sec): 4.000000E-1
Scans to average: 1
Nonlinearity correction enabled: false
Boxcar width: 0
Storing dark spectrum: false
XAxis mode: Wavelengths
Number of Pixels in Spectrum: 1024
>>>>>Begin Spectral Data<<<<<
801.071	29535
801.214	29665
801.356	29318
801.499	29410
801.641	29162
801.783	29174
801.926	29117
802.068	29147
802.211	29006
802.353	28980
802.496	28854
802.638	28733
802.78	28725
802.923	28679
803.065	28656
803.208	28713
803.35	28847
803.492	28774
803.635	28957
803.777	28824
803.919	28919
804.061	29235
804.204	28976
804.346	28828
804.488	28866
804.63	28854
804.773	28660
804.915	28809
805.057	29044
805.199	28809
805.341	28862
805.483	29025
805.626	28938
805.768	28919
805.91	29041
806.052	29079
806.194	28949
806.336	29303
806.478	29056
806.62	29060
806.762	29064
806.904	29128
807.046	29478
807.188	29318
807.33	29425
807.472	29448
807.614	29162
807.756	29372
807.898	29117
808.04	29143
808.182	29216
808.324	29193
808.465	29159
808.607	29379
808.749	29417
808.891	29592
809.033	29649
809.174	29566
809.316	29356
809.458	29478
809.6	29398
809.741	29661
809.883	29623
810.025	29836
810.166	29798
810.308	29668
810.45	29589
810.591	29623
810.733	29585
810.875	29383
811.016	29360
811.158	29383
811.299	29490
811.441	29703
811.582	29604
811.724	29318
811.865	29387
812.007	29417
812.148	29471
812.29	29493
812.431	29691
812.573	29707
812.714	29901
812.855	29958
812.997	29996
813.138	30152
813.279	29980
813.421	30011
813.562	29798
813.703	29737
813.845	29596
813.986	29258
814.127	29181
814.268	29083
814.41	29052
814.551	29067
814.692	29117
814.833	28949
814.974	29041
815.115	29147
815.256	28938
815.397	28793
815.539	28923
815.68	28767
815.821	28729
815.962	28831
816.103	28854
816.244	28630
816.385	28531
816.526	28694
816.666	28413
816.807	28333
816.948	28276
817.089	28295
817.23	28143
817.371	28295
817.512	28124
817.653	28063
817.793	28162
817.934	28147
818.075	28238
818.216	28287
818.356	28166
818.497	28055
818.638	27842
818.778	27922
818.919	27953
819.06	28086
819.2	28070
819.341	28181
819.481	28086
819.622	28223
819.762	28405
819.903	28440
820.043	28299
820.184	28188
820.324	28185
820.465	28322
820.605	28306
820.746	28272
820.886	27964
821.026	28177
821.167	28154
821.307	28135
821.447	28086
821.588	27949
821.728	27724
821.868	27682
822.008	27599
822.149	27504
822.289	27583
822.429	27405
822.569	27260
822.709	27317
822.849	27116
822.99	27104
823.13	26887
823.27	26891
823.41	26735
823.55	26473
823.69	26807
823.83	26823
823.97	26659
824.11	26625
824.25	26636
824.389	26560
824.529	26602
824.669	26606
824.809	26632
824.949	26670
825.089	26705
825.228	26488
825.368	26385
825.508	26343
825.648	26347
825.787	26541
825.927	26400
826.067	26594
826.206	26404
826.346	26575
826.485	26446
826.625	26324
826.765	26393
826.904	26473
827.044	26111
827.183	26199
827.323	26073
827.462	25986
827.601	26096
827.741	25947
827.88	26084
828.02	25959
828.159	26084
828.298	26046
828.437	26035
828.577	25826
828.716	26122
828.855	25986
828.994	25731
829.134	25898
829.273	25769
829.412	25750
829.551	25723
829.69	25643
829.829	25738
829.968	25731
830.107	25761
830.246	25655
830.385	25529
830.524	25616
830.663	25514
830.802	25430
830.941	25202
831.08	25202
831.219	25373
831.357	25403
831.496	25563
831.635	25232
831.774	25171
831.913	25141
832.051	24985
832.19	25053
832.329	25050
832.467	24825
832.606	24776
832.744	24932
832.883	24707
833.022	24928
833.16	24856
833.299	24958
833.437	24829
833.576	24932
833.714	24703
833.852	24958
833.991	24863
834.129	25046
834.267	24935
834.406	24924
834.544	24886
834.682	24871
834.821	24852
834.959	24928
835.097	24757
835.235	24886
835.373	24776
835.511	24875
835.65	24798
835.788	24722
835.926	24604
836.064	24471
836.202	24475
836.34	24646
836.478	24772
836.615	24669
836.753	24757
836.891	24681
837.029	24700
837.167	24677
837.305	24597
837.443	24585
837.58	24528
837.718	24608
837.856	24502
837.993	24399
838.131	24540
838.269	24323
838.406	24391
838.544	24281
838.681	24186
838.819	24091
838.956	23882
839.094	23824
839.231	23916
839.369	24125
839.506	24228
839.643	24178
839.781	23931
839.918	23843
840.055	23821
840.193	23847
840.33	23737
840.467	23901
840.604	23794
840.742	23950
840.879	23680
841.016	23638
841.153	23668
841.29	23893
841.427	23786
841.564	23843
841.701	23726
841.838	23649
841.975	23668
842.112	23672
842.249	23600
842.385	23520
842.522	23771
842.659	23543
842.796	23505
842.933	23440
843.069	23307
843.206	23383
843.343	23539
843.479	23509
843.616	23551
843.752	23216
843.889	23292
844.025	23425
844.162	23140
844.298	23292
844.435	23147
844.571	23132
844.708	23155
844.844	23280
844.98	23273
845.117	23299
845.253	23155
845.389	22976
845.525	23022
845.661	23098
845.798	22976
845.934	23029
846.07	22854
846.206	22900
846.342	23121
846.478	23003
846.614	22755
846.75	22561
846.886	22546
847.022	22752
847.158	22615
847.294	22736
847.429	22675
847.565	22622
847.701	22721
847.837	22386
847.972	22295
848.108	22432
848.244	22306
848.379	22131
848.515	22185
848.65	22185
848.786	22188
848.921	22078
849.057	22284
849.192	22360
849.328	22314
849.463	22147
849.598	22109
849.734	22173
849.869	22078
850.004	21922
850.14	21998
850.275	21800
850.41	21797
850.545	21812
850.68	21831
850.815	21873
850.95	21835
851.085	22078
851.22	21934
851.355	21922
851.49	21774
851.625	21869
851.76	21774
851.895	21770
852.03	21876
852.165	21770
852.299	21994
852.434	21895
852.569	21956
852.703	21800
852.838	21895
852.973	22010
853.107	22082
853.242	21766
853.376	21587
853.511	21587
853.645	21713
853.78	21823
853.914	21641
854.048	21789
854.183	21648
854.317	21793
854.451	21759
854.585	21610
854.72	21675
854.854	21648
854.988	21724
855.122	21686
855.256	21450
855.39	21606
855.524	21778
855.658	21713
855.792	21679
855.926	21675
856.06	21576
856.194	21736
856.327	21625
856.461	21507
856.595	21614
856.729	21698
856.862	21736
856.996	21599
857.13	21709
857.263	21701
857.397	21865
857.53	21549
857.664	21717
857.797	21781
857.931	21671
858.064	21629
858.197	21705
858.331	21591
858.464	21591
858.597	21519
858.731	21549
858.864	21447
858.997	21660
859.13	21572
859.263	21656
859.396	21652
859.529	21652
859.662	21500
859.795	21488
859.928	21564
860.061	21644
860.194	21762
860.327	21595
860.46	21519
860.592	21663
860.725	21770
860.858	21732
860.99	21629
861.123	21424
861.256	21500
861.388	21580
861.521	22101
861.653	21496
861.786	21389
861.918	21447
862.05	21583
862.183	21595
862.315	21629
862.447	21599
862.58	21549
862.712	21504
862.844	21252
862.976	21458
863.108	21401
863.24	21622
863.372	21272
863.504	21363
863.636	21214
863.768	21329
863.9	21195
864.032	21043
864.164	21252
864.296	21264
864.428	21428
864.559	21340
864.691	21226
864.823	21222
864.954	21294
865.086	21260
865.217	21294
865.349	21089
865.48	21116
865.612	21089
865.743	21329
865.875	21184
866.006	21192
866.137	21184
866.269	21161
866.4	21123
866.531	21127
866.662	21138
866.793	21150
866.924	21131
867.055	21093
867.186	21252
867.317	21055
867.448	20967
867.579	21024
867.71	21043
867.841	21089
867.972	21085
868.103	20990
868.233	21096
868.364	21001
868.495	21260
868.625	21291
868.756	21462
868.886	21176
869.017	21370
869.147	21389
869.278	21351
869.408	21351
869.539	21348
869.669	21355
869.799	21458
869.929	21542
870.06	21496
870.19	21603
870.32	21724
870.45	21690
870.58	21766
870.71	21869
870.84	21819
870.97	21679
871.1	21671
871.23	21865
871.36	21983
871.489	21838
871.619	21899
871.749	21998
871.879	22017
872.008	22086
872.138	21854
872.267	21907
872.397	21846
872.526	21854
872.656	21819
872.785	21785
872.915	21998
873.044	22090
873.173	22017
873.303	22036
873.432	22116
873.561	22124
873.69	21987
873.819	21823
873.948	22128
874.077	22063
874.206	21994
874.335	22013
874.464	22112
874.593	22268
874.722	22238
874.851	22257
874.979	22272
875.108	22196
875.237	22090
875.365	22013
875.494	22177
875.623	22314
875.751	22128
875.88	22128
876.008	22322
876.136	22287
876.265	22630
876.393	22725
876.521	22744
876.65	22672
876.778	22599
876.906	22656
877.034	22611
877.162	22531
877.29	22356
877.418	22455
877.546	22542
877.674	22607
877.802	22497
877.93	22489
878.058	22447
878.185	22379
878.313	22478
878.441	22565
878.568	22363
878.696	22329
878.824	22523
878.951	22596
879.079	22869
879.206	22858
879.333	22820
879.461	22554
879.588	22569
879.715	22706
879.842	22873
879.97	22599
880.097	22310
880.224	22390
880.351	22428
880.478	22394
880.605	22303
880.732	22356
880.859	22580
880.986	22402
881.112	22428
881.239	22314
881.366	22029
881.493	22074
881.619	21937
881.746	21964
881.872	22002
881.999	21766
882.125	21865
882.252	21949
882.378	21953
882.505	22074
882.631	21850
882.757	21724
882.883	21857
883.01	21614
883.136	21614
883.262	21515
883.388	21500
883.514	21648
883.64	21648
883.766	21591
883.892	21397
884.018	21526
884.143	21671
884.269	21759
884.395	21245
884.52	21188
884.646	21218
884.772	21351
884.897	21207
885.023	21249
885.148	21458
885.274	21511
885.399	21561
885.524	21260
885.65	21386
885.775	21329
885.9	21340
886.025	21416
886.15	21321
886.275	21081
886.4	21199
886.525	21306
886.65	21264
886.775	21260
886.9	21302
887.025	21481
887.149	21264
887.274	21058
887.399	21013
887.523	21066
887.648	20960
887.773	20994
887.897	21161
888.021	21024
888.146	21123
888.27	21081
888.395	21112
888.519	21138
888.643	20975
888.767	21089
888.891	20979
889.015	20925
889.139	20796
889.263	20891
889.387	20819
889.511	21024
889.635	20963
889.759	20883
889.883	20682
890.006	20819
890.13	20956
890.254	20663
890.377	20667
890.501	20549
890.624	20484
890.748	20579
890.871	20461
890.995	20431
891.118	20351
891.241	20351
891.364	20294
891.488	20522
891.611	20336
891.734	20492
891.857	20495
891.98	20446
892.103	20336
892.226	20301
892.349	20271
892.471	20195
892.594	20248
892.717	20351
892.839	20229
892.962	20339
893.085	20309
893.207	20301
893.33	20210
893.452	20294
893.575	20301
893.697	20313
893.819	20442
893.941	20526
894.064	20473
894.186	20244
894.308	20191
894.43	20415
894.552	20473
894.674	20332
894.796	20176
894.918	20301
895.04	20301
895.161	20324
895.283	20381
895.405	20214
895.526	20298
895.648	20301
895.769	20275
895.891	20248
896.012	20305
896.134	20225
896.255	20290
896.376	20370
896.498	20412
896.619	20267
896.74	20336
896.861	20385
896.982	20701
897.103	20811
897.224	20693
897.345	20564
897.466	20499
897.587	20530
897.708	20849
897.828	20571
897.949	20518
898.07	20408
898.19	20514
898.311	20564
898.431	20473
898.552	20564
898.672	20560
898.792	20503
898.913	20423
899.033	20351
899.153	20336
899.273	20191
899.393	20229
899.513	20267
899.633	20081
899.753	20237
899.873	20054
899.993	20180
900.113	20024
900.232	20069
900.352	20103
900.472	20008
900.591	19906
900.711	20020
900.83	19951
900.95	20016
901.069	20081
901.189	19811
901.308	19658
901.427	19590
901.546	19563
901.665	19578
901.784	19655
901.904	19434
902.023	19346
902.141	19206
902.26	19065
902.379	19175
902.498	18996
902.617	19034
902.735	19187
902.854	18993
902.973	19012
903.091	18734
903.21	18650
903.328	18669
903.446	18646
903.565	18593
903.683	18570
903.801	18483
903.919	18506
904.038	18437
904.156	18296
904.274	18467
904.392	18273
904.51	18216
904.627	18285
904.745	18391
904.863	18163
904.981	17950
905.098	18007
905.216	17866
905.334	18049
905.451	17958
905.569	18007
905.686	17916
905.803	17912
905.921	17775
906.038	17836
906.155	17760
906.272	17676
906.389	17668
906.506	17547
906.623	17535
906.74	17356
906.857	17299
906.974	17197
907.091	17353
907.208	17604
907.324	17421
907.441	17356
907.557	17117
907.674	17159
907.79	16965
907.907	17098
908.023	17094
908.139	17143
908.256	17140
908.372	16991
908.488	17075
908.604	16862
908.72	16740
908.836	16831
908.952	16767
909.068	16892
909.184	16850
909.3	16812
909.415	16847
909.531	16767
909.647	16516
909.762	16512
909.878	16481
909.993	16531
910.108	16558
910.224	16451
910.339	16390
910.454	16322
910.57	16226
910.685	16280
910.8	16561
910.915	16512
911.03	16246
911.145	16067
911.259	16150
911.374	16139
911.489	15964
911.604	15953
911.718	15884
911.833	15816
911.947	15816
912.062	15793
912.176	15781
912.291	15903
912.405	15911
912.519	16036
912.633	15998
912.748	15937
912.862	15778
912.976	15789
913.09	15519
913.204	15542
913.318	15709
913.431	15698
913.545	15637
913.659	15717
913.772	15603
913.886	15492
914	15382
914.113	15481
914.226	15504
914.34	15500
914.453	15233
914.566	15458
914.68	15306
914.793	15192
914.906	15093
915.019	15146
915.132	15032
915.245	14979
915.358	14986
915.47	15032
915.583	14990
915.696	15089
915.809	15123
915.921	15211
916.034	14967
916.146	14899
916.259	14925
916.371	15032
916.483	15039
916.595	14887
916.708	14925
916.82	14857
916.932	14758
917.044	14800
917.156	14872
917.268	14724
917.38	14617
917.491	14686
917.603	14697
917.715	14777
917.826	14735
917.938	14682
918.049	14613
918.161	14564
918.272	14785
918.384	14788
918.495	14632
918.606	14503
918.717	14317
918.828	14434
918.939	14499
919.05	14362
919.161	14495
919.272	14195
919.383	14259
919.494	14431
919.604	14629
919.715	14442
919.826	14343
919.936	14301
920.047	14396
920.157	14400
920.267	14488
920.378	14294
920.488	14328
920.598	14530
920.708	14598
920.818	14423
920.928	14568
921.038	14590
921.148	14720
921.258	14358
921.368	14248
921.477	14134
921.587	14229
921.697	14001
921.806	14164
921.916	13993
922.025	13864
922.134	13742
922.244	13731
922.353	13799
922.462	13727
922.571	13613
922.68	13411
922.789	13415
922.898	13419
923.007	13289
923.116	13419
923.224	13316
923.333	13331
923.442	13187
923.55	13217
923.659	13228
923.767	13293
923.876	13122
923.984	13187
924.092	13114
924.201	13164
924.309	13080
924.417	13103
924.525	13122
924.633	13015
924.741	13795
924.849	12852
924.956	12993
925.064	12909
925.172	12760
925.279	12764
925.387	12859
925.494	12882
925.602	12916
925.709	12810
925.816	12722
925.924	12772
926.031	12859
926.138	12760
926.245	12768
926.352	12741
926.459	12787
926.566	12833
926.673	12597
926.779	12593
926.886	12582
926.993	12388
927.099	12418
927.206	12315
927.312	12273
927.419	12330
927.525	12410
927.631	12369
927.737	12148
927.843	12197
927.95	12091
928.056	12232
928.162	12194
928.267	12304
928.373	12749
928.479	12273
928.585	11939
928.69	12167
928.796	12121
928.901	11973
929.007	11927
929.112	12026
929.218	12019
929.323	11984
929.428	11973
929.533	11980
929.638	11908
929.743	11851
929.848	11859
929.953	11870
930.058	11786
930.163	11570
930.267	11600
930.372	11729
930.477	11512
930.581	11813
930.685	11592
930.79	11471
930.894	11497
930.998	11391
931.103	11604
931.207	11189
931.311	11197
931.415	11048
931.519	10908
931.623	10904
