Data from test_V78500241_2695.txt Node
Date: Fri Mar 25 16:00:28 CST 2022
User: usil
Spectrometer: V785-0024
Trigger mode: 0
Integration Time (sec): 4.000000E-1
Scans to average: 1
Nonlinearity correction enabled: false
Boxcar width: 0
Storing dark spectrum: false
XAxis mode: Wavelengths
Number of Pixels in Spectrum: 1024
>>>>>Begin Spectral Data<<<<<
801.071	28729
801.214	28672
801.356	28421
801.499	28409
801.641	28306
801.783	28447
801.926	28478
802.068	28287
802.211	28272
802.353	28280
802.496	28082
802.638	28131
802.78	28044
802.923	27930
803.065	27785
803.208	27907
803.35	28017
803.492	28124
803.635	28196
803.777	28173
803.919	28341
804.061	28493
804.204	28360
804.346	28120
804.488	28128
804.63	28242
804.773	28143
804.915	28329
805.057	28424
805.199	28234
805.341	28390
805.483	28333
805.626	28512
805.768	28382
805.91	28344
806.052	28523
806.194	28322
806.336	28470
806.478	28390
806.62	28443
806.762	28577
806.904	28713
807.046	28942
807.188	28793
807.33	28927
807.472	28976
807.614	28805
807.756	28877
807.898	28725
808.04	28584
808.182	28637
808.324	28831
808.465	28873
808.607	28953
808.749	29155
808.891	29223
809.033	29246
809.174	29166
809.316	29071
809.458	28961
809.6	29014
809.741	29227
809.883	29277
810.025	29505
810.166	29383
810.308	29490
810.45	29288
810.591	29303
810.733	29181
810.875	29128
811.016	29033
811.158	29132
811.299	29280
811.441	29258
811.582	29208
811.724	29159
811.865	29147
812.007	29071
812.148	29242
812.29	29288
812.431	29345
812.573	29497
812.714	29615
812.855	29657
812.997	29600
813.138	29809
813.279	29741
813.421	29668
813.562	29680
813.703	29581
813.845	29261
813.986	28991
814.127	28934
814.268	28938
814.41	28850
814.551	28729
814.692	28987
814.833	28725
814.974	28847
815.115	28915
815.256	28801
815.397	28618
815.539	28580
815.68	28755
815.821	28592
815.962	28679
816.103	28577
816.244	28527
816.385	28478
816.526	28519
816.666	28246
816.807	28211
816.948	28226
817.089	28299
817.23	28181
817.371	28215
817.512	28109
817.653	28147
817.793	28032
817.934	27987
818.075	28261
818.216	28215
818.356	28036
818.497	28135
818.638	27854
818.778	27968
818.919	27937
819.06	28029
819.2	28074
819.341	28360
819.481	28200
819.622	28424
819.762	28386
819.903	28451
820.043	28371
820.184	28192
820.324	28295
820.465	28272
820.605	28280
820.746	28181
820.886	28090
821.026	28154
821.167	28322
821.307	28318
821.447	28284
821.588	28048
821.728	27850
821.868	27835
822.008	27694
822.149	27671
822.289	27564
822.429	27370
822.569	27344
822.709	27401
822.849	27207
822.99	27165
823.13	27195
823.27	27036
823.41	27112
823.55	26895
823.69	26952
823.83	26880
823.97	26925
824.11	26773
824.25	26842
824.389	26819
824.529	26815
824.669	26823
824.809	26902
824.949	26914
825.089	26891
825.228	26857
825.368	26823
825.508	26735
825.648	26727
825.787	26697
825.927	26663
826.067	26640
826.206	26609
826.346	26670
826.485	26754
826.625	26625
826.765	26781
826.904	26830
827.044	26480
827.183	26469
827.323	26256
827.462	26526
827.601	26381
827.741	26461
827.88	26453
828.02	26385
828.159	26415
828.298	26332
828.437	26450
828.577	26568
828.716	26518
828.855	26393
828.994	26084
829.134	26134
829.273	26096
829.412	26088
829.551	25986
829.69	26073
829.829	26008
829.968	26103
830.107	26134
830.246	26008
830.385	26100
830.524	25932
830.663	25947
830.802	25849
830.941	25666
831.08	25704
831.219	25807
831.357	25879
831.496	25955
831.635	25651
831.774	25590
831.913	25628
832.051	25556
832.19	25514
832.329	25495
832.467	25445
832.606	25335
832.744	25362
832.883	25365
833.022	25331
833.16	25426
833.299	25499
833.437	25445
833.576	25495
833.714	25430
833.852	25468
833.991	25559
834.129	25586
834.267	25453
834.406	25460
834.544	25540
834.682	25544
834.821	25415
834.959	25670
835.097	25464
835.235	25472
835.373	25449
835.511	25529
835.65	25259
835.788	25373
835.926	25164
836.064	25095
836.202	25129
836.34	25301
836.478	25533
836.615	25152
836.753	25312
836.891	25274
837.029	25251
837.167	25316
837.305	25206
837.443	25088
837.58	25152
837.718	25217
837.856	25156
837.993	25034
838.131	25015
838.269	25004
838.406	24913
838.544	24939
838.681	24700
838.819	24779
838.956	24525
839.094	24555
839.231	24681
839.369	24681
839.506	24973
839.643	24798
839.781	24589
839.918	24414
840.055	24521
840.193	24502
840.33	24544
840.467	24536
840.604	24620
840.742	24757
840.879	24308
841.016	24452
841.153	24353
841.29	24574
841.427	24357
841.564	24384
841.701	24422
841.838	24391
841.975	24357
842.112	24407
842.249	24296
842.385	24201
842.522	24490
842.659	24464
842.796	24277
842.933	24254
843.069	24167
843.206	24194
843.343	24388
843.479	24239
843.616	24243
843.752	23977
843.889	23973
844.025	24186
844.162	23939
844.298	24174
844.435	23988
844.571	24057
844.708	24167
844.844	24251
844.98	24136
845.117	24178
845.253	24003
845.389	23802
845.525	23836
845.661	23866
845.798	23779
845.934	23828
846.07	23805
846.206	23783
846.342	23885
846.478	23672
846.614	23589
846.75	23288
846.886	23360
847.022	23600
847.158	23558
847.294	23444
847.429	23455
847.565	23459
847.701	23779
847.837	23261
847.972	23166
848.108	23356
848.244	23318
848.379	23079
848.515	23105
848.65	22968
848.786	23083
848.921	23037
849.057	23151
849.192	23117
849.328	23098
849.463	23041
849.598	22965
849.734	23041
849.869	22934
850.004	22858
850.14	22793
850.275	22839
850.41	22691
850.545	22767
850.68	22752
850.815	22790
850.95	22881
851.085	22881
851.22	22771
851.355	22869
851.49	22835
851.625	22744
851.76	22812
851.895	22729
852.03	22740
852.165	22831
852.299	22782
852.434	22873
852.569	22744
852.703	22892
852.838	22938
852.973	22965
853.107	23006
853.242	22653
853.376	22565
853.511	22485
853.645	22584
853.78	22668
853.914	22664
854.048	22592
854.183	22554
854.317	22653
854.451	22881
854.585	22668
854.72	22580
854.854	22660
854.988	22485
855.122	22653
855.256	22436
855.39	22569
855.524	22634
855.658	22733
855.792	22634
855.926	22721
856.06	22656
856.194	22687
856.327	22565
856.461	22565
856.595	22489
856.729	22653
856.862	22889
856.996	22561
857.13	22683
857.263	22752
857.397	22713
857.53	22615
857.664	22649
857.797	22702
857.931	22683
858.064	22687
858.197	22721
858.331	22588
858.464	22649
858.597	22523
858.731	22466
858.864	22664
858.997	22584
859.13	22626
859.263	22698
859.396	22744
859.529	22618
859.662	22489
859.795	22653
859.928	22603
860.061	22759
860.194	22839
860.327	22694
860.46	22653
860.592	22805
860.725	22816
860.858	22752
860.99	22668
861.123	22615
861.256	22596
861.388	22527
861.521	23273
861.653	22516
861.786	22462
861.918	22459
862.05	22470
862.183	22485
862.315	22641
862.447	22554
862.58	22561
862.712	22432
862.844	22261
862.976	22348
863.108	22508
863.24	22713
863.372	22268
863.504	22375
863.636	22341
863.768	22265
863.9	22276
864.032	22154
864.164	22303
864.296	22310
864.428	22379
864.559	22443
864.691	22379
864.823	22390
864.954	22291
865.086	22371
865.217	22230
865.349	22078
865.48	22223
865.612	22116
865.743	22238
865.875	22162
866.006	22310
866.137	22272
866.269	22272
866.4	22048
866.531	22162
866.662	21983
866.793	22101
866.924	22070
867.055	22143
867.186	22181
867.317	22166
867.448	22120
867.579	22002
867.71	22086
867.841	22010
867.972	22124
868.103	22120
868.233	22147
868.364	22181
868.495	22265
868.625	22421
868.756	22508
868.886	22147
869.017	22379
869.147	22474
869.278	22443
869.408	22405
869.539	22329
869.669	22440
869.799	22413
869.929	22592
870.06	22394
870.19	22713
870.32	22580
870.45	22713
870.58	22733
870.71	22869
870.84	22854
870.97	22710
871.1	22778
871.23	23006
871.36	22934
871.489	22881
871.619	22889
871.749	23025
871.879	22968
872.008	23079
872.138	23025
872.267	22877
872.397	22858
872.526	22729
872.656	22843
872.785	22793
872.915	23060
873.044	23113
873.173	22858
873.303	23075
873.432	22972
873.561	23094
873.69	22934
873.819	23056
873.948	23056
874.077	22904
874.206	22980
874.335	22930
874.464	22930
874.593	23185
874.722	23178
874.851	23189
874.979	23246
875.108	23216
875.237	23117
875.365	23223
875.494	23265
875.623	23258
875.751	23200
875.88	23239
876.008	23356
876.136	23360
876.265	23623
876.393	23741
876.521	23596
876.65	23638
876.778	23433
876.906	23520
877.034	23471
877.162	23638
877.29	23600
877.418	23604
877.546	23528
877.674	23505
877.802	23387
877.93	23524
878.058	23436
878.185	23414
878.313	23528
878.441	23482
878.568	23395
878.696	23379
878.824	23535
878.951	23558
879.079	23756
879.206	23874
879.333	23665
879.461	23570
879.588	23649
879.715	23722
879.842	23809
879.97	23581
880.097	23383
880.224	23349
880.351	23444
880.478	23463
880.605	23337
880.732	23360
880.859	23604
880.986	23220
881.112	23356
881.239	23258
881.366	23121
881.493	23018
881.619	22877
881.746	23003
881.872	23037
881.999	22778
882.125	22797
882.252	22953
882.378	22843
882.505	23022
882.631	22660
882.757	22774
882.883	22656
883.01	22466
883.136	22607
883.262	22390
883.388	22440
883.514	22660
883.64	22630
883.766	22424
883.892	22238
884.018	22382
884.143	22542
884.269	22573
884.395	22204
884.52	22234
884.646	22101
884.772	22169
884.897	22082
885.023	22207
885.148	22390
885.274	22272
885.399	22249
885.524	22223
885.65	22215
885.775	22257
885.9	22272
886.025	22314
886.15	22272
886.275	22135
886.4	22181
886.525	22173
886.65	22082
886.775	22154
886.9	22318
887.025	22424
887.149	22169
887.274	21960
887.399	21991
887.523	21994
887.648	21907
887.773	21892
887.897	22067
888.021	22006
888.146	21903
888.27	22105
888.395	22051
888.519	22135
888.643	21941
888.767	22090
888.891	21899
889.015	21800
889.139	21937
889.263	21713
889.387	21819
889.511	21934
889.635	21751
889.759	21759
889.883	21785
890.006	21747
890.13	21831
890.254	21724
890.377	21618
890.501	21526
890.624	21561
890.748	21568
890.871	21378
890.995	21249
891.118	21291
891.241	21275
891.364	21264
891.488	21458
891.611	21226
891.734	21310
891.857	21294
891.98	21237
892.103	21302
892.226	21329
892.349	21222
892.471	21096
892.594	21161
892.717	21195
892.839	21180
892.962	21275
893.085	21169
893.207	21245
893.33	21135
893.452	21214
893.575	21249
893.697	21108
893.819	21226
893.941	21348
894.064	21374
894.186	21032
894.308	21032
894.43	21367
894.552	21454
894.674	21317
894.796	21131
894.918	21275
895.04	21214
895.161	21199
895.283	21245
895.405	20994
895.526	21317
895.648	21184
895.769	21195
895.891	21268
896.012	21226
896.134	21351
896.255	21161
896.376	21218
896.498	21119
896.619	21176
896.74	21218
896.861	21249
896.982	21424
897.103	21523
897.224	21473
897.345	21355
897.466	21291
897.587	21389
897.708	21462
897.828	21454
897.949	21169
898.07	21306
898.19	21348
898.311	21428
898.431	21340
898.552	21355
898.672	21408
898.792	21488
898.913	21401
899.033	21340
899.153	21211
899.273	21066
899.393	21131
899.513	21123
899.633	21093
899.753	21051
899.873	20971
899.993	21081
900.113	20902
900.232	21108
900.352	21001
900.472	20918
900.591	20785
900.711	20948
900.83	20785
900.95	20906
901.069	20975
901.189	20689
901.308	20518
901.427	20339
901.546	20492
901.665	20484
901.784	20393
901.904	20336
902.023	20191
902.141	20012
902.26	19890
902.379	20183
902.498	19917
902.617	19947
902.735	19925
902.854	19928
902.973	19826
903.091	19613
903.21	19624
903.328	19597
903.446	19419
903.565	19449
903.683	19304
903.801	19244
903.919	19320
904.038	19312
904.156	19110
904.274	19202
904.392	19202
904.51	19129
904.627	19244
904.745	19285
904.863	19244
904.981	19038
905.098	18856
905.216	18772
905.334	18852
905.451	18829
905.569	18882
905.686	18970
905.803	18817
905.921	18608
906.038	18783
906.155	18730
906.272	18475
906.389	18555
906.506	18346
906.623	18410
906.74	18433
906.857	18213
906.974	18270
907.091	18346
907.208	18483
907.324	18315
907.441	18289
907.557	18167
907.674	18144
907.79	18072
907.907	18068
908.023	18114
908.139	18098
908.256	18019
908.372	18041
908.488	17961
908.604	17836
908.72	17707
908.836	17859
908.952	17779
909.068	17771
909.184	17859
909.3	17840
909.415	17775
909.531	17809
909.647	17429
909.762	17528
909.878	17433
909.993	17417
910.108	17455
910.224	17486
910.339	17376
910.454	17360
910.57	17364
910.685	17197
910.8	17554
910.915	17421
911.03	17193
911.145	17052
911.259	17056
911.374	16980
911.489	16938
911.604	17018
911.718	16930
911.833	16862
911.947	16805
912.062	16752
912.176	16839
912.291	16801
912.405	16786
912.519	16976
912.633	16923
912.748	16782
912.862	16698
912.976	16622
913.09	16523
913.204	16622
913.318	16603
913.431	16637
913.545	16774
913.659	16713
913.772	16523
913.886	16428
914	16428
914.113	16474
914.226	16508
914.34	16485
914.453	16322
914.566	16485
914.68	16284
914.793	16154
914.906	16105
915.019	16017
915.132	15987
915.245	15934
915.358	16002
915.47	15994
915.583	16017
915.696	15983
915.809	16040
915.921	16173
916.034	15899
916.146	15865
916.259	15857
916.371	15937
916.483	15831
916.595	15762
916.708	15812
916.82	15892
916.932	15701
917.044	15705
917.156	15660
917.268	15542
917.38	15686
917.491	15603
917.603	15580
917.715	15610
917.826	15656
917.938	15500
918.049	15477
918.161	15515
918.272	15633
918.384	15603
918.495	15530
918.606	15405
918.717	15336
918.828	15393
918.939	15477
919.05	15233
919.161	15279
919.272	15017
919.383	15154
919.494	15382
919.604	15469
919.715	15317
919.826	15272
919.936	15272
920.047	15378
920.157	15249
920.267	15389
920.378	15306
920.488	15260
920.598	15454
920.708	15633
920.818	15401
920.928	15393
921.038	15500
921.148	15397
921.258	15226
921.368	15138
921.477	15104
921.587	15032
921.697	14826
921.806	15020
921.916	14933
922.025	14640
922.134	14617
922.244	14686
922.353	14716
922.462	14541
922.571	14415
922.68	14218
922.789	14214
922.898	14206
923.007	14157
923.116	14309
923.224	14309
923.333	14301
923.442	14149
923.55	14069
923.659	14062
923.767	14130
923.876	14084
923.984	14164
924.092	13974
924.201	13997
924.309	13951
924.417	14065
924.525	13875
924.633	13913
924.741	14902
924.849	13677
924.956	13894
925.064	13620
925.172	13613
925.279	13655
925.387	13658
925.494	13590
925.602	13780
925.709	13662
925.816	13582
925.924	13586
926.031	13696
926.138	13552
926.245	13624
926.352	13472
926.459	13624
926.566	13639
926.673	13464
926.779	13411
926.886	13460
926.993	13244
927.099	13122
927.206	13107
927.312	13137
927.419	13274
927.525	13202
927.631	13266
927.737	13103
927.843	12977
927.95	13034
928.056	12928
928.162	13008
928.267	13061
928.373	13556
928.479	13004
928.585	12768
928.69	12932
928.796	12962
928.901	12825
929.007	12696
929.112	12875
929.218	12829
929.323	12719
929.428	12722
929.533	12852
929.638	12650
929.743	12673
929.848	12745
929.953	12604
930.058	12627
930.163	12452
930.267	12445
930.372	12464
930.477	12410
930.581	12540
930.685	12391
930.79	12213
930.894	12239
930.998	12209
931.103	12251
931.207	11984
931.311	11954
931.415	11897
931.519	11657
931.623	11535
