Data from test_V78500241_2981.txt Node
Date: Fri Mar 25 16:02:27 CST 2022
User: usil
Spectrometer: V785-0024
Trigger mode: 0
Integration Time (sec): 4.000000E-1
Scans to average: 1
Nonlinearity correction enabled: false
Boxcar width: 0
Storing dark spectrum: false
XAxis mode: Wavelengths
Number of Pixels in Spectrum: 1024
>>>>>Begin Spectral Data<<<<<
801.071	28291
801.214	28257
801.356	28029
801.499	28093
801.641	27911
801.783	27785
801.926	27876
802.068	27793
802.211	27739
802.353	27747
802.496	27557
802.638	27545
802.78	27622
802.923	27401
803.065	27424
803.208	27386
803.35	27545
803.492	27606
803.635	27629
803.777	27519
803.919	27690
804.061	27979
804.204	27778
804.346	27618
804.488	27580
804.63	27785
804.773	27732
804.915	27835
805.057	28025
805.199	27759
805.341	27949
805.483	27960
805.626	27884
805.768	27812
805.91	28010
806.052	27953
806.194	27850
806.336	28051
806.478	28044
806.62	27903
806.762	28029
806.904	28166
807.046	28394
807.188	28360
807.33	28261
807.472	28561
807.614	28284
807.756	28398
807.898	28131
808.04	28177
808.182	28177
808.324	28162
808.465	28265
808.607	28474
808.749	28550
808.891	28706
809.033	28782
809.174	28622
809.316	28557
809.458	28615
809.6	28527
809.741	28607
809.883	28740
810.025	28858
810.166	28873
810.308	28835
810.45	28801
810.591	28888
810.733	28542
810.875	28660
811.016	28421
811.158	28485
811.299	28615
811.441	28668
811.582	28771
811.724	28687
811.865	28740
812.007	28466
812.148	28565
812.29	28592
812.431	28675
812.573	28873
812.714	29041
812.855	29124
812.997	29284
813.138	29349
813.279	29307
813.421	29166
813.562	29162
813.703	28839
813.845	28831
813.986	28493
814.127	28401
814.268	28154
814.41	28333
814.551	28238
814.692	28325
814.833	28143
814.974	28238
815.115	28318
815.256	28025
815.397	28158
815.539	28013
815.68	28036
815.821	28025
815.962	28109
816.103	28120
816.244	27956
816.385	27827
816.526	27968
816.666	27717
816.807	27538
816.948	27576
817.089	27724
817.23	27667
817.371	27576
817.512	27496
817.653	27580
817.793	27511
817.934	27507
818.075	27515
818.216	27599
818.356	27587
818.497	27397
818.638	27386
818.778	27374
818.919	27287
819.06	27408
819.2	27332
819.341	27542
819.481	27610
819.622	27656
819.762	27930
819.903	28010
820.043	27736
820.184	27675
820.324	27682
820.465	27679
820.605	27652
820.746	27580
820.886	27591
821.026	27690
821.167	27705
821.307	27671
821.447	27576
821.588	27523
821.728	27348
821.868	27237
822.008	27093
822.149	27051
822.289	27176
822.429	26880
822.569	26769
822.709	26705
822.849	26549
822.99	26670
823.13	26495
823.27	26552
823.41	26393
823.55	26229
823.69	26442
823.83	26366
823.97	26393
824.11	26248
824.25	26149
824.389	26191
824.529	26214
824.669	26301
824.809	26347
824.949	26320
825.089	26374
825.228	26324
825.368	26050
825.508	26084
825.648	26145
825.787	26229
825.927	26122
826.067	26122
826.206	26145
826.346	26050
826.485	26111
826.625	25974
826.765	26081
826.904	26176
827.044	25871
827.183	25807
827.323	25746
827.462	25841
827.601	25887
827.741	25769
827.88	25712
828.02	25738
828.159	25753
828.298	25890
828.437	25776
828.577	25811
828.716	25845
828.855	25601
828.994	25407
829.134	25533
829.273	25506
829.412	25434
829.551	25441
829.69	25548
829.829	25533
829.968	25544
830.107	25556
830.246	25533
830.385	25430
830.524	25384
830.663	25274
830.802	25324
830.941	25095
831.08	25274
831.219	25145
831.357	25183
831.496	25381
831.635	25118
831.774	24958
831.913	24943
832.051	24817
832.19	24932
832.329	24958
832.467	24806
832.606	24848
832.744	24817
832.883	24791
833.022	24711
833.16	24730
833.299	24810
833.437	24692
833.576	24894
833.714	24696
833.852	24943
833.991	24825
834.129	24890
834.267	24878
834.406	24783
834.544	24863
834.682	24677
834.821	24757
834.959	25072
835.097	24768
835.235	24852
835.373	24867
835.511	24844
835.65	24570
835.788	24692
835.926	24631
836.064	24391
836.202	24350
836.34	24608
836.478	24707
836.615	24684
836.753	24608
836.891	24677
837.029	24589
837.167	24601
837.305	24505
837.443	24608
837.58	24498
837.718	24422
837.856	24563
837.993	24471
838.131	24597
838.269	24270
838.406	24403
838.544	24182
838.681	24171
838.819	24098
838.956	23992
839.094	23916
839.231	24015
839.369	24079
839.506	24292
839.643	24178
839.781	24011
839.918	23908
840.055	24064
840.193	23889
840.33	23882
840.467	23965
840.604	23950
840.742	24159
840.879	23733
841.016	23775
841.153	23684
841.29	24045
841.427	23840
841.564	23828
841.701	23866
841.838	23756
841.975	23741
842.112	23729
842.249	23722
842.385	23463
842.522	23840
842.659	23649
842.796	23642
842.933	23642
843.069	23493
843.206	23566
843.343	23737
843.479	23497
843.616	23676
843.752	23448
843.889	23497
844.025	23623
844.162	23383
844.298	23452
844.435	23429
844.571	23277
844.708	23379
844.844	23585
844.98	23585
845.117	23524
845.253	23334
845.389	23322
845.525	23307
845.661	23277
845.798	23124
845.934	23189
846.07	22999
846.206	23178
846.342	23155
846.478	23075
846.614	22904
846.75	22786
846.886	22850
847.022	22987
847.158	22828
847.294	22991
847.429	22976
847.565	22843
847.701	23075
847.837	22653
847.972	22569
848.108	22778
848.244	22710
848.379	22535
848.515	22508
848.65	22451
848.786	22531
848.921	22470
849.057	22489
849.192	22561
849.328	22428
849.463	22394
849.598	22447
849.734	22409
849.869	22287
850.004	22223
850.14	22348
850.275	22238
850.41	22204
850.545	22128
850.68	22268
850.815	22200
850.95	22131
851.085	22478
851.22	22348
851.355	22230
851.49	22215
851.625	22223
851.76	22112
851.895	22154
852.03	22154
852.165	22169
852.299	22348
852.434	22257
852.569	22196
852.703	22249
852.838	22246
852.973	22371
853.107	22348
853.242	22158
853.376	22070
853.511	22067
853.645	22090
853.78	22192
853.914	22074
854.048	22032
854.183	22036
854.317	22090
854.451	22188
854.585	22082
854.72	21884
854.854	22124
854.988	21907
855.122	22070
855.256	21888
855.39	21918
855.524	22067
855.658	22021
855.792	21979
855.926	22013
856.06	22074
856.194	22131
856.327	22040
856.461	22078
856.595	21975
856.729	22067
856.862	22120
856.996	22051
857.13	22086
857.263	22215
857.397	22135
857.53	22082
857.664	22158
857.797	22181
857.931	22055
858.064	22074
858.197	22097
858.331	22120
858.464	21884
858.597	21880
858.731	22021
858.864	22059
858.997	22105
859.13	22036
859.263	22006
859.396	22116
859.529	22013
859.662	21899
859.795	22010
859.928	22078
860.061	22139
860.194	22188
860.327	22021
860.46	22204
860.592	22204
860.725	22158
860.858	22162
860.99	22063
861.123	21892
861.256	21941
861.388	22082
861.521	22710
861.653	21895
861.786	21789
861.918	21800
862.05	21895
862.183	21934
862.315	22051
862.447	22010
862.58	21949
862.712	21899
862.844	21739
862.976	21922
863.108	21797
863.24	22192
863.372	21785
863.504	21800
863.636	21736
863.768	21827
863.9	21793
864.032	21831
864.164	21671
864.296	21800
864.428	21895
864.559	21785
864.691	21701
864.823	21705
864.954	21698
865.086	21804
865.217	21644
865.349	21526
865.48	21606
865.612	21599
865.743	21781
865.875	21633
866.006	21526
866.137	21564
866.269	21606
866.4	21496
866.531	21610
866.662	21572
866.793	21549
866.924	21545
867.055	21606
867.186	21530
867.317	21469
867.448	21515
867.579	21633
867.71	21462
867.841	21355
867.972	21545
868.103	21538
868.233	21500
868.364	21564
868.495	21720
868.625	21804
868.756	21915
868.886	21770
869.017	21812
869.147	21880
869.278	21869
869.408	21812
869.539	21899
869.669	21785
869.799	21785
869.929	21793
870.06	21994
870.19	21968
870.32	22135
870.45	22150
870.58	22215
870.71	22341
870.84	22314
870.97	22211
871.1	22276
871.23	22417
871.36	22348
871.489	22356
871.619	22375
871.749	22398
871.879	22436
872.008	22561
872.138	22504
872.267	22394
872.397	22268
872.526	22249
872.656	22246
872.785	22268
872.915	22356
873.044	22421
873.173	22432
873.303	22478
873.432	22519
873.561	22527
873.69	22519
873.819	22371
873.948	22375
874.077	22489
874.206	22379
874.335	22440
874.464	22512
874.593	22660
874.722	22664
874.851	22748
874.979	22729
875.108	22706
875.237	22554
875.365	22440
875.494	22675
875.623	22820
875.751	22538
875.88	22668
876.008	22668
876.136	22820
876.265	23041
876.393	23083
876.521	23060
876.65	23147
876.778	23060
876.906	22957
877.034	22980
877.162	22919
877.29	22889
877.418	23102
877.546	22946
877.674	22949
877.802	22972
877.93	22953
878.058	23022
878.185	22896
878.313	22896
878.441	22934
878.568	22786
878.696	22908
878.824	23060
878.951	23102
879.079	23151
879.206	23299
879.333	23064
879.461	22976
879.588	22968
879.715	23185
879.842	23311
879.97	23033
880.097	22862
880.224	22793
880.351	22908
880.478	22847
880.605	22778
880.732	22854
880.859	22968
880.986	22786
881.112	22812
881.239	22675
881.366	22512
881.493	22462
881.619	22284
881.746	22398
881.872	22280
881.999	22306
882.125	22310
882.252	22428
882.378	22234
882.505	22409
882.631	22242
882.757	22090
882.883	22074
883.01	22116
883.136	22044
883.262	21987
883.388	21823
883.514	22086
883.64	22090
883.766	21922
883.892	21736
884.018	21823
884.143	22010
884.269	21934
884.395	21660
884.52	21732
884.646	21770
884.772	21701
884.897	21603
885.023	21675
885.148	21759
885.274	21785
885.399	21850
885.524	21717
885.65	21682
885.775	21732
885.9	21606
886.025	21690
886.15	21842
886.275	21595
886.4	21564
886.525	21660
886.65	21526
886.775	21591
886.9	21884
887.025	22002
887.149	21595
887.274	21553
887.399	21462
887.523	21401
887.648	21389
887.773	21355
887.897	21557
888.021	21496
888.146	21336
888.27	21557
888.395	21526
888.519	21549
888.643	21557
888.767	21492
888.891	21340
889.015	21199
889.139	21351
889.263	21317
889.387	21515
889.511	21523
889.635	21386
889.759	21093
889.883	21188
890.006	21317
890.13	21302
890.254	21093
890.377	21154
890.501	21058
890.624	20948
890.748	20952
890.871	20849
890.995	20758
891.118	20777
891.241	20845
891.364	20834
891.488	20967
891.611	20880
891.734	20769
891.857	20899
891.98	20872
892.103	20819
892.226	20807
892.349	20746
892.471	20625
892.594	20758
892.717	20807
892.839	20667
892.962	20682
893.085	20636
893.207	20712
893.33	20629
893.452	20682
893.575	20743
893.697	20644
893.819	20857
893.941	20864
894.064	20826
894.186	20651
894.308	20667
894.43	20720
894.552	20823
894.674	20708
894.796	20648
894.918	20682
895.04	20617
895.161	20823
895.283	20693
895.405	20587
895.526	20754
895.648	20720
895.769	20674
895.891	20758
896.012	20834
896.134	20720
896.255	20739
896.376	20678
896.498	20731
896.619	20781
896.74	20689
896.861	20712
896.982	21093
897.103	21085
897.224	20807
897.345	20963
897.466	20899
897.587	20895
897.708	21055
897.828	21062
897.949	20800
898.07	20746
898.19	20811
898.311	20899
898.431	20804
898.552	20887
898.672	20998
898.792	21024
898.913	20982
899.033	20773
899.153	20762
899.273	20552
899.393	20708
899.513	20750
899.633	20549
899.753	20686
899.873	20606
899.993	20651
900.113	20511
900.232	20644
900.352	20674
900.472	20446
900.591	20374
900.711	20480
900.83	20454
900.95	20427
901.069	20526
901.189	20332
901.308	19963
901.427	19982
901.546	20012
901.665	19944
901.784	19894
901.904	19879
902.023	19769
902.141	19533
902.26	19502
902.379	19677
902.498	19628
902.617	19430
902.735	19643
902.854	19464
902.973	19457
903.091	19255
903.21	19141
903.328	19126
903.446	18989
903.565	19061
903.683	18890
903.801	18894
903.919	18962
904.038	18928
904.156	18642
904.274	18757
904.392	18730
904.51	18738
904.627	18779
904.745	18734
904.863	18825
904.981	18574
905.098	18395
905.216	18388
905.334	18429
905.451	18422
905.569	18395
905.686	18589
905.803	18289
905.921	18182
906.038	18357
906.155	18228
906.272	18106
906.389	18076
906.506	17832
906.623	17961
906.74	17961
906.857	17821
906.974	17923
907.091	17958
907.208	17885
907.324	17916
907.441	17726
907.557	17577
907.674	17589
907.79	17600
907.907	17611
908.023	17691
908.139	17585
908.256	17592
908.372	17486
908.488	17414
908.604	17391
908.72	17292
908.836	17436
908.952	17277
909.068	17391
909.184	17360
909.3	17258
909.415	17330
909.531	17280
909.647	17033
909.762	17098
909.878	17033
909.993	17121
910.108	17083
910.224	17045
910.339	17048
910.454	16949
910.57	16828
910.685	16767
910.8	17048
910.915	16961
911.03	16809
911.145	16736
911.259	16698
911.374	16615
911.489	16618
911.604	16561
911.718	16352
911.833	16512
911.947	16367
912.062	16219
912.176	16405
912.291	16379
912.405	16344
912.519	16592
912.633	16580
912.748	16451
912.862	16322
912.976	16173
913.09	16025
913.204	16219
913.318	16219
913.431	16166
913.545	16329
913.659	16223
913.772	16139
913.886	16040
914	15941
914.113	16090
914.226	16063
914.34	16025
914.453	15869
914.566	15945
914.68	15819
914.793	15949
914.906	15671
915.019	15637
915.132	15557
915.245	15545
915.358	15515
915.47	15618
915.583	15511
915.696	15561
915.809	15618
915.921	15644
916.034	15526
916.146	15488
916.259	15386
916.371	15591
916.483	15477
916.595	15416
916.708	15363
916.82	15332
916.932	15336
917.044	15355
917.156	15321
917.268	15218
917.38	15218
917.491	15256
917.603	15184
917.715	15313
917.826	15245
917.938	15116
918.049	15005
918.161	15085
918.272	15256
918.384	15222
918.495	15169
918.606	15017
918.717	14933
918.828	15043
918.939	14956
919.05	14910
919.161	14883
919.272	14663
919.383	14861
919.494	15005
919.604	15108
919.715	14994
919.826	14788
919.936	14845
920.047	14891
920.157	14887
920.267	15138
920.378	14910
920.488	14902
920.598	15062
920.708	15176
920.818	15005
920.928	15013
921.038	15287
921.148	15131
921.258	14838
921.368	14708
921.477	14598
921.587	14636
921.697	14530
921.806	14674
921.916	14457
922.025	14366
922.134	14377
922.244	14210
922.353	14298
922.462	14252
922.571	14157
922.68	13959
922.789	13932
922.898	13963
923.007	13845
923.116	13909
923.224	13913
923.333	13898
923.442	13822
923.55	13715
923.659	13788
923.767	13799
923.876	13693
923.984	13738
924.092	13761
924.201	13670
924.309	13628
924.417	13605
924.525	13552
924.633	13647
924.741	14374
924.849	13343
924.956	13521
925.064	13312
925.172	13198
925.279	13324
925.387	13293
925.494	13266
925.602	13468
925.709	13396
925.816	13171
925.924	13282
926.031	13304
926.138	13225
926.245	13343
926.352	13053
926.459	13304
926.566	13293
926.673	13156
926.779	13091
926.886	13015
926.993	12886
927.099	12867
927.206	12768
927.312	12886
927.419	12913
927.525	12905
927.631	12863
927.737	12734
927.843	12749
927.95	12597
928.056	12707
928.162	12700
928.267	12749
928.373	13369
928.479	12764
928.585	12517
928.69	12582
928.796	12642
928.901	12604
929.007	12346
929.112	12525
929.218	12471
929.323	12483
929.428	12426
929.533	12559
929.638	12342
929.743	12460
929.848	12357
929.953	12357
930.058	12251
930.163	12114
930.267	12091
930.372	12197
930.477	12015
930.581	12292
930.685	12182
930.79	11965
930.894	11973
930.998	12011
931.103	12041
931.207	11805
931.311	11581
931.415	11566
931.519	11364
931.623	11322
