Data from test_V78500241_79.txt Node
Date: Fri Mar 25 15:42:20 CST 2022
User: usil
Spectrometer: V785-0024
Trigger mode: 0
Integration Time (sec): 4.000000E-1
Scans to average: 1
Nonlinearity correction enabled: false
Boxcar width: 0
Storing dark spectrum: false
XAxis mode: Wavelengths
Number of Pixels in Spectrum: 1024
>>>>>Begin Spectral Data<<<<<
801.071	29946
801.214	29988
801.356	29649
801.499	29733
801.641	29608
801.783	29520
801.926	29497
802.068	29410
802.211	29356
802.353	29368
802.496	29170
802.638	29208
802.78	29113
802.923	29022
803.065	28934
803.208	29003
803.35	29181
803.492	29337
803.635	29261
803.777	29364
803.919	29349
804.061	29516
804.204	29379
804.346	29220
804.488	29105
804.63	29124
804.773	29223
804.915	29258
805.057	29242
805.199	29174
805.341	29497
805.483	29467
805.626	29364
805.768	29303
805.91	29425
806.052	29391
806.194	29284
806.336	29478
806.478	29341
806.62	29398
806.762	29459
806.904	29467
807.046	29783
807.188	29687
807.33	29745
807.472	29843
807.614	29524
807.756	29680
807.898	29512
808.04	29505
808.182	29501
808.324	29471
808.465	29558
808.607	29729
808.749	29862
808.891	29939
809.033	30133
809.174	30030
809.316	29878
809.458	30106
809.6	29931
809.741	30121
809.883	30034
810.025	30125
810.166	30213
810.308	30087
810.45	30087
810.591	30060
810.733	29954
810.875	29775
811.016	29695
811.158	29771
811.299	29923
811.441	29965
811.582	30159
811.724	29726
811.865	29809
812.007	29802
812.148	29889
812.29	29824
812.431	29942
812.573	30114
812.714	30133
812.855	30201
812.997	30380
813.138	30612
813.279	30612
813.421	30494
813.562	30346
813.703	30228
813.845	30068
813.986	29604
814.127	29703
814.268	29474
814.41	29387
814.551	29558
814.692	29596
814.833	29493
814.974	29299
815.115	29379
815.256	29356
815.397	29375
815.539	29288
815.68	29159
815.821	29117
815.962	29288
816.103	29048
816.244	29029
816.385	28923
816.526	28915
816.666	28649
816.807	28672
816.948	28672
817.089	28774
817.23	28668
817.371	28649
817.512	28557
817.653	28622
817.793	28470
817.934	28493
818.075	28618
818.216	28440
818.356	28569
818.497	28447
818.638	28253
818.778	28249
818.919	28440
819.06	28242
819.2	28432
819.341	28421
819.481	28382
819.622	28603
819.762	28793
819.903	28622
820.043	28561
820.184	28634
820.324	28500
820.465	28649
820.605	28706
820.746	28656
820.886	28493
821.026	28500
821.167	28360
821.307	28519
821.447	28356
821.588	28379
821.728	28219
821.868	28101
822.008	27953
822.149	28013
822.289	27751
822.429	27515
822.569	27405
822.709	27622
822.849	27336
822.99	27374
823.13	27367
823.27	27157
823.41	27230
823.55	27055
823.69	27245
823.83	27241
823.97	27032
824.11	26826
824.25	26788
824.389	26864
824.529	26925
824.669	26876
824.809	27104
824.949	26994
825.089	26804
825.228	26868
825.368	26876
825.508	26735
825.648	26720
825.787	26754
825.927	26621
826.067	26708
826.206	26750
826.346	26727
826.485	26746
826.625	26731
826.765	26800
826.904	26712
827.044	26602
827.183	26362
827.323	26427
827.462	26343
827.601	26305
827.741	26355
827.88	26415
828.02	26256
828.159	26362
828.298	26393
828.437	26328
828.577	26446
828.716	26389
828.855	26320
828.994	26096
829.134	26100
829.273	26096
829.412	26081
829.551	25951
829.69	26084
829.829	26054
829.968	26149
830.107	26149
830.246	25913
830.385	25917
830.524	25708
830.663	25700
830.802	25571
830.941	25575
831.08	25597
831.219	25708
831.357	25700
831.496	25852
831.635	25582
831.774	25533
831.913	25308
832.051	25304
832.19	25438
832.329	25301
832.467	25244
832.606	25274
832.744	25183
832.883	25160
833.022	25145
833.16	25221
833.299	25240
833.437	25228
833.576	25198
833.714	25373
833.852	25148
833.991	25266
834.129	25232
834.267	25289
834.406	25160
834.544	25152
834.682	25175
834.821	25225
834.959	25388
835.097	25080
835.235	25225
835.373	25217
835.511	25137
835.65	24947
835.788	24913
835.926	24848
836.064	24844
836.202	24840
836.34	25019
836.478	25042
836.615	24890
836.753	24932
836.891	25038
837.029	25027
837.167	24935
837.305	24837
837.443	24863
837.58	24745
837.718	24837
837.856	24878
837.993	24779
838.131	24829
838.269	24696
838.406	24696
838.544	24528
838.681	24479
838.819	24296
838.956	24254
839.094	24167
839.231	24273
839.369	24372
839.506	24570
839.643	24486
839.781	24194
839.918	24152
840.055	24224
840.193	24159
840.33	24148
840.467	24106
840.604	24228
840.742	24395
840.879	23866
841.016	23984
841.153	23863
841.29	24178
841.427	24007
841.564	24182
841.701	23961
841.838	24007
841.975	23939
842.112	24007
842.249	23684
842.385	23824
842.522	24034
842.659	23874
842.796	23668
842.933	23741
843.069	23687
843.206	23680
843.343	23790
843.479	23726
843.616	23809
843.752	23440
843.889	23531
844.025	23733
844.162	23547
844.298	23551
844.435	23436
844.571	23448
844.708	23493
844.844	23535
844.98	23543
845.117	23596
845.253	23250
845.389	23330
845.525	23296
845.661	23322
845.798	23197
845.934	23242
846.07	23029
846.206	23140
846.342	23273
846.478	23079
846.614	22877
846.75	22759
846.886	22881
847.022	23048
847.158	22957
847.294	22930
847.429	22965
847.565	22892
847.701	23128
847.837	22542
847.972	22546
848.108	22698
848.244	22668
848.379	22470
848.515	22428
848.65	22424
848.786	22443
848.921	22462
849.057	22550
849.192	22580
849.328	22413
849.463	22310
849.598	22200
849.734	22303
849.869	22314
850.004	22226
850.14	22230
850.275	22116
850.41	22131
850.545	22112
850.68	22067
850.815	22188
850.95	22105
851.085	22200
851.22	22166
851.355	22109
851.49	22112
851.625	21930
851.76	22158
851.895	22112
852.03	21949
852.165	22101
852.299	22128
852.434	22112
852.569	22090
852.703	22173
852.838	22181
852.973	22291
853.107	22135
853.242	22109
853.376	21979
853.511	21759
853.645	21835
853.78	22017
853.914	22002
854.048	21915
854.183	21846
854.317	21953
854.451	22139
854.585	21945
854.72	21838
854.854	21991
854.988	21819
855.122	21983
855.256	21793
855.39	21793
855.524	21888
855.658	21903
855.792	21926
855.926	21804
856.06	21972
856.194	21918
856.327	21869
856.461	21823
856.595	21823
856.729	21808
856.862	21819
856.996	22021
857.13	22010
857.263	22010
857.397	22017
857.53	21926
857.664	21850
857.797	21892
857.931	21983
858.064	21865
858.197	21972
858.331	21899
858.464	21755
858.597	21709
858.731	21804
858.864	21762
858.997	21724
859.13	21907
859.263	21785
859.396	21941
859.529	21785
859.662	21789
859.795	21751
859.928	21876
860.061	21873
860.194	21987
860.327	21865
860.46	21831
860.592	21930
860.725	21987
860.858	21918
860.99	21762
861.123	21682
861.256	21610
861.388	21873
861.521	22447
861.653	21701
861.786	21656
861.918	21641
862.05	21835
862.183	21804
862.315	21831
862.447	21903
862.58	21797
862.712	21633
862.844	21663
862.976	21663
863.108	21675
863.24	21899
863.372	21424
863.504	21481
863.636	21416
863.768	21477
863.9	21507
864.032	21397
864.164	21389
864.296	21439
864.428	21572
864.559	21603
864.691	21519
864.823	21496
864.954	21416
865.086	21355
865.217	21389
865.349	21291
865.48	21454
865.612	21416
865.743	21583
865.875	21424
866.006	21378
866.137	21416
866.269	21363
866.4	21287
866.531	21344
866.662	21294
866.793	21344
866.924	21428
867.055	21382
867.186	21332
867.317	21268
867.448	21116
867.579	21294
867.71	21195
867.841	21146
867.972	21340
868.103	21298
868.233	21321
868.364	21306
868.495	21367
868.625	21519
868.756	21561
868.886	21378
869.017	21538
869.147	21526
869.278	21549
869.408	21591
869.539	21435
869.669	21663
869.799	21629
869.929	21652
870.06	21709
870.19	21831
870.32	21701
870.45	21800
870.58	21895
870.71	21953
870.84	21960
870.97	21899
871.1	21903
871.23	21956
871.36	22135
871.489	22067
871.619	22040
871.749	22044
871.879	22181
872.008	22219
872.138	22143
872.267	22219
872.397	21968
872.526	21888
872.656	21979
872.785	21892
872.915	22078
873.044	22287
873.173	22078
873.303	22093
873.432	22185
873.561	22230
873.69	22120
873.819	22105
873.948	22192
874.077	22154
874.206	22021
874.335	22124
874.464	22181
874.593	22303
874.722	22363
874.851	22207
874.979	22424
875.108	22508
875.237	22303
875.365	22291
875.494	22268
875.623	22329
875.751	22272
875.88	22337
876.008	22508
876.136	22546
876.265	22763
876.393	22938
876.521	22862
876.65	22755
876.778	22672
876.906	22649
877.034	22706
877.162	22717
877.29	22584
877.418	22660
877.546	22645
877.674	22664
877.802	22850
877.93	22755
878.058	22660
878.185	22664
878.313	22653
878.441	22683
878.568	22497
878.696	22675
878.824	22630
878.951	22706
879.079	22919
879.206	23052
879.333	22820
879.461	22843
879.588	22877
879.715	22889
879.842	23037
879.97	22691
880.097	22565
880.224	22538
880.351	22489
880.478	22607
880.605	22352
880.732	22527
880.859	22653
880.986	22618
881.112	22508
881.239	22379
881.366	22032
881.493	22116
881.619	22154
881.746	22192
881.872	22158
881.999	21983
882.125	21888
882.252	22029
882.378	22143
882.505	22314
882.631	21953
882.757	21854
882.883	21888
883.01	21808
883.136	21823
883.262	21660
883.388	21739
883.514	21934
883.64	21823
883.766	21652
883.892	21770
884.018	21549
884.143	21926
884.269	21915
884.395	21572
884.52	21420
884.646	21557
884.772	21416
884.897	21230
885.023	21291
885.148	21599
885.274	21481
885.399	21591
885.524	21443
885.65	21530
885.775	21450
885.9	21408
886.025	21454
886.15	21473
886.275	21416
886.4	21275
886.525	21329
886.65	21287
886.775	21317
886.9	21447
887.025	21633
887.149	21481
887.274	21104
887.399	21313
887.523	21157
887.648	21169
887.773	21116
887.897	21237
888.021	21222
888.146	21119
888.27	21218
888.395	21348
888.519	21283
888.643	21203
888.767	21245
888.891	21017
889.015	20925
889.139	20918
889.263	20941
889.387	21074
889.511	21176
889.635	21108
889.759	20895
889.883	20921
890.006	20967
890.13	21039
890.254	20937
890.377	20937
890.501	20724
890.624	20648
890.748	20697
890.871	20609
890.995	20488
891.118	20511
891.241	20465
891.364	20461
891.488	20701
891.611	20518
891.734	20404
891.857	20541
891.98	20488
892.103	20693
892.226	20556
892.349	20423
892.471	20267
892.594	20526
892.717	20522
892.839	20412
892.962	20518
893.085	20568
893.207	20427
893.33	20370
893.452	20404
893.575	20294
893.697	20396
893.819	20598
893.941	20587
894.064	20526
894.186	20431
894.308	20374
894.43	20457
894.552	20587
894.674	20560
894.796	20377
894.918	20328
895.04	20347
895.161	20640
895.283	20431
895.405	20434
895.526	20438
895.648	20423
895.769	20385
895.891	20522
896.012	20533
896.134	20457
896.255	20457
896.376	20454
896.498	20537
896.619	20423
896.74	20408
896.861	20533
896.982	20861
897.103	20880
897.224	20758
897.345	20579
897.466	20632
897.587	20678
897.708	20743
897.828	20765
897.949	20499
898.07	20552
898.19	20629
898.311	20689
898.431	20518
898.552	20712
898.672	20686
898.792	20670
898.913	20541
899.033	20377
899.153	20400
899.273	20275
899.393	20328
899.513	20351
899.633	20286
899.753	20336
899.873	20225
899.993	20347
900.113	20263
900.232	20172
900.352	20377
900.472	20103
900.591	20115
900.711	20107
900.83	20035
900.95	20248
901.069	20237
901.189	20065
901.308	19799
901.427	19712
901.546	19700
901.665	19647
901.784	19670
901.904	19487
902.023	19441
902.141	19308
902.26	19228
902.379	19183
902.498	19133
902.617	19091
902.735	19088
902.854	19107
902.973	19004
903.091	18798
903.21	18829
903.328	18890
903.446	18745
903.565	18589
903.683	18654
903.801	18479
903.919	18650
904.038	18608
904.156	18464
904.274	18506
904.392	18384
904.51	18422
904.627	18388
904.745	18403
904.863	18528
904.981	18186
905.098	17999
905.216	18011
905.334	18076
905.451	18045
905.569	18007
905.686	18114
905.803	17904
905.921	17863
906.038	17908
906.155	17863
906.272	17722
906.389	17798
906.506	17627
906.623	17608
906.74	17615
906.857	17444
906.974	17558
907.091	17566
907.208	17642
907.324	17463
907.441	17425
907.557	17402
907.674	17322
907.79	17204
907.907	17280
908.023	17151
908.139	17166
908.256	17174
908.372	17166
908.488	17174
908.604	16957
908.72	16965
908.836	16877
908.952	16923
909.068	16824
909.184	16919
909.3	16854
909.415	17006
909.531	16869
909.647	16634
909.762	16656
909.878	16516
909.993	16584
910.108	16683
910.224	16580
910.339	16500
910.454	16409
910.57	16344
910.685	16356
910.8	16599
910.915	16531
911.03	16409
911.145	16097
911.259	16173
911.374	16204
911.489	16147
911.604	16143
911.718	15975
911.833	15945
911.947	15903
912.062	15808
912.176	15998
912.291	16036
912.405	15991
912.519	16147
912.633	16139
912.748	15930
912.862	15964
912.976	15766
913.09	15564
913.204	15652
913.318	15717
913.431	15842
913.545	15808
913.659	15789
913.772	15709
913.886	15511
914	15443
914.113	15656
914.226	15637
914.34	15584
914.453	15382
914.566	15530
914.68	15462
914.793	15450
914.906	15256
915.019	15173
915.132	15112
915.245	15047
915.358	15169
915.47	15199
915.583	15138
915.696	15222
915.809	15214
915.921	15222
916.034	15146
916.146	14937
916.259	14906
916.371	15100
916.483	15108
916.595	14948
916.708	15043
916.82	15005
916.932	14861
917.044	14800
917.156	14880
917.268	14796
917.38	14910
917.491	14792
917.603	14811
917.715	14845
917.826	14857
917.938	14727
918.049	14640
918.161	14678
918.272	14796
918.384	14876
918.495	14746
918.606	14640
918.717	14495
918.828	14617
918.939	14533
919.05	14423
919.161	14594
919.272	14358
919.383	14332
919.494	14526
919.604	14689
919.715	14556
919.826	14404
919.936	14514
920.047	14583
920.157	14533
920.267	14674
920.378	14457
920.488	14514
920.598	14610
920.708	14807
920.818	14526
920.928	14621
921.038	14701
921.148	14727
921.258	14541
921.368	14259
921.477	14240
921.587	14168
921.697	14100
921.806	14225
921.916	14050
922.025	13913
922.134	13925
922.244	13814
922.353	13913
922.462	13734
922.571	13533
922.68	13590
922.789	13438
922.898	13434
923.007	13388
923.116	13521
923.224	13384
923.333	13476
923.442	13362
923.55	13293
923.659	13362
923.767	13251
923.876	13255
923.984	13339
924.092	13228
924.201	13149
924.309	13236
924.417	13259
924.525	13084
924.633	13126
924.741	14172
924.849	12928
924.956	13076
925.064	13008
925.172	12871
925.279	12905
925.387	12890
925.494	12894
925.602	13012
925.709	13034
925.816	12779
925.924	12867
926.031	12871
926.138	12802
926.245	12871
926.352	12669
926.459	12897
926.566	12871
926.673	12859
926.779	12669
926.886	12536
926.993	12528
927.099	12452
927.206	12486
927.312	12475
927.419	12517
927.525	12460
927.631	12433
927.737	12350
927.843	12361
927.95	12258
928.056	12330
928.162	12330
928.267	12289
928.373	12966
928.479	12262
928.585	12049
928.69	12175
928.796	12232
928.901	12159
929.007	11969
929.112	12186
929.218	12057
929.323	12045
929.428	11950
929.533	12007
929.638	11851
929.743	11969
929.848	11992
929.953	11988
930.058	11809
930.163	11703
930.267	11752
930.372	11741
930.477	11627
930.581	11824
930.685	11760
930.79	11558
930.894	11604
930.998	11433
931.103	11668
931.207	11273
931.311	11197
931.415	11143
931.519	10896
931.623	10976
