Data from test_V78500241_2511.txt Node
Date: Fri Mar 25 15:59:11 CST 2022
User: usil
Spectrometer: V785-0024
Trigger mode: 0
Integration Time (sec): 4.000000E-1
Scans to average: 1
Nonlinearity correction enabled: false
Boxcar width: 0
Storing dark spectrum: false
XAxis mode: Wavelengths
Number of Pixels in Spectrum: 1024
>>>>>Begin Spectral Data<<<<<
801.071	28820
801.214	28759
801.356	28500
801.499	28493
801.641	28344
801.783	28265
801.926	28440
802.068	28310
802.211	28192
802.353	28200
802.496	28040
802.638	28154
802.78	28013
802.923	27941
803.065	27903
803.208	27914
803.35	28112
803.492	28246
803.635	28238
803.777	28048
803.919	28200
804.061	28500
804.204	28215
804.346	28097
804.488	28154
804.63	28367
804.773	28051
804.915	28322
805.057	28508
805.199	28413
805.341	28421
805.483	28367
805.626	28405
805.768	28287
805.91	28306
806.052	28557
806.194	28348
806.336	28424
806.478	28443
806.62	28459
806.762	28577
806.904	28675
807.046	28934
807.188	28881
807.33	29033
807.472	29006
807.614	28698
807.756	28896
807.898	28706
808.04	28641
808.182	28713
808.324	28736
808.465	28858
808.607	28965
808.749	29109
808.891	29113
809.033	29364
809.174	29140
809.316	29136
809.458	29117
809.6	29025
809.741	29368
809.883	29258
810.025	29254
810.166	29520
810.308	29414
810.45	29497
810.591	29353
810.733	29277
810.875	29090
811.016	29155
811.158	29102
811.299	29155
811.441	29178
811.582	29372
811.724	29147
811.865	29079
812.007	29124
812.148	29105
812.29	29185
812.431	29273
812.573	29425
812.714	29634
812.855	29707
812.997	29840
813.138	29813
813.279	29699
813.421	29585
813.562	29634
813.703	29539
813.845	29254
813.986	29086
814.127	28972
814.268	28778
814.41	29037
814.551	28835
814.692	28862
814.833	28713
814.974	28748
815.115	28972
815.256	28573
815.397	28904
815.539	28885
815.68	28641
815.821	28607
815.962	28653
816.103	28561
816.244	28561
816.385	28379
816.526	28451
816.666	28344
816.807	28097
816.948	28261
817.089	28249
817.23	28173
817.371	28268
817.512	28131
817.653	28074
817.793	28055
817.934	28070
818.075	28150
818.216	28162
818.356	28200
818.497	27880
818.638	27953
818.778	28013
818.919	27949
819.06	28040
819.2	27991
819.341	28158
819.481	28246
819.622	28382
819.762	28512
819.903	28382
820.043	28268
820.184	28295
820.324	28451
820.465	28299
820.605	28280
820.746	28226
820.886	28257
821.026	28310
821.167	28261
821.307	28276
821.447	28261
821.588	28139
821.728	28006
821.868	27876
822.008	27682
822.149	27591
822.289	27561
822.429	27466
822.569	27443
822.709	27291
822.849	27074
822.99	27085
823.13	27249
823.27	27161
823.41	26834
823.55	27001
823.69	26925
823.83	26990
823.97	26861
824.11	26758
824.25	26838
824.389	26792
824.529	26845
824.669	26788
824.809	26887
824.949	26853
825.089	27001
825.228	26823
825.368	26640
825.508	26629
825.648	26629
825.787	26769
825.927	26849
826.067	26678
826.206	26697
826.346	26667
826.485	26777
826.625	26560
826.765	26857
826.904	26781
827.044	26374
827.183	26556
827.323	26473
827.462	26492
827.601	26396
827.741	26336
827.88	26324
828.02	26351
828.159	26339
828.298	26381
828.437	26446
828.577	26389
828.716	26541
828.855	26309
828.994	26111
829.134	26054
829.273	26267
829.412	26058
829.551	26134
829.69	26027
829.829	25947
829.968	26172
830.107	26271
830.246	26050
830.385	25963
830.524	25890
830.663	25936
830.802	25909
830.941	25643
831.08	25681
831.219	25788
831.357	25746
831.496	25868
831.635	25746
831.774	25544
831.913	25552
832.051	25525
832.19	25586
832.329	25441
832.467	25419
832.606	25236
832.744	25324
832.883	25381
833.022	25377
833.16	25453
833.299	25430
833.437	25392
833.576	25438
833.714	25415
833.852	25434
833.991	25613
834.129	25506
834.267	25548
834.406	25354
834.544	25415
834.682	25438
834.821	25400
834.959	25635
835.097	25354
835.235	25521
835.373	25396
835.511	25350
835.65	25354
835.788	25316
835.926	25335
836.064	25046
836.202	25019
836.34	25198
836.478	25369
836.615	25236
836.753	25190
836.891	25202
837.029	25228
837.167	25171
837.305	25141
837.443	25072
837.58	25088
837.718	25099
837.856	25065
837.993	25038
838.131	25057
838.269	24924
838.406	24992
838.544	24886
838.681	24677
838.819	24738
838.956	24490
839.094	24566
839.231	24525
839.369	24730
839.506	24985
839.643	24802
839.781	24623
839.918	24346
840.055	24433
840.193	24593
840.33	24460
840.467	24528
840.604	24361
840.742	24620
840.879	24220
841.016	24448
841.153	24327
841.29	24536
841.427	24437
841.564	24479
841.701	24330
841.838	24399
841.975	24350
842.112	24220
842.249	24254
842.385	24159
842.522	24464
842.659	24220
842.796	24163
842.933	24296
843.069	24129
843.206	24148
843.343	24266
843.479	24228
843.616	24209
843.752	24041
843.889	24057
844.025	24091
844.162	23927
844.298	24136
844.435	24003
844.571	23939
844.708	24041
844.844	24064
844.98	24026
845.117	24163
845.253	23931
845.389	23851
845.525	23908
845.661	23745
845.798	23729
845.934	23741
846.07	23729
846.206	23878
846.342	23832
846.478	23680
846.614	23421
846.75	23296
846.886	23440
847.022	23474
847.158	23490
847.294	23497
847.429	23448
847.565	23307
847.701	23577
847.837	23128
847.972	23075
848.108	23239
848.244	23231
848.379	23052
848.515	22961
848.65	23067
848.786	22923
848.921	23212
849.057	23105
849.192	23140
849.328	22968
849.463	22961
849.598	22968
849.734	22904
849.869	22908
850.004	22839
850.14	22862
850.275	22782
850.41	22630
850.545	22698
850.68	22713
850.815	22812
850.95	22767
851.085	22972
851.22	22923
851.355	22767
851.49	22752
851.625	22721
851.76	22691
851.895	22733
852.03	22599
852.165	22782
852.299	22740
852.434	22828
852.569	22854
852.703	22752
852.838	22850
852.973	22869
853.107	22927
853.242	22816
853.376	22691
853.511	22440
853.645	22580
853.78	22634
853.914	22710
854.048	22485
854.183	22519
854.317	22573
854.451	22812
854.585	22546
854.72	22542
854.854	22592
854.988	22527
855.122	22470
855.256	22481
855.39	22489
855.524	22637
855.658	22637
855.792	22615
855.926	22694
856.06	22626
856.194	22729
856.327	22557
856.461	22462
856.595	22443
856.729	22664
856.862	22554
856.996	22725
857.13	22672
857.263	22649
857.397	22679
857.53	22592
857.664	22702
857.797	22725
857.931	22679
858.064	22592
858.197	22733
858.331	22584
858.464	22599
858.597	22440
858.731	22630
858.864	22622
858.997	22561
859.13	22660
859.263	22607
859.396	22634
859.529	22615
859.662	22497
859.795	22451
859.928	22603
860.061	22687
860.194	22793
860.327	22744
860.46	22672
860.592	22679
860.725	22721
860.858	22793
860.99	22550
861.123	22504
861.256	22481
861.388	22668
861.521	23440
861.653	22428
861.786	22440
861.918	22390
862.05	22481
862.183	22466
862.315	22535
862.447	22538
862.58	22504
862.712	22219
862.844	22287
862.976	22329
863.108	22379
863.24	22778
863.372	22284
863.504	22287
863.636	22276
863.768	22379
863.9	22314
864.032	22234
864.164	22234
864.296	22390
864.428	22413
864.559	22257
864.691	22455
864.823	22223
864.954	22295
865.086	22188
865.217	22131
865.349	22101
865.48	22188
865.612	22188
865.743	22249
865.875	22204
866.006	22105
866.137	22181
866.269	22249
866.4	22207
866.531	22116
866.662	22112
866.793	22093
866.924	22219
867.055	22169
867.186	22131
867.317	22166
867.448	22059
867.579	22128
867.71	21968
867.841	22013
867.972	21979
868.103	22112
868.233	22002
868.364	22162
868.495	22215
868.625	22272
868.756	22569
868.886	22314
869.017	22268
869.147	22375
869.278	22462
869.408	22443
869.539	22246
869.669	22402
869.799	22322
869.929	22440
870.06	22337
870.19	22668
870.32	22634
870.45	22645
870.58	22892
870.71	22790
870.84	22892
870.97	22630
871.1	22755
871.23	22904
871.36	23014
871.489	22904
871.619	22869
871.749	22839
871.879	22942
872.008	23086
872.138	23014
872.267	23041
872.397	22892
872.526	22679
872.656	22744
872.785	22634
872.915	23010
873.044	23124
873.173	22900
873.303	23006
873.432	23079
873.561	23128
873.69	22984
873.819	22904
873.948	23079
874.077	22896
874.206	22820
874.335	22919
874.464	23025
874.593	23212
874.722	23197
874.851	23284
874.979	23185
875.108	23189
875.237	23094
875.365	23143
875.494	23132
875.623	23189
875.751	23094
875.88	23208
876.008	23261
876.136	23258
876.265	23490
876.393	23707
876.521	23592
876.65	23600
876.778	23528
876.906	23501
877.034	23364
877.162	23482
877.29	23520
877.418	23337
877.546	23600
877.674	23570
877.802	23425
877.93	23493
878.058	23482
878.185	23414
878.313	23402
878.441	23387
878.568	23303
878.696	23490
878.824	23512
878.951	23554
879.079	23756
879.206	23931
879.333	23733
879.461	23596
879.588	23687
879.715	23596
879.842	23824
879.97	23615
880.097	23372
880.224	23417
880.351	23307
880.478	23356
880.605	23277
880.732	23345
880.859	23471
880.986	23383
881.112	23326
881.239	23113
881.366	23197
881.493	23052
881.619	22805
881.746	22965
881.872	22938
881.999	22797
882.125	22877
882.252	22850
882.378	22889
882.505	23048
882.631	22664
882.757	22778
882.883	22687
883.01	22538
883.136	22542
883.262	22462
883.388	22413
883.514	22527
883.64	22664
883.766	22500
883.892	22390
884.018	22432
884.143	22573
884.269	22588
884.395	22257
884.52	22177
884.646	22173
884.772	22188
884.897	22112
885.023	22192
885.148	22230
885.274	22402
885.399	22280
885.524	22242
885.65	22268
885.775	22017
885.9	22128
886.025	22356
886.15	22196
886.275	22158
886.4	22032
886.525	22124
886.65	22135
886.775	22109
886.9	22268
887.025	22493
887.149	22207
887.274	22002
887.399	22006
887.523	22040
887.648	21964
887.773	21953
887.897	22067
888.021	22017
888.146	21857
888.27	22154
888.395	22044
888.519	21972
888.643	21899
888.767	22059
888.891	21888
889.015	21713
889.139	21892
889.263	21736
889.387	21804
889.511	21987
889.635	21930
889.759	21816
889.883	21743
890.006	21732
890.13	21762
890.254	21789
890.377	21656
890.501	21496
890.624	21500
890.748	21538
890.871	21336
890.995	21298
891.118	21218
891.241	21351
891.364	21283
891.488	21450
891.611	21336
891.734	21291
891.857	21424
891.98	21222
892.103	21287
892.226	21272
892.349	21207
892.471	21180
892.594	21264
892.717	21222
892.839	21222
892.962	21096
893.085	21272
893.207	21203
893.33	21127
893.452	21058
893.575	21176
893.697	21131
893.819	21233
893.941	21344
894.064	21241
894.186	21157
894.308	21165
894.43	21268
894.552	21169
894.674	21180
894.796	20948
894.918	21116
895.04	21096
895.161	21188
895.283	21233
895.405	21127
895.526	21112
895.648	20982
895.769	21252
895.891	21298
896.012	21245
896.134	21336
896.255	21176
896.376	21146
896.498	21108
896.619	21180
896.74	21241
896.861	21138
896.982	21511
897.103	21606
897.224	21492
897.345	21310
897.466	21302
897.587	21340
897.708	21450
897.828	21294
897.949	21340
898.07	21108
898.19	21275
898.311	21431
898.431	21378
898.552	21199
898.672	21294
898.792	21389
898.913	21340
899.033	21180
899.153	21077
899.273	20925
899.393	21074
899.513	21135
899.633	21150
899.753	21032
899.873	21047
899.993	21123
900.113	20967
900.232	21070
900.352	20998
900.472	20864
900.591	20800
900.711	20796
900.83	20785
900.95	21051
901.069	20979
901.189	20674
901.308	20495
901.427	20415
901.546	20374
901.665	20370
901.784	20393
901.904	20301
902.023	20240
902.141	20020
902.26	19986
902.379	19951
902.498	19959
902.617	19849
902.735	20043
902.854	19974
902.973	19833
903.091	19540
903.21	19620
903.328	19480
903.446	19480
903.565	19304
903.683	19384
903.801	19289
903.919	19331
904.038	19232
904.156	19206
904.274	19346
904.392	19164
904.51	19129
904.627	19137
904.745	19095
904.863	19152
904.981	18973
905.098	18829
905.216	18787
905.334	18749
905.451	18741
905.569	18833
905.686	18817
905.803	18700
905.921	18506
906.038	18665
906.155	18597
906.272	18544
906.389	18521
906.506	18357
906.623	18441
906.74	18323
906.857	18285
906.974	18308
907.091	18426
907.208	18372
907.324	18388
907.441	18270
907.557	18030
907.674	18087
907.79	17897
907.907	17961
908.023	18068
908.139	17988
908.256	18015
908.372	17866
908.488	17931
908.604	17767
908.72	17608
908.836	17790
908.952	17767
909.068	17684
909.184	17870
909.3	17786
909.415	17726
909.531	17813
909.647	17512
909.762	17459
909.878	17376
909.993	17383
910.108	17395
910.224	17395
910.339	17410
910.454	17349
910.57	17395
910.685	17231
910.8	17395
910.915	17311
911.03	17197
911.145	17056
911.259	17060
911.374	17064
911.489	16782
911.604	16850
911.718	16752
911.833	16790
911.947	16573
912.062	16577
912.176	16782
912.291	16736
912.405	16713
912.519	17094
912.633	16980
912.748	16820
912.862	16656
912.976	16630
913.09	16500
913.204	16455
913.318	16603
913.431	16710
913.545	16554
913.659	16664
913.772	16649
913.886	16451
914	16341
914.113	16481
914.226	16485
914.34	16398
914.453	16223
914.566	16413
914.68	16242
914.793	16185
914.906	16105
915.019	15869
915.132	15895
915.245	15949
915.358	15998
915.47	15972
915.583	15838
915.696	15850
915.809	16021
915.921	16055
916.034	15819
916.146	15774
916.259	15694
916.371	15903
916.483	15892
916.595	15739
916.708	15808
916.82	15816
916.932	15720
917.044	15736
917.156	15694
917.268	15610
917.38	15614
917.491	15584
917.603	15584
917.715	15736
917.826	15682
917.938	15507
918.049	15310
918.161	15534
918.272	15660
918.384	15564
918.495	15477
918.606	15408
918.717	15302
918.828	15397
918.939	15428
919.05	15195
919.161	15249
919.272	15108
919.383	15100
919.494	15382
919.604	15507
919.715	15355
919.826	15211
919.936	15249
920.047	15382
920.157	15302
920.267	15431
920.378	15249
920.488	15180
920.598	15363
920.708	15603
920.818	15344
920.928	15378
921.038	15553
921.148	15408
921.258	15214
921.368	15116
921.477	14960
921.587	14960
921.697	14902
921.806	14967
921.916	14861
922.025	14716
922.134	14629
922.244	14594
922.353	14625
922.462	14465
922.571	14476
922.68	14294
922.789	14263
922.898	14210
923.007	14244
923.116	14252
923.224	14298
923.333	14229
923.442	14126
923.55	14020
923.659	14187
923.767	14138
923.876	13978
923.984	14142
924.092	13947
924.201	13947
924.309	13982
924.417	13974
924.525	13902
924.633	13868
924.741	14724
924.849	13636
924.956	13807
925.064	13693
925.172	13453
925.279	13674
925.387	13628
925.494	13586
925.602	13761
925.709	13643
925.816	13468
925.924	13563
926.031	13658
926.138	13571
926.245	13696
926.352	13510
926.459	13571
926.566	13601
926.673	13480
926.779	13304
926.886	13422
926.993	13213
927.099	13175
927.206	13114
927.312	13183
927.419	13091
927.525	13145
927.631	13213
927.737	13034
927.843	13050
927.95	12894
928.056	12901
928.162	12901
928.267	13042
928.373	13639
928.479	12985
928.585	12810
928.69	12939
928.796	13012
928.901	12787
929.007	12616
929.112	12817
929.218	12749
929.323	12681
929.428	12753
929.533	12772
929.638	12673
929.743	12669
929.848	12623
929.953	12604
930.058	12445
930.163	12414
930.267	12418
930.372	12486
930.477	12251
930.581	12551
930.685	12296
930.79	12281
930.894	12281
930.998	12182
931.103	12338
931.207	12064
931.311	11840
931.415	11817
931.519	11600
931.623	11596
