Data from test_V78500241_2756.txt Node
Date: Fri Mar 25 16:00:53 CST 2022
User: usil
Spectrometer: V785-0024
Trigger mode: 0
Integration Time (sec): 4.000000E-1
Scans to average: 1
Nonlinearity correction enabled: false
Boxcar width: 0
Storing dark spectrum: false
XAxis mode: Wavelengths
Number of Pixels in Spectrum: 1024
>>>>>Begin Spectral Data<<<<<
801.071	29025
801.214	28850
801.356	28626
801.499	28554
801.641	28363
801.783	28550
801.926	28569
802.068	28599
802.211	28371
802.353	28367
802.496	28196
802.638	28181
802.78	28128
802.923	27899
803.065	28105
803.208	27991
803.35	28207
803.492	28188
803.635	28314
803.777	28272
803.919	28421
804.061	28816
804.204	28516
804.346	28257
804.488	28363
804.63	28363
804.773	28424
804.915	28421
805.057	28573
805.199	28432
805.341	28569
805.483	28508
805.626	28413
805.768	28455
805.91	28531
806.052	28577
806.194	28500
806.336	28805
806.478	28626
806.62	28470
806.762	28763
806.904	28843
807.046	29197
807.188	28892
807.33	29071
807.472	29060
807.614	29033
807.756	29037
807.898	28877
808.04	28904
808.182	28824
808.324	28953
808.465	28858
808.607	29090
808.749	29136
808.891	29360
809.033	29474
809.174	29501
809.316	29330
809.458	29360
809.6	29162
809.741	29387
809.883	29368
810.025	29509
810.166	29490
810.308	29638
810.45	29539
810.591	29459
810.733	29136
810.875	29239
811.016	29151
811.158	29170
811.299	29277
811.441	29345
811.582	29448
811.724	29269
811.865	29064
812.007	29273
812.148	29296
812.29	29334
812.431	29269
812.573	29642
812.714	29680
812.855	29665
812.997	29882
813.138	29984
813.279	29935
813.421	29691
813.562	29752
813.703	29596
813.845	29463
813.986	29124
814.127	29086
814.268	29220
814.41	29018
814.551	29018
814.692	29155
814.833	29037
814.974	28980
815.115	28862
815.256	28778
815.397	28892
815.539	29029
815.68	28763
815.821	28729
815.962	28892
816.103	28866
816.244	28641
816.385	28615
816.526	28500
816.666	28348
816.807	28356
816.948	28462
817.089	28333
817.23	28417
817.371	28291
817.512	28238
817.653	28356
817.793	28230
817.934	28249
818.075	28276
818.216	28249
818.356	28272
818.497	28185
818.638	28017
818.778	28120
818.919	28105
819.06	28150
819.2	28173
819.341	28432
819.481	28238
819.622	28523
819.762	28725
819.903	28531
820.043	28447
820.184	28447
820.324	28436
820.465	28561
820.605	28500
820.746	28474
820.886	28230
821.026	28428
821.167	28287
821.307	28466
821.447	28375
821.588	28265
821.728	28200
821.868	27930
822.008	27892
822.149	27789
822.289	27835
822.429	27553
822.569	27530
822.709	27462
822.849	27306
822.99	27310
823.13	27165
823.27	27176
823.41	26944
823.55	27188
823.69	27077
823.83	27157
823.97	27142
824.11	26960
824.25	26872
824.389	26975
824.529	27089
824.669	27009
824.809	27116
824.949	26982
825.089	26883
825.228	26914
825.368	26872
825.508	26826
825.648	26883
825.787	26944
825.927	26906
826.067	26830
826.206	26781
826.346	27055
826.485	26701
826.625	26636
826.765	26891
826.904	26861
827.044	26636
827.183	26636
827.323	26530
827.462	26598
827.601	26549
827.741	26556
827.88	26537
828.02	26457
828.159	26518
828.298	26488
828.437	26625
828.577	26450
828.716	26609
828.855	26469
828.994	26278
829.134	26191
829.273	26358
829.412	26309
829.551	26259
829.69	26214
829.829	26374
829.968	26347
830.107	26199
830.246	26282
830.385	26195
830.524	26199
830.663	26176
830.802	26088
830.941	25746
831.08	25871
831.219	25989
831.357	25856
831.496	26138
831.635	25830
831.774	25738
831.913	25772
832.051	25605
832.19	25594
832.329	25647
832.467	25578
832.606	25476
832.744	25518
832.883	25491
833.022	25403
833.16	25430
833.299	25628
833.437	25601
833.576	25525
833.714	25449
833.852	25540
833.991	25556
834.129	25746
834.267	25723
834.406	25666
834.544	25655
834.682	25529
834.821	25601
834.959	25734
835.097	25552
835.235	25647
835.373	25689
835.511	25502
835.65	25411
835.788	25373
835.926	25297
836.064	25285
836.202	25202
836.34	25426
836.478	25384
836.615	25316
836.753	25331
836.891	25525
837.029	25457
837.167	25293
837.305	25251
837.443	25301
837.58	25190
837.718	25236
837.856	25171
837.993	25217
838.131	25217
838.269	25084
838.406	25084
838.544	25061
838.681	25004
838.819	24787
838.956	24779
839.094	24536
839.231	24848
839.369	24985
839.506	25187
839.643	24920
839.781	24707
839.918	24650
840.055	24661
840.193	24566
840.33	24494
840.467	24734
840.604	24681
840.742	24909
840.879	24483
841.016	24513
841.153	24483
841.29	24715
841.427	24456
841.564	24620
841.701	24574
841.838	24513
841.975	24395
842.112	24566
842.249	24407
842.385	24376
842.522	24665
842.659	24525
842.796	24300
842.933	24346
843.069	24304
843.206	24361
843.343	24536
843.479	24292
843.616	24285
843.752	24205
843.889	24243
844.025	24239
844.162	24197
844.298	24167
844.435	24083
844.571	24110
844.708	24273
844.844	24201
844.98	24266
845.117	24235
845.253	24022
845.389	24076
845.525	23992
845.661	23927
845.798	23885
845.934	23958
846.07	23771
846.206	23923
846.342	24064
846.478	23847
846.614	23718
846.75	23528
846.886	23615
847.022	23646
847.158	23604
847.294	23547
847.429	23604
847.565	23543
847.701	23771
847.837	23315
847.972	23345
848.108	23368
848.244	23341
848.379	23269
848.515	23189
848.65	23151
848.786	23140
848.921	23197
849.057	23220
849.192	23204
849.328	23166
849.463	23151
849.598	23003
849.734	23079
849.869	23083
850.004	23090
850.14	22953
850.275	22953
850.41	22835
850.545	22885
850.68	22946
850.815	22831
850.95	22911
851.085	23174
851.22	23140
851.355	23086
851.49	22923
851.625	22831
851.76	22957
851.895	22869
852.03	22854
852.165	22968
852.299	22869
852.434	23094
852.569	22900
852.703	22877
852.838	23025
852.973	23105
853.107	23159
853.242	22877
853.376	22824
853.511	22607
853.645	22725
853.78	22820
853.914	22664
854.048	22664
854.183	22816
854.317	22748
854.451	22968
854.585	22774
854.72	22877
854.854	22854
854.988	22672
855.122	22702
855.256	22596
855.39	22790
855.524	22877
855.658	22725
855.792	22938
855.926	22847
856.06	22843
856.194	22877
856.327	22683
856.461	22790
856.595	22615
856.729	22717
856.862	22694
856.996	22713
857.13	22782
857.263	22873
857.397	22942
857.53	22653
857.664	22835
857.797	22782
857.931	22828
858.064	22774
858.197	22812
858.331	22725
858.464	22733
858.597	22672
858.731	22706
858.864	22596
858.997	22706
859.13	22622
859.263	22854
859.396	22824
859.529	22763
859.662	22774
859.795	22725
859.928	22816
860.061	22877
860.194	23094
860.327	22774
860.46	22679
860.592	22740
860.725	22896
860.858	22938
860.99	22831
861.123	22660
861.256	22752
861.388	22687
861.521	23444
861.653	22577
861.786	22569
861.918	22672
862.05	22713
862.183	22668
862.315	22645
862.447	22637
862.58	22618
862.712	22390
862.844	22428
862.976	22603
863.108	22474
863.24	22984
863.372	22417
863.504	22402
863.636	22379
863.768	22413
863.9	22360
864.032	22386
864.164	22470
864.296	22523
864.428	22474
864.559	22478
864.691	22561
864.823	22424
864.954	22398
865.086	22390
865.217	22459
865.349	22276
865.48	22268
865.612	22234
865.743	22409
865.875	22436
866.006	22234
866.137	22394
866.269	22413
866.4	22310
866.531	22284
866.662	22276
866.793	22219
866.924	22287
867.055	22226
867.186	22226
867.317	22200
867.448	22204
867.579	22169
867.71	22188
867.841	22112
867.972	22325
868.103	22226
868.233	22284
868.364	22147
868.495	22325
868.625	22577
868.756	22584
868.886	22329
869.017	22432
869.147	22626
869.278	22634
869.408	22618
869.539	22516
869.669	22660
869.799	22421
869.929	22550
870.06	22580
870.19	22866
870.32	22767
870.45	22816
870.58	22782
870.71	22965
870.84	23048
870.97	22828
871.1	22831
871.23	23025
871.36	23079
871.489	23022
871.619	23044
871.749	22968
871.879	23147
872.008	23220
872.138	23067
872.267	23124
872.397	22946
872.526	22797
872.656	22995
872.785	22908
872.915	23086
873.044	23083
873.173	23155
873.303	23128
873.432	23166
873.561	23109
873.69	23025
873.819	23143
873.948	23128
874.077	23037
874.206	23064
874.335	23121
874.464	23288
874.593	23258
874.722	23258
874.851	23444
874.979	23341
875.108	23372
875.237	23341
875.365	23147
875.494	23292
875.623	23372
875.751	23345
875.88	23303
876.008	23246
876.136	23566
876.265	23695
876.393	23802
876.521	23714
876.65	23817
876.778	23752
876.906	23497
877.034	23676
877.162	23630
877.29	23573
877.418	23573
877.546	23630
877.674	23691
877.802	23672
877.93	23596
878.058	23581
878.185	23471
878.313	23611
878.441	23566
878.568	23482
878.696	23642
878.824	23703
878.951	23714
879.079	23847
879.206	23889
879.333	23859
879.461	23623
879.588	23630
879.715	23798
879.842	24053
879.97	23790
880.097	23429
880.224	23509
880.351	23474
880.478	23589
880.605	23334
880.732	23391
880.859	23718
880.986	23600
881.112	23459
881.239	23337
881.366	23227
881.493	23231
881.619	22976
881.746	23064
881.872	22820
881.999	22976
882.125	22942
882.252	22995
882.378	22957
882.505	23147
882.631	22881
882.757	22641
882.883	22835
883.01	22584
883.136	22683
883.262	22584
883.388	22550
883.514	22778
883.64	22694
883.766	22596
883.892	22512
884.018	22546
884.143	22641
884.269	22736
884.395	22333
884.52	22280
884.646	22371
884.772	22253
884.897	22223
885.023	22280
885.148	22360
885.274	22462
885.399	22459
885.524	22303
885.65	22344
885.775	22398
885.9	22253
886.025	22398
886.15	22352
886.275	22325
886.4	22325
886.525	22462
886.65	22375
886.775	22299
886.9	22447
887.025	22531
887.149	22276
887.274	22314
887.399	22112
887.523	22090
887.648	22166
887.773	22002
887.897	22314
888.021	22200
888.146	22040
888.27	22204
888.395	22188
888.519	22131
888.643	22143
888.767	22173
888.891	22143
889.015	22025
889.139	22017
889.263	21937
889.387	22082
889.511	22101
889.635	21994
889.759	21934
889.883	21956
890.006	21945
890.13	22002
890.254	21793
890.377	21816
890.501	21652
890.624	21625
890.748	21660
890.871	21549
890.995	21496
891.118	21439
891.241	21473
891.364	21378
891.488	21538
891.611	21462
891.734	21340
891.857	21462
891.98	21393
892.103	21420
892.226	21458
892.349	21370
892.471	21298
892.594	21329
892.717	21348
892.839	21443
892.962	21325
893.085	21355
893.207	21313
893.33	21199
893.452	21302
893.575	21302
893.697	21169
893.819	21439
893.941	21625
894.064	21515
894.186	21268
894.308	21161
894.43	21367
894.552	21496
894.674	21447
894.796	21154
894.918	21275
895.04	21294
895.161	21367
895.283	21382
895.405	21233
895.526	21378
895.648	21291
895.769	21310
895.891	21351
896.012	21408
896.134	21424
896.255	21287
896.376	21249
896.498	21302
896.619	21363
896.74	21378
896.861	21279
896.982	21568
897.103	21781
897.224	21511
897.345	21526
897.466	21519
897.587	21443
897.708	21614
897.828	21519
897.949	21462
898.07	21382
898.19	21504
898.311	21603
898.431	21439
898.552	21443
898.672	21553
898.792	21538
898.913	21386
899.033	21473
899.153	21313
899.273	21214
899.393	21317
899.513	21268
899.633	21226
899.753	21351
899.873	21146
899.993	21222
900.113	21070
900.232	21203
900.352	21096
900.472	20948
900.591	20986
900.711	21047
900.83	20952
900.95	21157
901.069	21066
901.189	20838
901.308	20716
901.427	20560
901.546	20469
901.665	20724
901.784	20552
901.904	20381
902.023	20385
902.141	20134
902.26	20138
902.379	20138
902.498	20218
902.617	19963
902.735	20122
902.854	19913
902.973	19936
903.091	19731
903.21	19712
903.328	19772
903.446	19620
903.565	19491
903.683	19529
903.801	19510
903.919	19438
904.038	19441
904.156	19282
904.274	19373
904.392	19251
904.51	19217
904.627	19270
904.745	19339
904.863	19285
904.981	19088
905.098	19088
905.216	19008
905.334	19023
905.451	19038
905.569	18905
905.686	18901
905.803	18977
905.921	18661
906.038	18802
906.155	18840
906.272	18722
906.389	18620
906.506	18544
906.623	18486
906.74	18357
906.857	18361
906.974	18361
907.091	18498
907.208	18601
907.324	18353
907.441	18464
907.557	18232
907.674	18110
907.79	18197
907.907	18102
908.023	18159
908.139	18121
908.256	17999
908.372	18174
908.488	17992
908.604	17916
908.72	17832
908.836	17840
908.952	17927
909.068	17939
909.184	18064
909.3	17767
909.415	17988
909.531	17885
909.647	17589
909.762	17589
909.878	17528
909.993	17551
910.108	17512
910.224	17497
910.339	17547
910.454	17535
910.57	17398
910.685	17261
910.8	17638
910.915	17558
911.03	17208
911.145	17155
911.259	17067
911.374	17170
911.489	17033
911.604	17098
911.718	16862
911.833	16934
911.947	16729
912.062	16744
912.176	16911
912.291	16984
912.405	16866
912.519	17166
912.633	17189
912.748	16892
912.862	16854
912.976	16797
913.09	16687
913.204	16733
913.318	16706
913.431	16767
913.545	16748
913.659	16843
913.772	16546
913.886	16565
914	16424
914.113	16550
914.226	16611
914.34	16481
914.453	16394
914.566	16592
914.68	16314
914.793	16226
914.906	16246
915.019	16067
915.132	16078
915.245	16147
915.358	16071
915.47	16082
915.583	16040
915.696	16067
915.809	16223
915.921	16147
916.034	16025
916.146	15949
916.259	15911
916.371	15956
916.483	15991
916.595	15953
916.708	15812
916.82	15876
916.932	15755
917.044	15918
917.156	15778
917.268	15713
917.38	15751
917.491	15698
917.603	15633
917.715	15717
917.826	15732
917.938	15625
918.049	15534
918.161	15667
918.272	15705
918.384	15663
918.495	15618
918.606	15447
918.717	15279
918.828	15386
918.939	15469
919.05	15260
919.161	15405
919.272	15203
919.383	15313
919.494	15466
919.604	15587
919.715	15359
919.826	15214
919.936	15416
920.047	15462
920.157	15386
920.267	15603
920.378	15412
920.488	15325
920.598	15496
920.708	15637
920.818	15538
920.928	15492
921.038	15618
921.148	15572
921.258	15272
921.368	15256
921.477	15104
921.587	15123
921.697	14948
921.806	15062
921.916	14815
922.025	14754
922.134	14762
922.244	14621
922.353	14746
922.462	14629
922.571	14552
922.68	14393
922.789	14317
922.898	14370
923.007	14301
923.116	14446
923.224	14206
923.333	14313
923.442	14256
923.55	14138
923.659	14180
923.767	14225
923.876	14206
923.984	14191
924.092	14020
924.201	14058
924.309	14107
924.417	14043
924.525	14031
924.633	13967
924.741	14887
924.849	13822
924.956	13967
925.064	13772
925.172	13791
925.279	13765
925.387	13734
925.494	13731
925.602	13849
925.709	13731
925.816	13586
925.924	13666
926.031	13696
926.138	13636
926.245	13738
926.352	13651
926.459	13734
926.566	13719
926.673	13563
926.779	13381
926.886	13396
926.993	13213
927.099	13297
927.206	13270
927.312	13217
927.419	13377
927.525	13228
927.631	13339
927.737	13221
927.843	13076
927.95	13012
928.056	13095
928.162	13065
928.267	13088
928.373	13609
928.479	13179
928.585	12916
928.69	13019
928.796	13034
928.901	12829
929.007	12757
929.112	12829
929.218	12840
929.323	12837
929.428	12848
929.533	12848
929.638	12620
929.743	12703
929.848	12711
929.953	12696
930.058	12525
930.163	12490
930.267	12475
930.372	12525
930.477	12365
930.581	12681
930.685	12506
930.79	12372
930.894	12361
930.998	12330
931.103	12380
931.207	12102
931.311	12144
931.415	11901
931.519	11676
931.623	11649
