Data from test_V78500241_713.txt Node
Date: Fri Mar 25 15:46:44 CST 2022
User: usil
Spectrometer: V785-0024
Trigger mode: 0
Integration Time (sec): 4.000000E-1
Scans to average: 1
Nonlinearity correction enabled: false
Boxcar width: 0
Storing dark spectrum: false
XAxis mode: Wavelengths
Number of Pixels in Spectrum: 1024
>>>>>Begin Spectral Data<<<<<
801.071	27408
801.214	27603
801.356	27405
801.499	27180
801.641	27169
801.783	27116
801.926	27188
802.068	27169
802.211	26906
802.353	26990
802.496	26868
802.638	26834
802.78	26716
802.923	26724
803.065	26785
803.208	26743
803.35	26788
803.492	26826
803.635	26887
803.777	26895
803.919	27009
804.061	27241
804.204	27074
804.346	26800
804.488	26765
804.63	26834
804.773	26769
804.915	26986
805.057	27051
805.199	26902
805.341	27051
805.483	27043
805.626	27093
805.768	27001
805.91	26887
806.052	27214
806.194	26967
806.336	27074
806.478	27062
806.62	27070
806.762	27211
806.904	27332
807.046	27507
807.188	27412
807.33	27500
807.472	27504
807.614	27416
807.756	27511
807.898	27378
808.04	27252
808.182	27154
808.324	27317
808.465	27363
808.607	27469
808.749	27713
808.891	27732
809.033	27892
809.174	27717
809.316	27576
809.458	27656
809.6	27637
809.741	27766
809.883	27709
810.025	27983
810.166	27854
810.308	27991
810.45	27884
810.591	27854
810.733	27610
810.875	27595
811.016	27519
811.158	27641
811.299	27705
811.441	27854
811.582	27842
811.724	27827
811.865	27660
812.007	27663
812.148	27595
812.29	27572
812.431	27857
812.573	27987
812.714	28055
812.855	28295
812.997	28272
813.138	28371
813.279	28322
813.421	28211
813.562	28090
813.703	28074
813.845	27975
813.986	27603
814.127	27515
814.268	27450
814.41	27317
814.551	27317
814.692	27462
814.833	27192
814.974	27370
815.115	27374
815.256	27313
815.397	27169
815.539	27214
815.68	27055
815.821	27142
815.962	27180
816.103	27089
816.244	27070
816.385	26963
816.526	26883
816.666	26754
816.807	26636
816.948	26701
817.089	26785
817.23	26701
817.371	26632
817.512	26746
817.653	26693
817.793	26617
817.934	26625
818.075	26602
818.216	26716
818.356	26526
818.497	26545
818.638	26400
818.778	26328
818.919	26351
819.06	26434
819.2	26583
819.341	26640
819.481	26598
819.622	26640
819.762	26861
819.903	26861
820.043	26849
820.184	26800
820.324	26705
820.465	26800
820.605	26651
820.746	26689
820.886	26499
821.026	26689
821.167	26651
821.307	26785
821.447	26629
821.588	26499
821.728	26442
821.868	26286
822.008	26206
822.149	26092
822.289	26069
822.429	25807
822.569	25868
822.709	25738
822.849	25563
822.99	25548
823.13	25624
823.27	25495
823.41	25415
823.55	25354
823.69	25544
823.83	25365
823.97	25354
824.11	25228
824.25	25297
824.389	25343
824.529	25411
824.669	25148
824.809	25373
824.949	25346
825.089	25445
825.228	25171
825.368	25194
825.508	25088
825.648	25050
825.787	25141
825.927	25110
826.067	25080
826.206	25247
826.346	25232
826.485	25084
826.625	25088
826.765	25168
826.904	25175
827.044	24859
827.183	24734
827.323	24734
827.462	25004
827.601	24798
827.741	24852
827.88	24787
828.02	24707
828.159	24753
828.298	24798
828.437	24848
828.577	24681
828.716	24840
828.855	24715
828.994	24566
829.134	24525
829.273	24551
829.412	24505
829.551	24437
829.69	24608
829.829	24509
829.968	24642
830.107	24547
830.246	24509
830.385	24471
830.524	24479
830.663	24239
830.802	24292
830.941	24144
831.08	24022
831.219	24365
831.357	24224
831.496	24277
831.635	24171
831.774	23965
831.913	23923
832.051	24049
832.19	23988
832.329	23961
832.467	23790
832.606	23847
832.744	23752
832.883	23775
833.022	23775
833.16	23855
833.299	23889
833.437	23802
833.576	23866
833.714	23786
833.852	23851
833.991	23920
834.129	23950
834.267	23965
834.406	23821
834.544	23935
834.682	23840
834.821	23847
834.959	23954
835.097	23741
835.235	23999
835.373	23786
835.511	23832
835.65	23718
835.788	23707
835.926	23512
836.064	23501
836.202	23608
836.34	23707
836.478	23809
836.615	23570
836.753	23627
836.891	23634
837.029	23653
837.167	23745
837.305	23634
837.443	23611
837.58	23493
837.718	23543
837.856	23646
837.993	23440
838.131	23573
838.269	23463
838.406	23402
838.544	23231
838.681	23117
838.819	23151
838.956	22896
839.094	22938
839.231	23071
839.369	23140
839.506	23326
839.643	23292
839.781	22896
839.918	22976
840.055	22972
840.193	22908
840.33	22862
840.467	22987
840.604	22881
840.742	23269
840.879	22812
841.016	22797
841.153	22812
841.29	22968
841.427	22797
841.564	22862
841.701	23022
841.838	22774
841.975	22854
842.112	22755
842.249	22752
842.385	22691
842.522	22976
842.659	22763
842.796	22702
842.933	22618
843.069	22626
843.206	22626
843.343	22675
843.479	22634
843.616	22672
843.752	22592
843.889	22504
844.025	22573
844.162	22428
844.298	22538
844.435	22466
844.571	22348
844.708	22413
844.844	22561
844.98	22546
845.117	22641
845.253	22432
845.389	22234
845.525	22325
845.661	22318
845.798	22223
845.934	22215
846.07	22196
846.206	22059
846.342	22291
846.478	22150
846.614	21941
846.75	21838
846.886	21975
847.022	22067
847.158	22036
847.294	21903
847.429	21987
847.565	21945
847.701	22063
847.837	21629
847.972	21599
848.108	21648
848.244	21675
848.379	21428
848.515	21507
848.65	21481
848.786	21622
848.921	21504
849.057	21580
849.192	21549
849.328	21644
849.463	21572
849.598	21542
849.734	21428
849.869	21340
850.004	21222
850.14	21310
850.275	21241
850.41	21241
850.545	21237
850.68	21230
850.815	21161
850.95	21306
851.085	21317
851.22	21424
851.355	21264
851.49	21264
851.625	21180
851.76	21351
851.895	21226
852.03	21226
852.165	21302
852.299	21150
852.434	21332
852.569	21173
852.703	21218
852.838	21310
852.973	21382
853.107	21500
853.242	21192
853.376	21055
853.511	20906
853.645	21100
853.78	21214
853.914	21074
854.048	21005
854.183	20986
854.317	21039
854.451	21332
854.585	21138
854.72	21066
854.854	21203
854.988	21096
855.122	21043
855.256	20979
855.39	21100
855.524	21214
855.658	21135
855.792	21138
855.926	21127
856.06	21108
856.194	21127
856.327	21192
856.461	21005
856.595	20998
856.729	21051
856.862	21142
856.996	21077
857.13	21233
857.263	21192
857.397	21104
857.53	21192
857.664	21119
857.797	21154
857.931	21260
858.064	21112
858.197	21211
858.331	20982
858.464	20960
858.597	20895
858.731	21135
858.864	21013
858.997	21001
859.13	21077
859.263	21070
859.396	21135
859.529	21096
859.662	21051
859.795	21009
859.928	21108
860.061	21207
860.194	21321
860.327	21195
860.46	21047
860.592	21214
860.725	21329
860.858	21154
860.99	21150
861.123	20956
861.256	20994
861.388	20998
861.521	21629
861.653	21036
861.786	20838
861.918	20880
862.05	21051
862.183	21001
862.315	21150
862.447	20994
862.58	21036
862.712	20765
862.844	20838
862.976	20925
863.108	20750
863.24	21302
863.372	20712
863.504	20758
863.636	20705
863.768	20815
863.9	20746
864.032	20842
864.164	20667
864.296	20686
864.428	20887
864.559	20845
864.691	20857
864.823	20800
864.954	20819
865.086	20705
865.217	20716
865.349	20663
865.48	20556
865.612	20777
865.743	20899
865.875	20746
866.006	20609
866.137	20746
866.269	20686
866.4	20693
866.531	20606
866.662	20609
866.793	20609
866.924	20480
867.055	20735
867.186	20533
867.317	20705
867.448	20541
867.579	20621
867.71	20457
867.841	20609
867.972	20629
868.103	20522
868.233	20575
868.364	20689
868.495	20640
868.625	20762
868.756	20880
868.886	20792
869.017	20811
869.147	20902
869.278	21039
869.408	20906
869.539	20925
869.669	20986
869.799	20815
869.929	21066
870.06	20925
870.19	21218
870.32	21252
870.45	21188
870.58	21249
870.71	21214
870.84	21454
870.97	21332
871.1	21355
871.23	21405
871.36	21431
871.489	21370
871.619	21519
871.749	21492
871.879	21416
872.008	21599
872.138	21447
872.267	21507
872.397	21325
872.526	21408
872.656	21458
872.785	21412
872.915	21553
873.044	21656
873.173	21572
873.303	21519
873.432	21583
873.561	21580
873.69	21447
873.819	21557
873.948	21519
874.077	21561
874.206	21397
874.335	21488
874.464	21580
874.593	21682
874.722	21576
874.851	21899
874.979	21751
875.108	21819
875.237	21728
875.365	21523
875.494	21728
875.623	21835
875.751	21728
875.88	21835
876.008	21778
876.136	21975
876.265	22158
876.393	22188
876.521	22105
876.65	22162
876.778	22147
876.906	22059
877.034	22101
877.162	22116
877.29	21968
877.418	22036
877.546	22029
877.674	22158
877.802	22158
877.93	22017
878.058	21934
878.185	22074
878.313	22101
878.441	22112
878.568	21937
878.696	22032
878.824	22090
878.951	22147
879.079	22303
879.206	22291
879.333	22143
879.461	22166
879.588	22143
879.715	22310
879.842	22440
879.97	22188
880.097	21922
880.224	21953
880.351	21937
880.478	21861
880.605	21751
880.732	21899
880.859	22032
880.986	21949
881.112	21895
881.239	21831
881.366	21572
881.493	21420
881.619	21534
881.746	21557
881.872	21462
881.999	21473
882.125	21420
882.252	21549
882.378	21435
882.505	21572
882.631	21473
882.757	21142
882.883	21252
883.01	21169
883.136	21131
883.262	21039
883.388	21055
883.514	21131
883.64	21146
883.766	20998
883.892	20937
884.018	21017
884.143	21192
884.269	21154
884.395	20918
884.52	20804
884.646	20872
884.772	20674
884.897	20583
885.023	20811
885.148	20906
885.274	20918
885.399	20838
885.524	20777
885.65	20826
885.775	20750
885.9	20819
886.025	20994
886.15	20864
886.275	20750
886.4	20716
886.525	20788
886.65	20739
886.775	20777
886.9	20914
887.025	21001
887.149	20758
887.274	20533
887.399	20549
887.523	20552
887.648	20541
887.773	20511
887.897	20613
888.021	20602
888.146	20651
888.27	20644
888.395	20693
888.519	20590
888.643	20682
888.767	20636
888.891	20541
889.015	20396
889.139	20533
889.263	20450
889.387	20457
889.511	20636
889.635	20568
889.759	20408
889.883	20366
890.006	20339
890.13	20526
890.254	20301
890.377	20233
890.501	20172
890.624	20138
890.748	20252
890.871	20043
890.995	19970
891.118	19845
891.241	19871
891.364	20005
891.488	20088
891.611	19913
891.734	19959
891.857	20005
891.98	19963
892.103	20122
892.226	19932
892.349	19959
892.471	19788
892.594	19932
892.717	19955
892.839	19852
892.962	19871
893.085	19959
893.207	19860
893.33	19635
893.452	19658
893.575	19947
893.697	19841
893.819	20081
893.941	20046
894.064	20020
894.186	19890
894.308	19715
894.43	19936
894.552	19959
894.674	19909
894.796	19761
894.918	19833
895.04	19708
895.161	19833
895.283	19925
895.405	19772
895.526	19978
895.648	19868
895.769	19967
895.891	19955
896.012	19997
896.134	19982
896.255	19894
896.376	19917
896.498	19955
896.619	19963
896.74	19822
896.861	19925
896.982	20278
897.103	20309
897.224	20218
897.345	19974
897.466	20016
897.587	20100
897.708	20286
897.828	20115
897.949	19906
898.07	19932
898.19	20054
898.311	20187
898.431	20122
898.552	20191
898.672	20088
898.792	20164
898.913	20130
899.033	20016
899.153	20046
899.273	19780
899.393	19864
899.513	19947
899.633	19913
899.753	19890
899.873	19833
899.993	19913
900.113	19818
900.232	19849
900.352	19814
900.472	19662
900.591	19616
900.711	19605
900.83	19525
900.95	19731
901.069	19811
901.189	19647
901.308	19343
901.427	19168
901.546	19266
901.665	19255
901.784	19232
901.904	19228
902.023	18993
902.141	18890
902.26	18722
902.379	18848
902.498	18825
902.617	18753
902.735	18890
902.854	18753
902.973	18612
903.091	18448
903.21	18486
903.328	18380
903.446	18365
903.565	18232
903.683	18342
903.801	18106
903.919	18228
904.038	18171
904.156	18003
904.274	18140
904.392	17923
904.51	17920
904.627	17935
904.745	18034
904.863	18072
904.981	17794
905.098	17615
905.216	17623
905.334	17676
905.451	17634
905.569	17756
905.686	17623
905.803	17684
905.921	17490
906.038	17634
906.155	17467
906.272	17307
906.389	17391
906.506	17246
906.623	17231
906.74	17159
906.857	17041
906.974	17056
907.091	17292
907.208	17326
907.324	17193
907.441	17132
907.557	17029
907.674	16858
907.79	16934
907.907	16976
908.023	17022
908.139	16965
908.256	16972
908.372	16892
908.488	16820
908.604	16725
908.72	16637
908.836	16611
908.952	16569
909.068	16691
909.184	16668
909.3	16618
909.415	16592
909.531	16626
909.647	16440
909.762	16337
909.878	16352
909.993	16261
910.108	16268
910.224	16306
910.339	16398
910.454	16219
910.57	16078
910.685	16204
910.8	16352
910.915	16265
911.03	16120
911.145	15991
911.259	15994
911.374	15884
911.489	15819
911.604	15797
911.718	15709
911.833	15739
911.947	15652
912.062	15485
912.176	15720
912.291	15682
912.405	15690
912.519	15888
912.633	15930
912.748	15739
912.862	15720
912.976	15454
913.09	15363
913.204	15515
913.318	15458
913.431	15667
913.545	15549
913.659	15656
913.772	15477
913.886	15245
914	15275
914.113	15431
914.226	15401
914.34	15374
914.453	15165
914.566	15321
914.68	15169
914.793	15268
914.906	14960
915.019	14982
915.132	14815
915.245	14921
915.358	14880
915.47	14864
915.583	14906
915.696	14948
915.809	15001
915.921	15055
916.034	14887
916.146	14826
916.259	14724
916.371	14861
916.483	14937
916.595	14716
916.708	14777
916.82	14773
916.932	14781
917.044	14826
917.156	14701
917.268	14537
917.38	14651
917.491	14579
917.603	14598
917.715	14750
917.826	14697
917.938	14492
918.049	14484
918.161	14533
918.272	14667
918.384	14632
918.495	14518
918.606	14385
918.717	14313
918.828	14313
918.939	14419
919.05	14199
919.161	14389
919.272	14187
919.383	14172
919.494	14358
919.604	14499
919.715	14320
919.826	14290
919.936	14278
920.047	14442
920.157	14301
920.267	14495
920.378	14309
920.488	14271
920.598	14503
920.708	14495
920.818	14423
920.928	14530
921.038	14556
921.148	14533
921.258	14309
921.368	14161
921.477	14176
921.587	13986
921.697	13947
921.806	14119
921.916	13811
922.025	13727
922.134	13708
922.244	13685
922.353	13719
922.462	13597
922.571	13514
922.68	13358
922.789	13320
922.898	13285
923.007	13316
923.116	13392
923.224	13365
923.333	13278
923.442	13137
923.55	13141
923.659	13183
923.767	13312
923.876	13091
923.984	13244
924.092	13069
924.201	13031
924.309	13160
924.417	13171
924.525	13004
924.633	13027
924.741	14016
924.849	12875
924.956	12970
925.064	12829
925.172	12745
925.279	12795
925.387	12814
925.494	12684
925.602	12886
925.709	12859
925.816	12620
925.924	12722
926.031	12791
926.138	12776
926.245	12856
926.352	12665
926.459	12760
926.566	12798
926.673	12646
926.779	12589
926.886	12407
926.993	12410
927.099	12369
927.206	12319
927.312	12273
927.419	12391
927.525	12323
927.631	12323
927.737	12277
927.843	12175
927.95	12117
928.056	12163
928.162	12220
928.267	12270
928.373	12779
928.479	12228
928.585	11973
928.69	12148
928.796	12152
928.901	11965
929.007	11874
929.112	12079
929.218	12015
929.323	12045
929.428	11897
929.533	12034
929.638	11908
929.743	11923
929.848	11866
929.953	11855
930.058	11859
930.163	11680
930.267	11592
930.372	11726
930.477	11581
930.581	11741
930.685	11558
930.79	11474
930.894	11592
930.998	11448
931.103	11547
931.207	11277
931.311	11075
931.415	11094
931.519	10824
931.623	10850
