Data from test_V78500241_1912.txt Node
Date: Fri Mar 25 15:55:02 CST 2022
User: usil
Spectrometer: V785-0024
Trigger mode: 0
Integration Time (sec): 4.000000E-1
Scans to average: 1
Nonlinearity correction enabled: false
Boxcar width: 0
Storing dark spectrum: false
XAxis mode: Wavelengths
Number of Pixels in Spectrum: 1024
>>>>>Begin Spectral Data<<<<<
801.071	28599
801.214	28527
801.356	28390
801.499	28344
801.641	28135
801.783	28344
801.926	28207
802.068	28173
802.211	28325
802.353	28215
802.496	27922
802.638	27907
802.78	27838
802.923	28032
803.065	27880
803.208	27949
803.35	27869
803.492	28135
803.635	28063
803.777	28150
803.919	28166
804.061	28508
804.204	28306
804.346	28029
804.488	28055
804.63	28276
804.773	28070
804.915	28272
805.057	28344
805.199	28131
805.341	28139
805.483	28417
805.626	28318
805.768	28257
805.91	28428
806.052	28238
806.194	28329
806.336	28394
806.478	28337
806.62	28322
806.762	28466
806.904	28481
807.046	28828
807.188	28767
807.33	28702
807.472	28885
807.614	28717
807.756	28809
807.898	28656
808.04	28577
808.182	28637
808.324	28637
808.465	28736
808.607	28862
808.749	29048
808.891	28980
809.033	29273
809.174	29067
809.316	29044
809.458	28930
809.6	29064
809.741	29029
809.883	29155
810.025	29227
810.166	29280
810.308	29353
810.45	29246
810.591	29223
810.733	29200
810.875	28965
811.016	28888
811.158	28957
811.299	29185
811.441	29083
811.582	29151
811.724	28919
811.865	29033
812.007	29060
812.148	28980
812.29	29094
812.431	29200
812.573	29330
812.714	29471
812.855	29444
812.997	29551
813.138	29809
813.279	29615
813.421	29573
813.562	29516
813.703	29402
813.845	29235
813.986	28885
814.127	28816
814.268	28687
814.41	28778
814.551	28710
814.692	28755
814.833	28763
814.974	28683
815.115	28759
815.256	28546
815.397	28607
815.539	28683
815.68	28508
815.821	28538
815.962	28634
816.103	28523
816.244	28417
816.385	28390
816.526	28268
816.666	28120
816.807	27991
816.948	28200
817.089	28204
817.23	28025
817.371	27903
817.512	28032
817.653	27968
817.793	28006
817.934	28131
818.075	28044
818.216	28051
818.356	27926
818.497	27907
818.638	27622
818.778	27873
818.919	27892
819.06	27899
819.2	28040
819.341	28048
819.481	28013
819.622	28112
819.762	28500
819.903	28409
820.043	28070
820.184	28432
820.324	28177
820.465	28291
820.605	28124
820.746	28074
820.886	28032
821.026	28105
821.167	28101
821.307	28162
821.447	28032
821.588	28021
821.728	27819
821.868	27846
822.008	27660
822.149	27496
822.289	27481
822.429	27393
822.569	27310
822.709	27321
822.849	27043
822.99	27165
823.13	27001
823.27	26963
823.41	26937
823.55	26883
823.69	26899
823.83	26975
823.97	26887
824.11	26739
824.25	26629
824.389	26640
824.529	26861
824.669	26765
824.809	26796
824.949	26853
825.089	26845
825.228	26629
825.368	26594
825.508	26602
825.648	26552
825.787	26686
825.927	26648
826.067	26549
826.206	26682
826.346	26651
826.485	26583
826.625	26716
826.765	26644
826.904	26682
827.044	26446
827.183	26355
827.323	26263
827.462	26358
827.601	26389
827.741	26252
827.88	26339
828.02	26324
828.159	26229
828.298	26336
828.437	26328
828.577	26278
828.716	26328
828.855	26267
828.994	26012
829.134	26218
829.273	26130
829.412	25928
829.551	26035
829.69	25902
829.829	25947
829.968	26161
830.107	25993
830.246	26062
830.385	25970
830.524	26024
830.663	25852
830.802	25753
830.941	25681
831.08	25571
831.219	25833
831.357	25689
831.496	25826
831.635	25685
831.774	25510
831.913	25411
832.051	25453
832.19	25388
832.329	25491
832.467	25232
832.606	25225
832.744	25168
832.883	25312
833.022	25206
833.16	25282
833.299	25407
833.437	25297
833.576	25270
833.714	25392
833.852	25415
833.991	25415
834.129	25304
834.267	25362
834.406	25289
834.544	25472
834.682	25316
834.821	25320
834.959	25441
835.097	25396
835.235	25346
835.373	25316
835.511	25335
835.65	25274
835.788	25293
835.926	25076
836.064	24962
836.202	24985
836.34	25122
836.478	25270
836.615	25187
836.753	25008
836.891	25270
837.029	25168
837.167	25042
837.305	25088
837.443	25091
837.58	24901
837.718	25080
837.856	25034
837.993	24939
838.131	24935
838.269	24909
838.406	24909
838.544	24901
838.681	24681
838.819	24616
838.956	24445
839.094	24441
839.231	24505
839.369	24612
839.506	24852
839.643	24589
839.781	24445
839.918	24399
840.055	24471
840.193	24479
840.33	24547
840.467	24357
840.604	24452
840.742	24646
840.879	24247
841.016	24350
841.153	24319
841.29	24391
841.427	24391
841.564	24403
841.701	24369
841.838	24258
841.975	24251
842.112	24327
842.249	24232
842.385	24095
842.522	24372
842.659	24167
842.796	24041
842.933	24171
843.069	24133
843.206	24125
843.343	24057
843.479	24136
843.616	24087
843.752	23927
843.889	23889
844.025	24041
844.162	23916
844.298	23965
844.435	23851
844.571	23821
844.708	23954
844.844	23999
844.98	23973
845.117	23927
845.253	23802
845.389	23741
845.525	23760
845.661	23676
845.798	23566
845.934	23726
846.07	23554
846.206	23657
846.342	23707
846.478	23573
846.614	23383
846.75	23512
846.886	23440
847.022	23436
847.158	23242
847.294	23402
847.429	23296
847.565	23337
847.701	23509
847.837	23029
847.972	23109
848.108	23220
848.244	23079
848.379	22999
848.515	22873
848.65	22946
848.786	22938
848.921	22980
849.057	22938
849.192	23071
849.328	22999
849.463	22752
849.598	22976
849.734	22908
849.869	22656
850.004	22778
850.14	22759
850.275	22698
850.41	22668
850.545	22675
850.68	22744
850.815	22759
850.95	22725
851.085	22877
851.22	22896
851.355	22706
851.49	22626
851.625	22660
851.76	22717
851.895	22603
852.03	22653
852.165	22744
852.299	22653
852.434	22850
852.569	22752
852.703	22626
852.838	22660
852.973	22828
853.107	22774
853.242	22580
853.376	22592
853.511	22413
853.645	22478
853.78	22573
853.914	22481
854.048	22360
854.183	22516
854.317	22519
854.451	22668
854.585	22497
854.72	22535
854.854	22603
854.988	22398
855.122	22554
855.256	22363
855.39	22504
855.524	22481
855.658	22455
855.792	22440
855.926	22436
856.06	22557
856.194	22584
856.327	22432
856.461	22413
856.595	22493
856.729	22519
856.862	22668
856.996	22474
857.13	22504
857.263	22611
857.397	22618
857.53	22550
857.664	22637
857.797	22588
857.931	22565
858.064	22599
858.197	22611
858.331	22519
858.464	22306
858.597	22379
858.731	22569
858.864	22470
858.997	22440
859.13	22417
859.263	22504
859.396	22493
859.529	22436
859.662	22485
859.795	22500
859.928	22500
860.061	22637
860.194	22755
860.327	22573
860.46	22462
860.592	22588
860.725	22596
860.858	22725
860.99	22573
861.123	22379
861.256	22466
861.388	22447
861.521	23220
861.653	22390
861.786	22341
861.918	22246
862.05	22371
862.183	22474
862.315	22413
862.447	22656
862.58	22405
862.712	22276
862.844	22303
862.976	22360
863.108	22196
863.24	22599
863.372	22131
863.504	22204
863.636	22185
863.768	22131
863.9	22192
864.032	22185
864.164	22055
864.296	22112
864.428	22242
864.559	22226
864.691	22223
864.823	22036
864.954	22181
865.086	22120
865.217	22025
865.349	22074
865.48	22097
865.612	22010
865.743	22287
865.875	22093
866.006	22059
866.137	22105
866.269	22082
866.4	22063
866.531	21998
866.662	22010
866.793	22044
866.924	21983
867.055	21975
867.186	22200
867.317	21987
867.448	21907
867.579	22006
867.71	22032
867.841	21804
867.972	22078
868.103	21934
868.233	21979
868.364	21975
868.495	22204
868.625	22261
868.756	22306
868.886	22078
869.017	22181
869.147	22268
869.278	22356
869.408	22371
869.539	22276
869.669	22249
869.799	22360
869.929	22363
870.06	22299
870.19	22592
870.32	22535
870.45	22672
870.58	22748
870.71	22725
870.84	22706
870.97	22675
871.1	22771
871.23	22763
871.36	22702
871.489	22679
871.619	22847
871.749	22824
871.879	22881
872.008	22919
872.138	22809
872.267	22790
872.397	22774
872.526	22630
872.656	22687
872.785	22774
872.915	22942
873.044	22991
873.173	22900
873.303	22850
873.432	22961
873.561	22934
873.69	22843
873.819	22702
873.948	23003
874.077	22850
874.206	22911
874.335	22831
874.464	23098
874.593	23105
874.722	22942
874.851	23132
874.979	23105
875.108	23025
875.237	23022
875.365	22980
875.494	23014
875.623	23064
875.751	23025
875.88	23159
876.008	23208
876.136	23181
876.265	23573
876.393	23649
876.521	23452
876.65	23551
876.778	23570
876.906	23402
877.034	23395
877.162	23505
877.29	23360
877.418	23505
877.546	23440
877.674	23421
877.802	23471
877.93	23356
878.058	23330
878.185	23265
878.313	23315
878.441	23429
878.568	23288
878.696	23273
878.824	23444
878.951	23421
879.079	23493
879.206	23668
879.333	23539
879.461	23414
879.588	23448
879.715	23573
879.842	23752
879.97	23566
880.097	23277
880.224	23250
880.351	23132
880.478	23235
880.605	23311
880.732	23239
880.859	23509
880.986	23151
881.112	23280
881.239	23124
881.366	22927
881.493	22854
881.619	22850
881.746	22778
881.872	22889
881.999	22656
882.125	22801
882.252	22778
882.378	22786
882.505	22774
882.631	22615
882.757	22455
882.883	22618
883.01	22337
883.136	22470
883.262	22421
883.388	22249
883.514	22538
883.64	22485
883.766	22440
883.892	22322
884.018	22261
884.143	22413
884.269	22481
884.395	22074
884.52	22082
884.646	22090
884.772	21972
884.897	21960
885.023	22158
885.148	22059
885.274	22139
885.399	22185
885.524	22109
885.65	22185
885.775	22051
885.9	22074
886.025	22280
886.15	22124
886.275	22017
886.4	21972
886.525	21987
886.65	21941
886.775	21979
886.9	22192
887.025	22268
887.149	22029
887.274	21857
887.399	21991
887.523	21880
887.648	21838
887.773	21793
887.897	21945
888.021	21911
888.146	21701
888.27	22067
888.395	21937
888.519	21816
888.643	21835
888.767	21869
888.891	21743
889.015	21576
889.139	21713
889.263	21553
889.387	21679
889.511	21785
889.635	21656
889.759	21549
889.883	21618
890.006	21633
890.13	21781
890.254	21576
890.377	21561
890.501	21447
890.624	21473
890.748	21439
890.871	21336
890.995	21161
891.118	21260
891.241	21237
891.364	21218
891.488	21272
891.611	21180
891.734	21176
891.857	21184
891.98	21264
892.103	21214
892.226	21226
892.349	21096
892.471	20960
892.594	21127
892.717	21108
892.839	21184
892.962	21146
893.085	21161
893.207	21096
893.33	20982
893.452	21036
893.575	21066
893.697	20986
893.819	21138
893.941	21321
894.064	21199
894.186	21047
894.308	20872
894.43	21077
894.552	21207
894.674	21142
894.796	20929
894.918	21123
895.04	21066
895.161	21184
895.283	21009
895.405	21013
895.526	21142
895.648	21192
895.769	21157
895.891	21123
896.012	21203
896.134	21142
896.255	21055
896.376	20994
896.498	21017
896.619	21096
896.74	21032
896.861	20998
896.982	21340
897.103	21519
897.224	21245
897.345	21226
897.466	21135
897.587	21310
897.708	21359
897.828	21230
897.949	21268
898.07	21173
898.19	21157
898.311	21317
898.431	21264
898.552	21131
898.672	21245
898.792	21424
898.913	21207
899.033	21142
899.153	21123
899.273	20895
899.393	21058
899.513	21013
899.633	21104
899.753	21131
899.873	20944
899.993	20906
900.113	20944
900.232	20956
900.352	20944
900.472	20804
900.591	20716
900.711	20746
900.83	20781
900.95	20883
901.069	20853
901.189	20636
901.308	20358
901.427	20305
901.546	20377
901.665	20381
901.784	20366
901.904	20073
902.023	20103
902.141	19875
902.26	19841
902.379	19871
902.498	19814
902.617	19772
902.735	19864
902.854	19860
902.973	19746
903.091	19521
903.21	19476
903.328	19415
903.446	19438
903.565	19297
903.683	19217
903.801	19175
903.919	19084
904.038	19152
904.156	19091
904.274	19137
904.392	18985
904.51	19057
904.627	18958
904.745	19129
904.863	19099
904.981	18806
905.098	18768
905.216	18715
905.334	18753
905.451	18715
905.569	18677
905.686	18700
905.803	18703
905.921	18445
906.038	18623
906.155	18639
906.272	18426
906.389	18437
906.506	18319
906.623	18159
906.74	18224
906.857	18091
906.974	18133
907.091	18228
907.208	18380
907.324	18300
907.441	18106
907.557	17946
907.674	18022
907.79	17843
907.907	17965
908.023	17923
908.139	17920
908.256	17817
908.372	17882
908.488	17840
908.604	17729
908.72	17665
908.836	17634
908.952	17661
909.068	17714
909.184	17695
909.3	17642
909.415	17672
909.531	17657
909.647	17467
909.762	17299
909.878	17318
909.993	17444
910.108	17387
910.224	17307
910.339	17318
910.454	17261
910.57	17094
910.685	17121
910.8	17425
910.915	17170
911.03	17124
911.145	17041
911.259	16972
911.374	17006
911.489	16771
911.604	16854
911.718	16599
911.833	16752
911.947	16607
912.062	16569
912.176	16622
912.291	16641
912.405	16584
912.519	16835
912.633	16839
912.748	16763
912.862	16607
912.976	16527
913.09	16363
913.204	16436
913.318	16402
913.431	16592
913.545	16519
913.659	16599
913.772	16516
913.886	16348
914	16310
914.113	16306
914.226	16356
914.34	16284
914.453	16188
914.566	16402
914.68	16306
914.793	16147
914.906	15895
915.019	15865
915.132	15728
915.245	15747
915.358	15823
915.47	15842
915.583	15892
915.696	15880
915.809	15930
915.921	15994
916.034	15876
916.146	15675
916.259	15728
916.371	15694
916.483	15854
916.595	15599
916.708	15690
916.82	15614
916.932	15625
917.044	15633
917.156	15511
917.268	15507
917.38	15473
917.491	15526
917.603	15568
917.715	15584
917.826	15519
917.938	15469
918.049	15272
918.161	15450
918.272	15576
918.384	15549
918.495	15431
918.606	15294
918.717	15169
918.828	15256
918.939	15180
919.05	15154
919.161	15195
919.272	14963
919.383	14960
919.494	15313
919.604	15393
919.715	15184
919.826	15039
919.936	15112
920.047	15332
920.157	15230
920.267	15306
920.378	15199
920.488	15142
920.598	15321
920.708	15408
920.818	15268
920.928	15268
921.038	15481
921.148	15424
921.258	15127
921.368	15017
921.477	14838
921.587	14849
921.697	14785
921.806	14891
921.916	14731
922.025	14503
922.134	14579
922.244	14507
922.353	14552
922.462	14412
922.571	14282
922.68	14256
922.789	14138
922.898	14248
923.007	14130
923.116	14187
923.224	14221
923.333	14126
923.442	14016
923.55	13993
923.659	14058
923.767	14077
923.876	13917
923.984	13967
924.092	13940
924.201	13868
924.309	13906
924.417	13864
924.525	13795
924.633	13696
924.741	14590
924.849	13540
924.956	13708
925.064	13578
925.172	13460
925.279	13487
925.387	13586
925.494	13518
925.602	13689
925.709	13552
925.816	13365
925.924	13480
926.031	13567
926.138	13453
926.245	13411
926.352	13369
926.459	13559
926.566	13499
926.673	13464
926.779	13362
926.886	13312
926.993	13232
927.099	13122
927.206	13076
927.312	13080
927.419	13202
927.525	13046
927.631	13175
927.737	12920
927.843	13004
927.95	12791
928.056	12894
928.162	12886
928.267	12924
928.373	13578
928.479	12924
928.585	12795
928.69	12875
928.796	12894
928.901	12684
929.007	12642
929.112	12867
929.218	12768
929.323	12654
929.428	12547
929.533	12669
929.638	12544
929.743	12544
929.848	12620
929.953	12544
930.058	12479
930.163	12292
930.267	12258
930.372	12391
930.477	12311
930.581	12483
930.685	12323
930.79	12178
930.894	12178
930.998	12121
931.103	12243
931.207	11851
931.311	11882
931.415	11707
931.519	11611
931.623	11562
