Data from test_V78500241_3576.txt Node
Date: Fri Mar 25 16:06:34 CST 2022
User: usil
Spectrometer: V785-0024
Trigger mode: 0
Integration Time (sec): 4.000000E-1
Scans to average: 1
Nonlinearity correction enabled: false
Boxcar width: 0
Storing dark spectrum: false
XAxis mode: Wavelengths
Number of Pixels in Spectrum: 1024
>>>>>Begin Spectral Data<<<<<
801.071	28839
801.214	28763
801.356	28550
801.499	28417
801.641	28246
801.783	28413
801.926	28417
802.068	28344
802.211	28219
802.353	28280
802.496	28166
802.638	28139
802.78	28036
802.923	27998
803.065	28112
803.208	28067
803.35	28067
803.492	28234
803.635	28295
803.777	28356
803.919	28401
804.061	28672
804.204	28371
804.346	28310
804.488	28390
804.63	28188
804.773	28139
804.915	28382
805.057	28417
805.199	28375
805.341	28379
805.483	28535
805.626	28519
805.768	28428
805.91	28516
806.052	28443
806.194	28303
806.336	28755
806.478	28527
806.62	28611
806.762	28459
806.904	28778
807.046	29010
807.188	29064
807.33	28938
807.472	29029
807.614	28854
807.756	28927
807.898	28820
808.04	28729
808.182	28797
808.324	28900
808.465	28873
808.607	29102
808.749	29246
808.891	29318
809.033	29375
809.174	29159
809.316	29170
809.458	29162
809.6	29086
809.741	29273
809.883	29353
810.025	29452
810.166	29524
810.308	29398
810.45	29452
810.591	29421
810.733	29265
810.875	29128
811.016	29124
811.158	29033
811.299	29398
811.441	29467
811.582	29292
811.724	29265
811.865	29204
812.007	29185
812.148	29284
812.29	29239
812.431	29368
812.573	29474
812.714	29775
812.855	29707
812.997	29828
813.138	29973
813.279	29904
813.421	29718
813.562	29646
813.703	29505
813.845	29543
813.986	29143
814.127	29033
814.268	28999
814.41	28968
814.551	29041
814.692	29006
814.833	29083
814.974	28946
815.115	28908
815.256	28831
815.397	28733
815.539	28744
815.68	28805
815.821	28717
815.962	28744
816.103	28721
816.244	28527
816.385	28550
816.526	28554
816.666	28318
816.807	28188
816.948	28196
817.089	28242
817.23	28249
817.371	28188
817.512	28303
817.653	28226
817.793	28116
817.934	28215
818.075	28253
818.216	28344
818.356	28154
818.497	28044
818.638	28070
818.778	28036
818.919	28048
819.06	28124
819.2	28223
819.341	28276
819.481	28352
819.622	28394
819.762	28573
819.903	28516
820.043	28432
820.184	28352
820.324	28352
820.465	28375
820.605	28390
820.746	28409
820.886	28196
821.026	28238
821.167	28322
821.307	28356
821.447	28234
821.588	28188
821.728	28124
821.868	27918
822.008	27728
822.149	27751
822.289	27865
822.429	27424
822.569	27485
822.709	27367
822.849	27260
822.99	27245
823.13	27214
823.27	27077
823.41	27222
823.55	27024
823.69	27055
823.83	27188
823.97	27070
824.11	26826
824.25	26933
824.389	26956
824.529	26872
824.669	26929
824.809	27005
824.949	26887
825.089	26937
825.228	26937
825.368	26845
825.508	26724
825.648	26754
825.787	26705
825.927	26765
826.067	26667
826.206	26762
826.346	26880
826.485	26708
826.625	26705
826.765	26826
826.904	26758
827.044	26644
827.183	26556
827.323	26545
827.462	26606
827.601	26514
827.741	26473
827.88	26434
828.02	26389
828.159	26453
828.298	26568
828.437	26613
828.577	26396
828.716	26674
828.855	26305
828.994	26263
829.134	26180
829.273	26305
829.412	26130
829.551	26202
829.69	26164
829.829	26244
829.968	26263
830.107	26301
830.246	26225
830.385	26183
830.524	26115
830.663	26008
830.802	25921
830.941	25719
831.08	25700
831.219	25864
831.357	26062
831.496	26119
831.635	25700
831.774	25616
831.913	25609
832.051	25635
832.19	25502
832.329	25556
832.467	25468
832.606	25578
832.744	25388
832.883	25449
833.022	25430
833.16	25548
833.299	25441
833.437	25502
833.576	25635
833.714	25449
833.852	25738
833.991	25734
834.129	25651
834.267	25651
834.406	25628
834.544	25613
834.682	25491
834.821	25445
834.959	25556
835.097	25438
835.235	25438
835.373	25620
835.511	25464
835.65	25369
835.788	25308
835.926	25346
836.064	25110
836.202	25168
836.34	25407
836.478	25422
836.615	25259
836.753	25297
836.891	25438
837.029	25445
837.167	25331
837.305	25247
837.443	25225
837.58	25278
837.718	25221
837.856	25228
837.993	25065
838.131	25164
838.269	25042
838.406	25107
838.544	25012
838.681	24798
838.819	24768
838.956	24631
839.094	24616
839.231	24757
839.369	24821
839.506	24992
839.643	24981
839.781	24578
839.918	24551
840.055	24696
840.193	24639
840.33	24505
840.467	24528
840.604	24623
840.742	24806
840.879	24338
841.016	24532
841.153	24399
841.29	24669
841.427	24502
841.564	24566
841.701	24350
841.838	24502
841.975	24475
842.112	24498
842.249	24399
842.385	24304
842.522	24627
842.659	24281
842.796	24304
842.933	24292
843.069	24361
843.206	24308
843.343	24304
843.479	24403
843.616	24251
843.752	24091
843.889	23977
844.025	24216
844.162	24011
844.298	24235
844.435	23916
844.571	24015
844.708	24140
844.844	24186
844.98	24277
845.117	24205
845.253	24026
845.389	23923
845.525	23984
845.661	23885
845.798	23786
845.934	23984
846.07	23824
846.206	23832
846.342	23942
846.478	23805
846.614	23642
846.75	23531
846.886	23547
847.022	23596
847.158	23642
847.294	23467
847.429	23501
847.565	23551
847.701	23684
847.837	23326
847.972	23174
848.108	23345
848.244	23387
848.379	23098
848.515	23178
848.65	22995
848.786	23132
848.921	22999
849.057	23337
849.192	23128
849.328	23064
849.463	23250
849.598	23083
849.734	23048
849.869	22930
850.004	22843
850.14	22919
850.275	22953
850.41	22729
850.545	22767
850.68	22790
850.815	22927
850.95	22881
851.085	23041
851.22	23018
851.355	22889
851.49	22919
851.625	22831
851.76	22824
851.895	22759
852.03	22748
852.165	22801
852.299	22900
852.434	22995
852.569	22915
852.703	22938
852.838	23018
852.973	23105
853.107	22949
853.242	22824
853.376	22759
853.511	22615
853.645	22683
853.78	22736
853.914	22645
854.048	22584
854.183	22706
854.317	22767
854.451	22923
854.585	22767
854.72	22645
854.854	22790
854.988	22748
855.122	22702
855.256	22561
855.39	22736
855.524	22809
855.658	22771
855.792	22755
855.926	22668
856.06	22793
856.194	22710
856.327	22645
856.461	22611
856.595	22523
856.729	22542
856.862	22934
856.996	22740
857.13	22748
857.263	22824
857.397	22771
857.53	22649
857.664	22744
857.797	22820
857.931	22740
858.064	22748
858.197	22854
858.331	22721
858.464	22557
858.597	22702
858.731	22626
858.864	22630
858.997	22748
859.13	22713
859.263	22725
859.396	22892
859.529	22759
859.662	22668
859.795	22790
859.928	22546
860.061	22847
860.194	22946
860.327	22862
860.46	22664
860.592	22854
860.725	22892
860.858	22839
860.99	22744
861.123	22653
861.256	22702
861.388	22698
861.521	23383
861.653	22611
861.786	22523
861.918	22512
862.05	22615
862.183	22611
862.315	22584
862.447	22752
862.58	22440
862.712	22371
862.844	22322
862.976	22478
863.108	22432
863.24	22896
863.372	22371
863.504	22238
863.636	22402
863.768	22481
863.9	22428
864.032	22341
864.164	22325
864.296	22398
864.428	22592
864.559	22535
864.691	22493
864.823	22402
864.954	22360
865.086	22367
865.217	22325
865.349	22177
865.48	22295
865.612	22284
865.743	22303
865.875	22204
866.006	22196
866.137	22344
866.269	22306
866.4	22238
866.531	22173
866.662	22093
866.793	22295
866.924	22261
867.055	22101
867.186	22219
867.317	22181
867.448	22101
867.579	22215
867.71	22074
867.841	22177
867.972	22143
868.103	22166
868.233	22185
868.364	22291
868.495	22306
868.625	22417
868.756	22516
868.886	22371
869.017	22413
869.147	22500
869.278	22580
869.408	22470
869.539	22436
869.669	22535
869.799	22615
869.929	22611
870.06	22535
870.19	22759
870.32	22645
870.45	22767
870.58	22843
870.71	23003
870.84	22843
870.97	22771
871.1	22812
871.23	22972
871.36	23143
871.489	22889
871.619	22987
871.749	22862
871.879	23113
872.008	23181
872.138	23064
872.267	23147
872.397	22900
872.526	22911
872.656	22961
872.785	22801
872.915	23060
873.044	23098
873.173	23083
873.303	23220
873.432	23143
873.561	23098
873.69	23025
873.819	23086
873.948	23113
874.077	22938
874.206	23071
874.335	23086
874.464	23254
874.593	23303
874.722	23337
874.851	23341
874.979	23284
875.108	23356
875.237	23368
875.365	23105
875.494	23258
875.623	23337
875.751	23162
875.88	23318
876.008	23429
876.136	23459
876.265	23577
876.393	23745
876.521	23615
876.65	23653
876.778	23672
876.906	23646
877.034	23528
877.162	23589
877.29	23516
877.418	23619
877.546	23737
877.674	23630
877.802	23676
877.93	23596
878.058	23531
878.185	23600
878.313	23535
878.441	23661
878.568	23383
878.696	23608
878.824	23649
878.951	23718
879.079	23920
879.206	23870
879.333	23809
879.461	23733
879.588	23710
879.715	23714
879.842	23973
879.97	23661
880.097	23436
880.224	23360
880.351	23471
880.478	23482
880.605	23383
880.732	23398
880.859	23703
880.986	23520
881.112	23452
881.239	23353
881.366	23071
881.493	22919
881.619	22984
881.746	22991
881.872	23010
881.999	22961
882.125	22885
882.252	23048
882.378	22972
882.505	23067
882.631	22881
882.757	22634
882.883	22778
883.01	22740
883.136	22672
883.262	22504
883.388	22523
883.514	22592
883.64	22649
883.766	22588
883.892	22508
884.018	22447
884.143	22615
884.269	22698
884.395	22440
884.52	22371
884.646	22367
884.772	22215
884.897	22120
885.023	22379
885.148	22348
885.274	22489
885.399	22440
885.524	22185
885.65	22341
885.775	22314
885.9	22181
886.025	22386
886.15	22428
886.275	22207
886.4	22333
886.525	22386
886.65	22131
886.775	22215
886.9	22306
887.025	22478
887.149	22291
887.274	22051
887.399	22116
887.523	22090
887.648	21964
887.773	21804
887.897	22147
888.021	22158
888.146	22032
888.27	22131
888.395	22002
888.519	22051
888.643	22109
888.767	22067
888.891	21941
889.015	21774
889.139	21880
889.263	21774
889.387	21972
889.511	22021
889.635	21899
889.759	21861
889.883	21747
890.006	21831
890.13	22013
890.254	21827
890.377	21770
890.501	21530
890.624	21526
890.748	21603
890.871	21481
890.995	21321
891.118	21237
891.241	21428
891.364	21443
891.488	21526
891.611	21367
891.734	21447
891.857	21367
891.98	21405
892.103	21424
892.226	21374
892.349	21310
892.471	21199
892.594	21233
892.717	21264
892.839	21313
892.962	21359
893.085	21439
893.207	21245
893.33	21321
893.452	21142
893.575	21329
893.697	21298
893.819	21370
893.941	21534
894.064	21370
894.186	21188
894.308	21104
894.43	21351
894.552	21488
894.674	21405
894.796	21211
894.918	21176
895.04	21310
895.161	21329
895.283	21291
895.405	21138
895.526	21291
895.648	21203
895.769	21230
895.891	21241
896.012	21412
896.134	21268
896.255	21245
896.376	21233
896.498	21165
896.619	21294
896.74	21256
896.861	21325
896.982	21443
897.103	21622
897.224	21458
897.345	21428
897.466	21450
897.587	21431
897.708	21549
897.828	21542
897.949	21469
898.07	21245
898.19	21447
898.311	21629
898.431	21420
898.552	21439
898.672	21507
898.792	21561
898.913	21393
899.033	21397
899.153	21306
899.273	21176
899.393	21150
899.513	21226
899.633	21226
899.753	21298
899.873	21066
899.993	21230
900.113	21036
900.232	21173
900.352	21222
900.472	21028
900.591	20990
900.711	20941
900.83	20834
900.95	21104
901.069	20967
901.189	20902
901.308	20541
901.427	20495
901.546	20533
901.665	20526
901.784	20552
901.904	20355
902.023	20294
902.141	20008
902.26	20062
902.379	20096
902.498	19951
902.617	20016
902.735	20088
902.854	19925
902.973	19989
903.091	19582
903.21	19563
903.328	19639
903.446	19639
903.565	19491
903.683	19468
903.801	19339
903.919	19411
904.038	19518
904.156	19255
904.274	19369
904.392	19168
904.51	19099
904.627	19133
904.745	19251
904.863	19213
904.981	18928
905.098	18837
905.216	18985
905.334	19072
905.451	18939
905.569	18909
905.686	18909
905.803	18962
905.921	18707
906.038	18715
906.155	18711
906.272	18589
906.389	18547
906.506	18391
906.623	18422
906.74	18426
906.857	18315
906.974	18350
907.091	18369
907.208	18486
907.324	18403
907.441	18308
907.557	18144
907.674	18133
907.79	18019
907.907	18125
908.023	18159
908.139	18114
908.256	18011
908.372	18019
908.488	17950
908.604	17866
908.72	17779
908.836	17805
908.952	17855
909.068	17866
909.184	17908
909.3	17809
909.415	17714
909.531	17832
909.647	17551
909.762	17528
909.878	17444
909.993	17535
910.108	17467
910.224	17436
910.339	17528
910.454	17421
910.57	17273
910.685	17280
910.8	17570
910.915	17444
911.03	17258
911.145	17189
911.259	17052
911.374	17086
911.489	16995
911.604	16965
911.718	16850
911.833	16904
911.947	16725
912.062	16649
912.176	16843
912.291	16881
912.405	16843
912.519	16949
912.633	16999
912.748	16831
912.862	16866
912.976	16717
913.09	16508
913.204	16706
913.318	16656
913.431	16736
913.545	16706
913.659	16725
913.772	16641
913.886	16428
914	16497
914.113	16493
914.226	16607
914.34	16512
914.453	16314
914.566	16451
914.68	16242
914.793	16337
914.906	16006
915.019	16025
915.132	15979
915.245	15953
915.358	16044
915.47	15930
915.583	15930
915.696	16059
915.809	16120
915.921	16124
916.034	15941
916.146	15956
916.259	15972
916.371	15949
916.483	15895
916.595	15888
916.708	15808
916.82	15781
916.932	15918
917.044	15808
917.156	15739
917.268	15656
917.38	15686
917.491	15595
917.603	15606
917.715	15759
917.826	15759
917.938	15492
918.049	15408
918.161	15576
918.272	15694
918.384	15584
918.495	15580
918.606	15382
918.717	15363
918.828	15291
918.939	15454
919.05	15195
919.161	15401
919.272	15142
919.383	15150
919.494	15306
919.604	15523
919.715	15363
919.826	15233
919.936	15306
920.047	15420
920.157	15302
920.267	15469
920.378	15355
920.488	15310
920.598	15534
920.708	15511
920.818	15363
920.928	15481
921.038	15603
921.148	15485
921.258	15252
921.368	15256
921.477	15032
921.587	15108
921.697	14971
921.806	15028
921.916	14880
922.025	14743
922.134	14632
922.244	14640
922.353	14701
922.462	14587
922.571	14438
922.68	14305
922.789	14355
922.898	14233
923.007	14237
923.116	14358
923.224	14328
923.333	14320
923.442	14119
923.55	14081
923.659	14180
923.767	14183
923.876	14103
923.984	14107
924.092	14027
924.201	14043
924.309	14077
924.417	13967
924.525	13894
924.633	13993
924.741	14823
924.849	13772
924.956	13814
925.064	13731
925.172	13727
925.279	13681
925.387	13700
925.494	13666
925.602	13803
925.709	13788
925.816	13586
925.924	13708
926.031	13647
926.138	13510
926.245	13613
926.352	13400
926.459	13510
926.566	13715
926.673	13491
926.779	13415
926.886	13514
926.993	13217
927.099	13228
927.206	13149
927.312	13171
927.419	13228
927.525	13107
927.631	13308
927.737	13031
927.843	12966
927.95	12954
928.056	12935
928.162	12977
928.267	13000
928.373	13731
928.479	13038
928.585	12806
928.69	12993
928.796	13038
928.901	12867
929.007	12814
929.112	12825
929.218	12890
929.323	12825
929.428	12817
929.533	12833
929.638	12662
929.743	12658
929.848	12677
929.953	12715
930.058	12574
930.163	12479
930.267	12426
930.372	12608
930.477	12254
930.581	12547
930.685	12395
930.79	12270
930.894	12311
930.998	12292
931.103	12285
931.207	12007
931.311	11992
931.415	11859
931.519	11703
931.623	11672
