Data from test_V78500241_3217.txt Node
Date: Fri Mar 25 16:04:05 CST 2022
User: usil
Spectrometer: V785-0024
Trigger mode: 0
Integration Time (sec): 4.000000E-1
Scans to average: 1
Nonlinearity correction enabled: false
Boxcar width: 0
Storing dark spectrum: false
XAxis mode: Wavelengths
Number of Pixels in Spectrum: 1024
>>>>>Begin Spectral Data<<<<<
801.071	28793
801.214	28774
801.356	28546
801.499	28470
801.641	28356
801.783	28478
801.926	28379
802.068	28512
802.211	28401
802.353	28409
802.496	28097
802.638	27972
802.78	28150
802.923	28055
803.065	27979
803.208	28029
803.35	28150
803.492	28318
803.635	28299
803.777	28188
803.919	28363
804.061	28542
804.204	28481
804.346	28211
804.488	28306
804.63	28215
804.773	28310
804.915	28401
805.057	28615
805.199	28337
805.341	28550
805.483	28645
805.626	28478
805.768	28314
805.91	28580
806.052	28573
806.194	28523
806.336	28668
806.478	28550
806.62	28523
806.762	28675
806.904	28801
807.046	29025
807.188	28820
807.33	28953
807.472	29006
807.614	28881
807.756	29022
807.898	28843
808.04	28877
808.182	28752
808.324	28820
808.465	28869
808.607	29075
808.749	29280
808.891	29242
809.033	29318
809.174	29379
809.316	29113
809.458	29273
809.6	29250
809.741	29208
809.883	29398
810.025	29547
810.166	29512
810.308	29562
810.45	29501
810.591	29463
810.733	29235
810.875	29334
811.016	29113
811.158	29109
811.299	29318
811.441	29349
811.582	29292
811.724	29303
811.865	29235
812.007	29090
812.148	29273
812.29	29307
812.431	29436
812.573	29547
812.714	29722
812.855	29882
812.997	29931
813.138	29931
813.279	29999
813.421	29847
813.562	29748
813.703	29433
813.845	29653
813.986	29227
814.127	28984
814.268	28991
814.41	28995
814.551	28866
814.692	28961
814.833	28888
814.974	28900
815.115	28961
815.256	28812
815.397	28831
815.539	28877
815.68	28702
815.821	28683
815.962	28702
816.103	28740
816.244	28580
816.385	28580
816.526	28523
816.666	28303
816.807	28185
816.948	28386
817.089	28455
817.23	28352
817.371	28215
817.512	28124
817.653	28219
817.793	28131
817.934	28185
818.075	28261
818.216	28306
818.356	28211
818.497	28196
818.638	27964
818.778	28051
818.919	28074
819.06	28036
819.2	28291
819.341	28261
819.481	28352
819.622	28489
819.762	28725
819.903	28641
820.043	28451
820.184	28440
820.324	28367
820.465	28577
820.605	28462
820.746	28352
820.886	28204
821.026	28379
821.167	28333
821.307	28447
821.447	28329
821.588	28074
821.728	28124
821.868	27911
822.008	27675
822.149	27694
822.289	27690
822.429	27599
822.569	27401
822.709	27443
822.849	27367
822.99	27283
823.13	27272
823.27	27161
823.41	27116
823.55	26990
823.69	27142
823.83	27135
823.97	27032
824.11	26830
824.25	26861
824.389	26933
824.529	26914
824.669	26960
824.809	27047
824.949	26902
825.089	27043
825.228	26910
825.368	26796
825.508	26708
825.648	26872
825.787	26762
825.927	26842
826.067	26754
826.206	26777
826.346	26701
826.485	26777
826.625	26838
826.765	26918
826.904	26758
827.044	26594
827.183	26644
827.323	26450
827.462	26541
827.601	26545
827.741	26492
827.88	26594
828.02	26450
828.159	26469
828.298	26469
828.437	26492
828.577	26408
828.716	26499
828.855	26408
828.994	26161
829.134	26142
829.273	26282
829.412	26195
829.551	25989
829.69	26206
829.829	26202
829.968	26259
830.107	26271
830.246	26183
830.385	26142
830.524	26202
830.663	26027
830.802	25928
830.941	25670
831.08	25852
831.219	25879
831.357	25807
831.496	26005
831.635	25799
831.774	25837
831.913	25620
832.051	25590
832.19	25643
832.329	25597
832.467	25559
832.606	25407
832.744	25499
832.883	25506
833.022	25381
833.16	25502
833.299	25487
833.437	25476
833.576	25502
833.714	25479
833.852	25476
833.991	25460
834.129	25639
834.267	25601
834.406	25548
834.544	25499
834.682	25438
834.821	25552
834.959	25765
835.097	25362
835.235	25529
835.373	25476
835.511	25563
835.65	25339
835.788	25339
835.926	25289
836.064	25164
836.202	25327
836.34	25362
836.478	25449
836.615	25240
836.753	25384
836.891	25358
837.029	25422
837.167	25369
837.305	25240
837.443	25255
837.58	25164
837.718	25324
837.856	25183
837.993	25103
838.131	25202
838.269	24920
838.406	25103
838.544	25008
838.681	24867
838.819	24837
838.956	24570
839.094	24536
839.231	24639
839.369	24837
839.506	25027
839.643	24894
839.781	24608
839.918	24559
840.055	24639
840.193	24566
840.33	24696
840.467	24547
840.604	24582
840.742	24783
840.879	24388
841.016	24574
841.153	24490
841.29	24673
841.427	24536
841.564	24646
841.701	24502
841.838	24544
841.975	24498
842.112	24395
842.249	24388
842.385	24437
842.522	24350
842.659	24353
842.796	24330
842.933	24273
843.069	24247
843.206	24361
843.343	24319
843.479	24270
843.616	24228
843.752	24125
843.889	24049
844.025	24254
844.162	24041
844.298	24072
844.435	24064
844.571	24064
844.708	24232
844.844	24330
844.98	24254
845.117	24228
845.253	24049
845.389	23965
845.525	24057
845.661	23828
845.798	23714
845.934	23889
846.07	23764
846.206	23828
846.342	23961
846.478	23691
846.614	23570
846.75	23471
846.886	23608
847.022	23611
847.158	23653
847.294	23444
847.429	23604
847.565	23547
847.701	23657
847.837	23330
847.972	23246
848.108	23345
848.244	23364
848.379	23086
848.515	23121
848.65	23170
848.786	23136
848.921	23254
849.057	23334
849.192	23113
849.328	23033
849.463	23109
849.598	23212
849.734	23067
849.869	23010
850.004	22984
850.14	22824
850.275	22972
850.41	22790
850.545	22790
850.68	22896
850.815	22915
850.95	22771
851.085	23239
851.22	23060
851.355	23022
851.49	22877
851.625	22839
851.76	22938
851.895	22801
852.03	22771
852.165	22877
852.299	22831
852.434	22869
852.569	22847
852.703	22911
852.838	22862
852.973	22995
853.107	22904
853.242	22774
853.376	22717
853.511	22561
853.645	22615
853.78	22771
853.914	22717
854.048	22710
854.183	22698
854.317	22634
854.451	22828
854.585	22812
854.72	22710
854.854	22755
854.988	22557
855.122	22691
855.256	22656
855.39	22626
855.524	22721
855.658	22656
855.792	22649
855.926	22828
856.06	22618
856.194	22828
856.327	22729
856.461	22660
856.595	22611
856.729	22683
856.862	22717
856.996	22660
857.13	22687
857.263	22824
857.397	22717
857.53	22786
857.664	22820
857.797	22641
857.931	22790
858.064	22729
858.197	22706
858.331	22630
858.464	22615
858.597	22668
858.731	22596
858.864	22664
858.997	22546
859.13	22793
859.263	22755
859.396	22774
859.529	22694
859.662	22649
859.795	22637
859.928	22592
860.061	22881
860.194	22801
860.327	22805
860.46	22729
860.592	22911
860.725	22809
860.858	22755
860.99	22615
861.123	22668
861.256	22592
861.388	22771
861.521	23444
861.653	22599
861.786	22436
861.918	22489
862.05	22569
862.183	22630
862.315	22554
862.447	22717
862.58	22615
862.712	22451
862.844	22356
862.976	22470
863.108	22542
863.24	22873
863.372	22348
863.504	22440
863.636	22592
863.768	22451
863.9	22409
864.032	22322
864.164	22436
864.296	22424
864.428	22402
864.559	22352
864.691	22417
864.823	22371
864.954	22394
865.086	22421
865.217	22303
865.349	22272
865.48	22329
865.612	22371
865.743	22402
865.875	22257
866.006	22280
866.137	22291
866.269	22268
866.4	22322
866.531	22215
866.662	22124
866.793	22074
866.924	22230
867.055	22211
867.186	22173
867.317	22314
867.448	22139
867.579	22188
867.71	22226
867.841	22063
867.972	22257
868.103	22128
868.233	22268
868.364	22226
868.495	22265
868.625	22478
868.756	22630
868.886	22333
869.017	22516
869.147	22481
869.278	22626
869.408	22535
869.539	22432
869.669	22470
869.799	22462
869.929	22622
870.06	22516
870.19	22778
870.32	22694
870.45	22744
870.58	22835
870.71	23025
870.84	22961
870.97	22938
871.1	22896
871.23	22961
871.36	22995
871.489	22850
871.619	23060
871.749	23094
871.879	23029
872.008	23223
872.138	23128
872.267	23200
872.397	22908
872.526	22869
872.656	22881
872.785	22767
872.915	23128
873.044	23265
873.173	23064
873.303	23181
873.432	23071
873.561	23117
873.69	23071
873.819	22968
873.948	23307
874.077	23113
874.206	23052
874.335	23029
874.464	23071
874.593	23200
874.722	23166
874.851	23383
874.979	23376
875.108	23280
875.237	23258
875.365	23296
875.494	23284
875.623	23334
875.751	23341
875.88	23311
876.008	23387
876.136	23497
876.265	23668
876.393	23843
876.521	23672
876.65	23775
876.778	23710
876.906	23570
877.034	23653
877.162	23634
877.29	23501
877.418	23649
877.546	23524
877.674	23649
877.802	23554
877.93	23668
878.058	23665
878.185	23627
878.313	23608
878.441	23653
878.568	23459
878.696	23615
878.824	23668
878.951	23691
879.079	23775
879.206	23847
879.333	23836
879.461	23657
879.588	23786
879.715	23817
879.842	23687
879.97	23558
880.097	23547
880.224	23497
880.351	23539
880.478	23566
880.605	23353
880.732	23490
880.859	23630
880.986	23402
881.112	23486
881.239	23265
881.366	23159
881.493	23075
881.619	23014
881.746	23060
881.872	23052
881.999	22953
882.125	22934
882.252	23102
882.378	22961
882.505	23048
882.631	22687
882.757	22812
882.883	22885
883.01	22782
883.136	22527
883.262	22653
883.388	22546
883.514	22656
883.64	22641
883.766	22550
883.892	22497
884.018	22504
884.143	22599
884.269	22733
884.395	22390
884.52	22272
884.646	22371
884.772	22211
884.897	22147
885.023	22226
885.148	22421
885.274	22481
885.399	22443
885.524	22284
885.65	22356
885.775	22261
885.9	22265
886.025	22348
886.15	22306
886.275	22207
886.4	22181
886.525	22363
886.65	22124
886.775	22223
886.9	22325
887.025	22519
887.149	22325
887.274	22090
887.399	22048
887.523	22139
887.648	22006
887.773	21922
887.897	22067
888.021	22082
888.146	21945
888.27	22086
888.395	22185
888.519	22059
888.643	22013
888.767	22185
888.891	21911
889.015	21770
889.139	21949
889.263	21800
889.387	21918
889.511	21956
889.635	21972
889.759	21747
889.883	21793
890.006	21797
890.13	21918
890.254	21720
890.377	21747
890.501	21629
890.624	21572
890.748	21622
890.871	21545
890.995	21496
891.118	21363
891.241	21393
891.364	21428
891.488	21454
891.611	21473
891.734	21416
891.857	21340
891.98	21245
892.103	21408
892.226	21469
892.349	21317
892.471	21173
892.594	21408
892.717	21325
892.839	21176
892.962	21226
893.085	21203
893.207	21226
893.33	21154
893.452	21173
893.575	21405
893.697	21252
893.819	21458
893.941	21469
894.064	21454
894.186	21154
894.308	21142
894.43	21317
894.552	21439
894.674	21351
894.796	21199
894.918	21298
895.04	21184
895.161	21291
895.283	21298
895.405	21173
895.526	21207
895.648	21275
895.769	21230
895.891	21146
896.012	21420
896.134	21207
896.255	21275
896.376	21180
896.498	21211
896.619	21294
896.74	21256
896.861	21237
896.982	21587
897.103	21606
897.224	21500
897.345	21519
897.466	21329
897.587	21382
897.708	21603
897.828	21500
897.949	21473
898.07	21230
898.19	21355
898.311	21515
898.431	21351
898.552	21351
898.672	21500
898.792	21458
898.913	21447
899.033	21294
899.153	21184
899.273	21150
899.393	21173
899.513	21230
899.633	21188
899.753	21233
899.873	21028
899.993	21283
900.113	21150
900.232	21116
900.352	21138
900.472	20864
900.591	20914
900.711	20921
900.83	20910
900.95	21017
901.069	21066
901.189	20899
901.308	20602
901.427	20511
901.546	20492
901.665	20522
901.784	20495
901.904	20355
902.023	20286
902.141	20020
902.26	20020
902.379	20126
902.498	20005
902.617	19917
902.735	20084
902.854	20073
902.973	19909
903.091	19708
903.21	19651
903.328	19704
903.446	19468
903.565	19415
903.683	19499
903.801	19358
903.919	19278
904.038	19308
904.156	19297
904.274	19289
904.392	19236
904.51	19156
904.627	19263
904.745	19278
904.863	19183
904.981	19012
905.098	18829
905.216	18897
905.334	18985
905.451	18993
905.569	18840
905.686	18920
905.803	18798
905.921	18741
906.038	18776
906.155	18551
906.272	18566
906.389	18574
906.506	18494
906.623	18380
906.74	18403
906.857	18205
906.974	18372
907.091	18490
907.208	18445
907.324	18346
907.441	18350
907.557	18140
907.674	18076
907.79	18064
907.907	18167
908.023	18102
908.139	18114
908.256	18110
908.372	18057
908.488	18041
908.604	17904
908.72	17840
908.836	17935
908.952	17897
909.068	17874
909.184	17980
909.3	17859
909.415	17916
909.531	17760
909.647	17543
909.762	17528
909.878	17471
909.993	17528
910.108	17452
910.224	17573
910.339	17493
910.454	17364
910.57	17227
910.685	17269
910.8	17551
910.915	17311
911.03	17425
911.145	17121
911.259	17109
911.374	17064
911.489	17010
911.604	16984
911.718	16858
911.833	16771
911.947	16691
912.062	16637
912.176	16812
912.291	16900
912.405	16854
912.519	17064
912.633	17094
912.748	16820
912.862	16816
912.976	16679
913.09	16497
913.204	16516
913.318	16664
913.431	16831
913.545	16744
913.659	16782
913.772	16519
913.886	16451
914	16409
914.113	16523
914.226	16512
914.34	16554
914.453	16344
914.566	16333
914.68	16402
914.793	16295
914.906	16059
915.019	16055
915.132	16021
915.245	15941
915.358	16013
915.47	15998
915.583	16048
915.696	16086
915.809	16048
915.921	16135
916.034	15911
916.146	15918
916.259	15895
916.371	15987
916.483	15987
916.595	15880
916.708	15823
916.82	15884
916.932	15781
917.044	15842
917.156	15694
917.268	15584
917.38	15660
917.491	15622
917.603	15644
917.715	15694
917.826	15747
917.938	15595
918.049	15458
918.161	15553
918.272	15660
918.384	15698
918.495	15610
918.606	15405
918.717	15386
918.828	15336
918.939	15428
919.05	15245
919.161	15393
919.272	15112
919.383	15100
919.494	15416
919.604	15568
919.715	15401
919.826	15264
919.936	15260
920.047	15416
920.157	15336
920.267	15393
920.378	15207
920.488	15302
920.598	15492
920.708	15774
920.818	15420
920.928	15321
921.038	15584
921.148	15515
921.258	15222
921.368	15165
921.477	14979
921.587	15032
921.697	14868
921.806	15058
921.916	14941
922.025	14583
922.134	14571
922.244	14606
922.353	14773
922.462	14530
922.571	14484
922.68	14400
922.789	14370
922.898	14347
923.007	14271
923.116	14278
923.224	14339
923.333	14305
923.442	14123
923.55	14058
923.659	14164
923.767	14244
923.876	14058
923.984	14115
924.092	14016
924.201	14005
924.309	13959
924.417	13974
924.525	13970
924.633	13917
924.741	14686
924.849	13753
924.956	13799
925.064	13769
925.172	13582
925.279	13616
925.387	13715
925.494	13723
925.602	13826
925.709	13643
925.816	13567
925.924	13674
926.031	13731
926.138	13552
926.245	13643
926.352	13502
926.459	13609
926.566	13647
926.673	13426
926.779	13422
926.886	13384
926.993	13400
927.099	13228
927.206	13160
927.312	13145
927.419	13263
927.525	13175
927.631	13297
927.737	12981
927.843	13057
927.95	12962
928.056	12985
928.162	13015
928.267	13053
928.373	13624
928.479	13133
928.585	12932
928.69	12985
928.796	12970
928.901	13008
929.007	12745
929.112	12814
929.218	12810
929.323	12802
929.428	12779
929.533	12837
929.638	12700
929.743	12677
929.848	12711
929.953	12623
930.058	12547
930.163	12395
930.267	12395
930.372	12551
930.477	12418
930.581	12608
930.685	12445
930.79	12270
930.894	12311
930.998	12209
931.103	12369
931.207	12022
931.311	11912
931.415	11897
931.519	11653
931.623	11619
