Data from test_V78500241_443.txt Node
Date: Fri Mar 25 15:44:52 CST 2022
User: usil
Spectrometer: V785-0024
Trigger mode: 0
Integration Time (sec): 4.000000E-1
Scans to average: 1
Nonlinearity correction enabled: false
Boxcar width: 0
Storing dark spectrum: false
XAxis mode: Wavelengths
Number of Pixels in Spectrum: 1024
>>>>>Begin Spectral Data<<<<<
801.071	28744
801.214	28691
801.356	28523
801.499	28398
801.641	28318
801.783	28382
801.926	28333
802.068	28398
802.211	28246
802.353	28234
802.496	28040
802.638	28040
802.78	27838
802.923	27911
803.065	27774
803.208	27831
803.35	28021
803.492	28051
803.635	28044
803.777	27945
803.919	28181
804.061	28382
804.204	28105
804.346	28040
804.488	27899
804.63	28158
804.773	27892
804.915	28120
805.057	28109
805.199	28120
805.341	28173
805.483	28223
805.626	28188
805.768	28112
805.91	28181
806.052	28352
806.194	28154
806.336	28455
806.478	28211
806.62	28291
806.762	28363
806.904	28580
807.046	28603
807.188	28767
807.33	28790
807.472	28702
807.614	28573
807.756	28599
807.898	28386
808.04	28485
808.182	28489
808.324	28470
808.465	28474
808.607	28767
808.749	28927
808.891	28923
809.033	28980
809.174	28991
809.316	28854
809.458	29003
809.6	28778
809.741	29044
809.883	28858
810.025	29094
810.166	29121
810.308	29235
810.45	29075
810.591	29121
810.733	28923
810.875	28869
811.016	28866
811.158	28759
811.299	29075
811.441	29170
811.582	29003
811.724	28900
811.865	28904
812.007	28892
812.148	28888
812.29	28755
812.431	28957
812.573	29151
812.714	29288
812.855	29349
812.997	29482
813.138	29611
813.279	29634
813.421	29349
813.562	29349
813.703	29170
813.845	28965
813.986	28752
814.127	28577
814.268	28538
814.41	28538
814.551	28409
814.692	28603
814.833	28542
814.974	28459
815.115	28592
815.256	28341
815.397	28379
815.539	28382
815.68	28318
815.821	28177
815.962	28284
816.103	28287
816.244	28287
816.385	28154
816.526	28086
816.666	27941
816.807	27850
816.948	27808
817.089	27751
817.23	27926
817.371	27720
817.512	27705
817.653	27793
817.793	27618
817.934	27743
818.075	27823
818.216	27682
818.356	27679
818.497	27675
818.638	27469
818.778	27519
818.919	27473
819.06	27591
819.2	27671
819.341	27869
819.481	27732
819.622	27888
819.762	28135
819.903	28078
820.043	27953
820.184	27941
820.324	27819
820.465	28036
820.605	27846
820.746	27800
820.886	27743
821.026	27835
821.167	27850
821.307	27911
821.447	27774
821.588	27732
821.728	27614
821.868	27439
822.008	27230
822.149	27294
822.289	27138
822.429	26979
822.569	26914
822.709	26876
822.849	26735
822.99	26777
823.13	26708
823.27	26644
823.41	26530
823.55	26381
823.69	26503
823.83	26450
823.97	26442
824.11	26191
824.25	26256
824.389	26377
824.529	26465
824.669	26358
824.809	26590
824.949	26450
825.089	26438
825.228	26431
825.368	26267
825.508	26195
825.648	26336
825.787	26282
825.927	26305
826.067	26043
826.206	26107
826.346	26214
826.485	26275
826.625	26096
826.765	26202
826.904	26282
827.044	25833
827.183	25947
827.323	25776
827.462	25906
827.601	25822
827.741	25803
827.88	25860
828.02	25670
828.159	25909
828.298	25932
828.437	25982
828.577	25784
828.716	25906
828.855	25727
828.994	25677
829.134	25514
829.273	25643
829.412	25518
829.551	25540
829.69	25499
829.829	25529
829.968	25506
830.107	25651
830.246	25571
830.385	25468
830.524	25510
830.663	25278
830.802	25358
830.941	25057
831.08	25137
831.219	25225
831.357	25164
831.496	25362
831.635	25194
831.774	25038
831.913	24981
832.051	24920
832.19	24734
832.329	24867
832.467	24798
832.606	24719
832.744	24620
832.883	24772
833.022	24829
833.16	24814
833.299	24783
833.437	24700
833.576	24992
833.714	24798
833.852	24867
833.991	24684
834.129	24882
834.267	24863
834.406	24798
834.544	24711
834.682	24779
834.821	24616
834.959	24932
835.097	24760
835.235	24810
835.373	24681
835.511	24821
835.65	24684
835.788	24696
835.926	24429
836.064	24448
836.202	24574
836.34	24669
836.478	24585
836.615	24601
836.753	24608
836.891	24623
837.029	24772
837.167	24585
837.305	24585
837.443	24494
837.58	24479
837.718	24608
837.856	24479
837.993	24456
838.131	24361
838.269	24216
838.406	24391
838.544	24311
838.681	24140
838.819	24057
838.956	23923
839.094	23904
839.231	24011
839.369	24110
839.506	24178
839.643	24163
839.781	23779
839.918	23851
840.055	23828
840.193	23885
840.33	23790
840.467	23821
840.604	23741
840.742	24121
840.879	23615
841.016	23714
841.153	23672
841.29	23950
841.427	23767
841.564	23794
841.701	23668
841.838	23695
841.975	23661
842.112	23649
842.249	23608
842.385	23429
842.522	23707
842.659	23528
842.796	23459
842.933	23531
843.069	23535
843.206	23573
843.343	23535
843.479	23436
843.616	23649
843.752	23296
843.889	23315
844.025	23398
844.162	23391
844.298	23414
844.435	23383
844.571	23246
844.708	23132
844.844	23490
844.98	23398
845.117	23341
845.253	23231
845.389	23132
845.525	23166
845.661	23075
845.798	22949
845.934	23006
846.07	22927
846.206	22953
846.342	23109
846.478	22980
846.614	22771
846.75	22721
846.886	22645
847.022	22729
847.158	22687
847.294	22752
847.429	22634
847.565	22573
847.701	22987
847.837	22386
847.972	22508
848.108	22428
848.244	22363
848.379	22394
848.515	22341
848.65	22280
848.786	22215
848.921	22360
849.057	22554
849.192	22234
849.328	22265
849.463	22299
849.598	22284
849.734	22169
849.869	22101
850.004	22074
850.14	21922
850.275	22025
850.41	21949
850.545	22036
850.68	22086
850.815	22223
850.95	22032
851.085	22135
851.22	21998
851.355	22040
851.49	21998
851.625	21994
851.76	22029
851.895	21892
852.03	21930
852.165	22029
852.299	22158
852.434	22120
852.569	21987
852.703	21972
852.838	22093
852.973	22093
853.107	22154
853.242	22055
853.376	21895
853.511	21606
853.645	21907
853.78	21934
853.914	21892
854.048	21812
854.183	21724
854.317	21861
854.451	22109
854.585	21911
854.72	21854
854.854	21922
854.988	21850
855.122	21915
855.256	21804
855.39	21789
855.524	21842
855.658	21953
855.792	21911
855.926	21827
856.06	21793
856.194	22006
856.327	21762
856.461	21739
856.595	21778
856.729	21762
856.862	22006
856.996	21907
857.13	21812
857.263	21911
857.397	21930
857.53	21876
857.664	21941
857.797	21915
857.931	21884
858.064	21922
858.197	21934
858.331	21869
858.464	21770
858.597	21679
858.731	21713
858.864	21743
858.997	21812
859.13	21743
859.263	21869
859.396	21934
859.529	21660
859.662	21709
859.795	21762
859.928	21831
860.061	21987
860.194	21972
860.327	21812
860.46	21728
860.592	21857
860.725	21968
860.858	22032
860.99	21789
861.123	21819
861.256	21739
861.388	21835
861.521	22375
861.653	21614
861.786	21629
861.918	21690
862.05	21751
862.183	21762
862.315	21717
862.447	21793
862.58	21816
862.712	21462
862.844	21416
862.976	21526
863.108	21614
863.24	21873
863.372	21378
863.504	21431
863.636	21561
863.768	21504
863.9	21492
864.032	21363
864.164	21469
864.296	21454
864.428	21523
864.559	21492
864.691	21591
864.823	21469
864.954	21462
865.086	21454
865.217	21469
865.349	21363
865.48	21542
865.612	21298
865.743	21428
865.875	21412
866.006	21310
866.137	21405
866.269	21416
866.4	21340
866.531	21279
866.662	21355
866.793	21370
866.924	21332
867.055	21325
867.186	21367
867.317	21329
867.448	21176
867.579	21241
867.71	21226
867.841	21176
867.972	21237
868.103	21306
868.233	21268
868.364	21363
868.495	21378
868.625	21439
868.756	21675
868.886	21469
869.017	21553
869.147	21709
869.278	21671
869.408	21492
869.539	21492
869.669	21682
869.799	21568
869.929	21739
870.06	21618
870.19	21835
870.32	21937
870.45	21903
870.58	21899
870.71	22013
870.84	22090
870.97	21895
871.1	22017
871.23	22120
871.36	22040
871.489	22093
871.619	22257
871.749	22032
871.879	22135
872.008	22276
872.138	22059
872.267	22105
872.397	22002
872.526	22029
872.656	22006
872.785	21911
872.915	22188
873.044	22272
873.173	22223
873.303	21972
873.432	22306
873.561	22356
873.69	22303
873.819	22204
873.948	22253
874.077	22082
874.206	22166
874.335	22169
874.464	22310
874.593	22386
874.722	22356
874.851	22436
874.979	22470
875.108	22261
875.237	22272
875.365	22268
875.494	22291
875.623	22443
875.751	22360
875.88	22382
876.008	22527
876.136	22516
876.265	22797
876.393	22805
876.521	22763
876.65	22805
876.778	22809
876.906	22752
877.034	22630
877.162	22774
877.29	22626
877.418	22752
877.546	22713
877.674	22687
877.802	22649
877.93	22538
878.058	22668
878.185	22611
878.313	22683
878.441	22721
878.568	22618
878.696	22736
878.824	22710
878.951	22835
879.079	22854
879.206	22911
879.333	22839
879.461	22831
879.588	22820
879.715	22919
879.842	22987
879.97	22786
880.097	22443
880.224	22698
880.351	22596
880.478	22512
880.605	22573
880.732	22615
880.859	22797
880.986	22588
881.112	22691
881.239	22481
881.366	22211
881.493	22200
881.619	22131
881.746	22143
881.872	22029
881.999	22074
882.125	22032
882.252	22093
882.378	21991
882.505	22093
882.631	21869
882.757	21827
882.883	22002
883.01	21831
883.136	21831
883.262	21724
883.388	21637
883.514	21835
883.64	21755
883.766	21644
883.892	21633
884.018	21477
884.143	21747
884.269	21918
884.395	21660
884.52	21443
884.646	21462
884.772	21389
884.897	21367
885.023	21511
885.148	21568
885.274	21663
885.399	21549
885.524	21462
885.65	21481
885.775	21462
885.9	21405
886.025	21580
886.15	21485
886.275	21447
886.4	21256
886.525	21408
886.65	21329
886.775	21397
886.9	21538
887.025	21545
887.149	21359
887.274	21226
887.399	21291
887.523	21176
887.648	21226
887.773	21096
887.897	21351
888.021	21192
888.146	21173
888.27	21306
888.395	21252
888.519	21237
888.643	21252
888.767	21370
888.891	21199
889.015	20929
889.139	21058
889.263	20971
889.387	21089
889.511	21142
889.635	21165
889.759	20925
889.883	20902
890.006	21005
890.13	21112
890.254	20895
890.377	20872
890.501	20769
890.624	20682
890.748	20743
890.871	20609
890.995	20533
891.118	20480
891.241	20511
891.364	20575
891.488	20602
891.611	20579
891.734	20644
891.857	20594
891.98	20495
892.103	20659
892.226	20495
892.349	20552
892.471	20461
892.594	20533
892.717	20339
892.839	20385
892.962	20499
893.085	20446
893.207	20492
893.33	20294
893.452	20317
893.575	20518
893.697	20404
893.819	20545
893.941	20724
894.064	20602
894.186	20389
894.308	20263
894.43	20404
894.552	20609
894.674	20629
894.796	20393
894.918	20400
895.04	20480
895.161	20575
895.283	20488
895.405	20381
895.526	20492
895.648	20415
895.769	20438
895.891	20545
896.012	20492
896.134	20530
896.255	20408
896.376	20480
896.498	20404
896.619	20476
896.74	20355
896.861	20541
896.982	20861
897.103	20899
897.224	20686
897.345	20651
897.466	20712
897.587	20743
897.708	20910
897.828	20773
897.949	20625
898.07	20655
898.19	20495
898.311	20674
898.431	20724
898.552	20651
898.672	20811
898.792	20727
898.913	20678
899.033	20640
899.153	20549
899.273	20294
899.393	20358
899.513	20419
899.633	20381
899.753	20427
899.873	20233
899.993	20511
900.113	20290
900.232	20442
900.352	20275
900.472	20187
900.591	20103
900.711	20206
900.83	20214
900.95	20225
901.069	20358
901.189	20035
901.308	19830
901.427	19708
901.546	19761
901.665	19871
901.784	19746
901.904	19670
902.023	19552
902.141	19346
902.26	19304
902.379	19293
902.498	19232
902.617	19335
902.735	19312
902.854	19221
902.973	19183
903.091	19053
903.21	18909
903.328	18920
903.446	18947
903.565	18700
903.683	18837
903.801	18528
903.919	18563
904.038	18726
904.156	18532
904.274	18517
904.392	18608
904.51	18475
904.627	18357
904.745	18388
904.863	18426
904.981	18319
905.098	18152
905.216	18121
905.334	18235
905.451	18232
905.569	18034
905.686	18197
905.803	18178
905.921	17912
906.038	18019
906.155	17832
906.272	17847
906.389	17851
906.506	17699
906.623	17680
906.74	17703
906.857	17615
906.974	17520
907.091	17767
907.208	17809
907.324	17642
907.441	17482
907.557	17501
907.674	17372
907.79	17318
907.907	17467
908.023	17349
908.139	17395
908.256	17341
908.372	17368
908.488	17174
908.604	17033
908.72	17159
908.836	17090
908.952	17048
909.068	17193
909.184	17136
909.3	17193
909.415	17117
909.531	17045
909.647	16801
909.762	16774
909.878	16847
909.993	16809
910.108	16812
910.224	16729
910.339	16736
910.454	16622
910.57	16489
910.685	16451
910.8	16835
910.915	16774
911.03	16645
911.145	16371
911.259	16363
911.374	16413
911.489	16291
911.604	16173
911.718	16116
911.833	16105
911.947	15994
912.062	15945
912.176	16238
912.291	16116
912.405	16139
912.519	16272
912.633	16188
912.748	16150
912.862	16055
912.976	15895
913.09	15762
913.204	15854
913.318	15937
913.431	16029
913.545	15956
913.659	16021
913.772	15778
913.886	15739
914	15717
914.113	15743
914.226	15747
914.34	15831
914.453	15599
914.566	15663
914.68	15629
914.793	15466
914.906	15431
915.019	15332
915.132	15154
915.245	15264
915.358	15344
915.47	15355
915.583	15222
915.696	15332
915.809	15428
915.921	15405
916.034	15233
916.146	15252
916.259	15116
916.371	15370
916.483	15184
916.595	15123
916.708	15161
916.82	15169
916.932	15028
917.044	15195
917.156	15081
917.268	14902
917.38	14982
917.491	14925
917.603	14960
917.715	15058
917.826	15024
917.938	14891
918.049	14800
918.161	14979
918.272	15024
918.384	14960
918.495	14807
918.606	14762
918.717	14575
918.828	14629
918.939	14758
919.05	14579
919.161	14765
919.272	14549
919.383	14583
919.494	14731
919.604	14842
919.715	14686
919.826	14701
919.936	14785
920.047	14712
920.157	14644
920.267	14876
920.378	14598
920.488	14511
920.598	14868
920.708	14937
920.818	14746
920.928	14785
921.038	15024
921.148	14872
921.258	14575
921.368	14518
921.477	14412
921.587	14427
921.697	14252
921.806	14454
921.916	14206
922.025	14119
922.134	13989
922.244	14016
922.353	14035
922.462	13955
922.571	13837
922.68	13712
922.789	13632
922.898	13742
923.007	13548
923.116	13685
923.224	13670
923.333	13559
923.442	13540
923.55	13483
923.659	13491
923.767	13510
923.876	13438
923.984	13643
924.092	13407
924.201	13411
924.309	13388
924.417	13396
924.525	13244
924.633	13392
924.741	14065
924.849	13141
924.956	13285
925.064	13080
925.172	13053
925.279	13004
925.387	13069
925.494	13103
925.602	13202
925.709	13168
925.816	12985
925.924	12966
926.031	13069
926.138	13031
926.245	13042
926.352	12920
926.459	13008
926.566	13084
926.673	12920
926.779	12837
926.886	12905
926.993	12662
927.099	12700
927.206	12486
927.312	12536
927.419	12665
927.525	12654
927.631	12658
927.737	12627
927.843	12479
927.95	12350
928.056	12391
928.162	12479
928.267	12570
928.373	13069
928.479	12555
928.585	12285
928.69	12506
928.796	12456
928.901	12239
929.007	12159
929.112	12258
929.218	12292
929.323	12277
929.428	12155
929.533	12262
929.638	12140
929.743	12194
929.848	12136
929.953	11992
930.058	12072
930.163	11786
930.267	11805
930.372	12030
930.477	11741
930.581	12064
930.685	11885
930.79	11767
930.894	11722
930.998	11615
931.103	11760
931.207	11501
931.311	11406
931.415	11204
931.519	11086
931.623	11143
