Data from test_V78500241_1644.txt Node
Date: Fri Mar 25 15:53:11 CST 2022
User: usil
Spectrometer: V785-0024
Trigger mode: 0
Integration Time (sec): 4.000000E-1
Scans to average: 1
Nonlinearity correction enabled: false
Boxcar width: 0
Storing dark spectrum: false
XAxis mode: Wavelengths
Number of Pixels in Spectrum: 1024
>>>>>Begin Spectral Data<<<<<
801.071	28025
801.214	28017
801.356	27789
801.499	27686
801.641	27698
801.783	27629
801.926	27618
802.068	27755
802.211	27568
802.353	27500
802.496	27302
802.638	27454
802.78	27310
802.923	27279
803.065	27005
803.208	27169
803.35	27412
803.492	27466
803.635	27473
803.777	27355
803.919	27454
804.061	27823
804.204	27705
804.346	27393
804.488	27367
804.63	27515
804.773	27519
804.915	27671
805.057	27682
805.199	27526
805.341	27557
805.483	27587
805.626	27728
805.768	27515
805.91	27629
806.052	27739
806.194	27561
806.336	27876
806.478	27804
806.62	27561
806.762	27892
806.904	27854
807.046	28120
807.188	28048
807.33	28188
807.472	28295
807.614	28070
807.756	28154
807.898	27888
808.04	27968
808.182	27998
808.324	27899
808.465	27937
808.607	28154
808.749	28280
808.891	28436
809.033	28405
809.174	28348
809.316	28314
809.458	28238
809.6	28181
809.741	28371
809.883	28455
810.025	28733
810.166	28542
810.308	28691
810.45	28618
810.591	28478
810.733	28379
810.875	28303
811.016	28109
811.158	28093
811.299	28318
811.441	28478
811.582	28333
811.724	28394
811.865	28242
812.007	28246
812.148	28310
812.29	28207
812.431	28561
812.573	28668
812.714	28694
812.855	28949
812.997	28908
813.138	29048
813.279	29109
813.421	28965
813.562	28801
813.703	28668
813.845	28500
813.986	28112
814.127	28040
814.268	27941
814.41	28010
814.551	27956
814.692	28010
814.833	27823
814.974	28006
815.115	27949
815.256	27823
815.397	27945
815.539	27987
815.68	27629
815.821	27778
815.962	27873
816.103	27808
816.244	27587
816.385	27542
816.526	27694
816.666	27397
816.807	27169
816.948	27348
817.089	27363
817.23	27386
817.371	27230
817.512	27233
817.653	27275
817.793	27180
817.934	27306
818.075	27230
818.216	27336
818.356	27260
818.497	27051
818.638	27047
818.778	26940
818.919	26975
819.06	27017
819.2	27112
819.341	27199
819.481	27317
819.622	27469
819.762	27564
819.903	27580
820.043	27351
820.184	27313
820.324	27439
820.465	27466
820.605	27408
820.746	27378
820.886	27226
821.026	27367
821.167	27310
821.307	27458
821.447	27249
821.588	27214
821.728	27017
821.868	26864
822.008	26796
822.149	26724
822.289	26689
822.429	26404
822.569	26396
822.709	26507
822.849	26275
822.99	26233
823.13	26317
823.27	26263
823.41	26107
823.55	25951
823.69	26107
823.83	26149
823.97	26100
824.11	25856
824.25	25784
824.389	25875
824.529	25906
824.669	25784
824.809	25989
824.949	26073
825.089	25966
825.228	25906
825.368	25772
825.508	25681
825.648	25742
825.787	25913
825.927	25750
826.067	25772
826.206	25860
826.346	25845
826.485	25845
826.625	25700
826.765	25879
826.904	25788
827.044	25658
827.183	25537
827.323	25449
827.462	25575
827.601	25506
827.741	25438
827.88	25548
828.02	25388
828.159	25643
828.298	25563
828.437	25544
828.577	25362
828.716	25518
828.855	25384
828.994	25194
829.134	25118
829.273	25183
829.412	25331
829.551	25133
829.69	25118
829.829	25091
829.968	25194
830.107	25388
830.246	25213
830.385	25050
830.524	25019
830.663	25008
830.802	24882
830.941	24741
831.08	24711
831.219	24802
831.357	24844
831.496	24932
831.635	24779
831.774	24753
831.913	24639
832.051	24661
832.19	24585
832.329	24589
832.467	24509
832.606	24532
832.744	24422
832.883	24551
833.022	24422
833.16	24391
833.299	24513
833.437	24604
833.576	24471
833.714	24513
833.852	24608
833.991	24631
834.129	24707
834.267	24635
834.406	24574
834.544	24608
834.682	24452
834.821	24395
834.959	24601
835.097	24426
835.235	24620
835.373	24467
835.511	24570
835.65	24315
835.788	24350
835.926	24296
836.064	24110
836.202	24190
836.34	24270
836.478	24399
836.615	24125
836.753	24445
836.891	24467
837.029	24285
837.167	24205
837.305	24254
837.443	24159
837.58	24205
837.718	24243
837.856	24209
837.993	24022
838.131	24254
838.269	24022
838.406	23939
838.544	24038
838.681	23901
838.819	23802
838.956	23619
839.094	23661
839.231	23779
839.369	23695
839.506	23920
839.643	23874
839.781	23703
839.918	23646
840.055	23707
840.193	23657
840.33	23627
840.467	23687
840.604	23505
840.742	23767
840.879	23505
841.016	23570
841.153	23398
841.29	23589
841.427	23551
841.564	23665
841.701	23600
841.838	23531
841.975	23463
842.112	23543
842.249	23482
842.385	23261
842.522	23444
842.659	23341
842.796	23326
842.933	23360
843.069	23197
843.206	23227
843.343	23353
843.479	23353
843.616	23193
843.752	23121
843.889	23094
844.025	23197
844.162	23102
844.298	23147
844.435	23079
844.571	23071
844.708	23056
844.844	23231
844.98	23216
845.117	23208
845.253	23018
845.389	22968
845.525	22980
845.661	22946
845.798	22782
845.934	22850
846.07	22725
846.206	22881
846.342	22919
846.478	22877
846.614	22508
846.75	22538
846.886	22459
847.022	22611
847.158	22527
847.294	22573
847.429	22550
847.565	22523
847.701	22793
847.837	22337
847.972	22101
848.108	22348
848.244	22272
848.379	22150
848.515	22116
848.65	22093
848.786	22173
848.921	22135
849.057	22223
849.192	22390
849.328	22097
849.463	22211
849.598	22059
849.734	22017
849.869	22067
850.004	21835
850.14	21873
850.275	21800
850.41	21854
850.545	21857
850.68	21953
850.815	21835
850.95	21846
851.085	22002
851.22	21956
851.355	21994
851.49	21819
851.625	21812
851.76	21857
851.895	21937
852.03	21899
852.165	21831
852.299	21922
852.434	22029
852.569	21987
852.703	21953
852.838	21880
852.973	21937
853.107	21934
853.242	21869
853.376	21713
853.511	21587
853.645	21663
853.78	21778
853.914	21648
854.048	21778
854.183	21732
854.317	21785
854.451	21789
854.585	21644
854.72	21614
854.854	21774
854.988	21732
855.122	21713
855.256	21652
855.39	21751
855.524	21778
855.658	21724
855.792	21816
855.926	21667
856.06	21827
856.194	21755
856.327	21606
856.461	21686
856.595	21679
856.729	21629
856.862	21682
856.996	21808
857.13	21816
857.263	21728
857.397	21778
857.53	21759
857.664	21823
857.797	21778
857.931	21827
858.064	21880
858.197	21972
858.331	21675
858.464	21660
858.597	21660
858.731	21644
858.864	21717
858.997	21633
859.13	21568
859.263	21720
859.396	21842
859.529	21759
859.662	21679
859.795	21622
859.928	21755
860.061	21865
860.194	21903
860.327	21816
860.46	21686
860.592	21755
860.725	21873
860.858	21747
860.99	21808
861.123	21568
861.256	21804
861.388	21762
861.521	22379
861.653	21530
861.786	21435
861.918	21530
862.05	21580
862.183	21580
862.315	21690
862.447	21648
862.58	21698
862.712	21443
862.844	21488
862.976	21435
863.108	21557
863.24	21895
863.372	21485
863.504	21332
863.636	21405
863.768	21405
863.9	21576
864.032	21355
864.164	21302
864.296	21462
864.428	21504
864.559	21606
864.691	21549
864.823	21389
864.954	21348
865.086	21420
865.217	21389
865.349	21287
865.48	21355
865.612	21401
865.743	21534
865.875	21344
866.006	21336
866.137	21241
866.269	21332
866.4	21348
866.531	21386
866.662	21367
866.793	21252
866.924	21325
867.055	21260
867.186	21336
867.317	21173
867.448	21123
867.579	21096
867.71	21260
867.841	21241
867.972	21291
868.103	21287
868.233	21348
868.364	21332
868.495	21283
868.625	21481
868.756	21641
868.886	21450
869.017	21481
869.147	21595
869.278	21762
869.408	21507
869.539	21412
869.669	21526
869.799	21583
869.929	21469
870.06	21644
870.19	21915
870.32	21694
870.45	21911
870.58	21823
870.71	22006
870.84	22078
870.97	21911
871.1	21895
871.23	22063
871.36	22010
871.489	21975
871.619	22150
871.749	22105
871.879	22166
872.008	22196
872.138	22040
872.267	22097
872.397	22082
872.526	21941
872.656	21793
872.785	22006
872.915	22090
873.044	22116
873.173	22124
873.303	22154
873.432	22109
873.561	22234
873.69	22177
873.819	22120
873.948	22223
874.077	22070
874.206	22032
874.335	22173
874.464	22291
874.593	22344
874.722	22371
874.851	22394
874.979	22310
875.108	22379
875.237	22287
875.365	22147
875.494	22371
875.623	22432
875.751	22299
875.88	22386
876.008	22497
876.136	22592
876.265	22767
876.393	22797
876.521	22809
876.65	22725
876.778	22713
876.906	22691
877.034	22626
877.162	22771
877.29	22660
877.418	22812
877.546	22626
877.674	22664
877.802	22713
877.93	22683
878.058	22698
878.185	22687
878.313	22717
878.441	22725
878.568	22626
878.696	22489
878.824	22634
878.951	22805
879.079	22828
879.206	22957
879.333	22820
879.461	22637
879.588	22752
879.715	22786
879.842	22858
879.97	22790
880.097	22519
880.224	22508
880.351	22512
880.478	22375
880.605	22466
880.732	22489
880.859	22702
880.986	22481
881.112	22516
881.239	22405
881.366	22306
881.493	22257
881.619	22169
881.746	22162
881.872	22044
881.999	21956
882.125	22086
882.252	22013
882.378	21991
882.505	22360
882.631	21987
882.757	21816
882.883	21854
883.01	21831
883.136	21713
883.262	21629
883.388	21644
883.514	21808
883.64	21762
883.766	21557
883.892	21492
884.018	21549
884.143	21618
884.269	21823
884.395	21545
884.52	21332
884.646	21504
884.772	21351
884.897	21332
885.023	21454
885.148	21477
885.274	21557
885.399	21564
885.524	21393
885.65	21386
885.775	21294
885.9	21310
886.025	21496
886.15	21367
886.275	21336
886.4	21264
886.525	21291
886.65	21268
886.775	21203
886.9	21545
887.025	21576
887.149	21249
887.274	21230
887.399	21157
887.523	21195
887.648	20956
887.773	20933
887.897	21211
888.021	21180
888.146	21161
888.27	21226
888.395	21283
888.519	21173
888.643	21245
888.767	21199
888.891	21024
889.015	20891
889.139	21009
889.263	20906
889.387	21131
889.511	21123
889.635	21188
889.759	20971
889.883	20960
890.006	21036
890.13	20902
890.254	20800
890.377	20781
890.501	20750
890.624	20568
890.748	20762
890.871	20594
890.995	20549
891.118	20469
891.241	20549
891.364	20632
891.488	20606
891.611	20476
891.734	20495
891.857	20629
891.98	20632
892.103	20632
892.226	20537
892.349	20499
892.471	20358
892.594	20446
892.717	20480
892.839	20457
892.962	20507
893.085	20484
893.207	20423
893.33	20339
893.452	20400
893.575	20495
893.697	20442
893.819	20655
893.941	20636
894.064	20522
894.186	20415
894.308	20332
894.43	20522
894.552	20667
894.674	20427
894.796	20442
894.918	20480
895.04	20301
895.161	20541
895.283	20427
895.405	20336
895.526	20396
895.648	20396
895.769	20450
895.891	20351
896.012	20514
896.134	20450
896.255	20465
896.376	20351
896.498	20457
896.619	20469
896.74	20465
896.861	20507
896.982	20777
897.103	20777
897.224	20648
897.345	20678
897.466	20606
897.587	20640
897.708	20823
897.828	20678
897.949	20564
898.07	20518
898.19	20655
898.311	20674
898.431	20594
898.552	20640
898.672	20769
898.792	20754
898.913	20568
899.033	20488
899.153	20423
899.273	20240
899.393	20404
899.513	20541
899.633	20431
899.753	20473
899.873	20415
899.993	20507
900.113	20187
900.232	20415
900.352	20336
900.472	20336
900.591	20149
900.711	20199
900.83	20084
900.95	20202
901.069	20214
901.189	20088
901.308	19951
901.427	19776
901.546	19731
901.665	19803
901.784	19841
901.904	19632
902.023	19537
902.141	19308
902.26	19240
902.379	19308
902.498	19259
902.617	19168
902.735	19274
902.854	19244
902.973	19110
903.091	18928
903.21	18859
903.328	18901
903.446	18833
903.565	18711
903.683	18639
903.801	18578
903.919	18544
904.038	18681
904.156	18479
904.274	18631
904.392	18410
904.51	18410
904.627	18471
904.745	18513
904.863	18410
904.981	18300
905.098	18121
905.216	18140
905.334	18125
905.451	18205
905.569	18194
905.686	18121
905.803	18129
905.921	17939
906.038	18072
906.155	17927
906.272	17817
906.389	17935
906.506	17687
906.623	17718
906.74	17528
906.857	17630
906.974	17649
907.091	17665
907.208	17866
907.324	17760
907.441	17554
907.557	17433
907.674	17356
907.79	17353
907.907	17353
908.023	17455
908.139	17398
908.256	17353
908.372	17212
908.488	17136
908.604	17147
908.72	17128
908.836	17079
908.952	16984
909.068	17227
909.184	17132
909.3	17056
909.415	17102
909.531	17117
909.647	16866
909.762	16812
909.878	16793
909.993	16828
910.108	16831
910.224	16771
910.339	16790
910.454	16630
910.57	16573
910.685	16550
910.8	16828
910.915	16717
911.03	16611
911.145	16363
911.259	16371
911.374	16538
911.489	16409
911.604	16299
911.718	16196
911.833	16105
911.947	16063
912.062	16010
912.176	16124
912.291	16048
912.405	16200
912.519	16284
912.633	16348
912.748	16169
912.862	16082
912.976	15949
913.09	15774
913.204	15873
913.318	15899
913.431	16097
913.545	16071
913.659	16021
913.772	15915
913.886	15812
914	15762
914.113	15869
914.226	15835
914.34	15743
914.453	15557
914.566	15808
914.68	15507
914.793	15526
914.906	15405
915.019	15306
915.132	15252
915.245	15408
915.358	15294
915.47	15332
915.583	15310
915.696	15351
915.809	15420
915.921	15473
916.034	15374
916.146	15214
916.259	15188
916.371	15283
916.483	15317
916.595	15169
916.708	15070
916.82	15195
916.932	15104
917.044	15218
917.156	15131
917.268	15077
917.38	15036
917.491	14956
917.603	14880
917.715	15058
917.826	15123
917.938	14864
918.049	14788
918.161	14864
918.272	14998
918.384	15039
918.495	14941
918.606	14807
918.717	14708
918.828	14792
918.939	14754
919.05	14724
919.161	14693
919.272	14560
919.383	14541
919.494	14739
919.604	14941
919.715	14724
919.826	14629
919.936	14674
920.047	14773
920.157	14689
920.267	14872
920.378	14705
920.488	14644
920.598	14762
920.708	14990
920.818	14796
920.928	14807
921.038	14956
921.148	14929
921.258	14693
921.368	14579
921.477	14423
921.587	14511
921.697	14225
921.806	14389
921.916	14294
922.025	14100
922.134	14111
922.244	14043
922.353	14172
922.462	13959
922.571	13925
922.68	13696
922.789	13689
922.898	13712
923.007	13666
923.116	13719
923.224	13677
923.333	13658
923.442	13567
923.55	13578
923.659	13533
923.767	13578
923.876	13540
923.984	13590
924.092	13438
924.201	13476
924.309	13403
924.417	13476
924.525	13426
924.633	13407
924.741	14115
924.849	13274
924.956	13350
925.064	13194
925.172	13141
925.279	13221
925.387	13202
925.494	13187
925.602	13244
925.709	13179
925.816	13103
925.924	13088
926.031	13133
926.138	13099
926.245	13107
926.352	12909
926.459	13099
926.566	13168
926.673	12993
926.779	12954
926.886	12905
926.993	12745
927.099	12783
927.206	12684
927.312	12791
927.419	12738
927.525	12738
927.631	12783
927.737	12623
927.843	12502
927.95	12350
928.056	12448
928.162	12471
928.267	12635
928.373	13145
928.479	12612
928.585	12384
928.69	12448
928.796	12445
928.901	12289
929.007	12216
929.112	12391
929.218	12323
929.323	12209
929.428	12190
929.533	12350
929.638	12133
929.743	12129
929.848	12159
929.953	12175
930.058	12030
930.163	11859
930.267	11927
930.372	12022
930.477	11790
930.581	12129
930.685	11878
930.79	11817
930.894	11790
930.998	11817
931.103	11942
931.207	11600
931.311	11398
931.415	11467
931.519	11155
931.623	11212
