Data from test_V78500241_2339.txt Node
Date: Fri Mar 25 15:58:00 CST 2022
User: usil
Spectrometer: V785-0024
Trigger mode: 0
Integration Time (sec): 4.000000E-1
Scans to average: 1
Nonlinearity correction enabled: false
Boxcar width: 0
Storing dark spectrum: false
XAxis mode: Wavelengths
Number of Pixels in Spectrum: 1024
>>>>>Begin Spectral Data<<<<<
801.071	28710
801.214	28538
801.356	28401
801.499	28044
801.641	28086
801.783	28139
801.926	28253
802.068	28150
802.211	28002
802.353	27899
802.496	27831
802.638	27838
802.78	27808
802.923	27736
803.065	27694
803.208	27751
803.35	27808
803.492	27998
803.635	28021
803.777	27899
803.919	27930
804.061	28223
804.204	28120
804.346	27998
804.488	27907
804.63	27972
804.773	28044
804.915	28036
805.057	28223
805.199	28078
805.341	28067
805.483	28207
805.626	28116
805.768	28120
805.91	28219
806.052	28097
806.194	28181
806.336	28295
806.478	28230
806.62	28181
806.762	28333
806.904	28360
807.046	28702
807.188	28763
807.33	28538
807.472	28637
807.614	28687
807.756	28542
807.898	28519
808.04	28386
808.182	28409
808.324	28615
808.465	28561
808.607	28774
808.749	28911
808.891	29018
809.033	28946
809.174	28862
809.316	28774
809.458	28888
809.6	28915
809.741	28995
809.883	28938
810.025	29155
810.166	29147
810.308	29231
810.45	28987
810.591	28999
810.733	28885
810.875	28972
811.016	28858
811.158	28733
811.299	28991
811.441	29136
811.582	29025
811.724	28869
811.865	28774
812.007	28885
812.148	28987
812.29	28919
812.431	28900
812.573	29242
812.714	29315
812.855	29307
812.997	29444
813.138	29478
813.279	29634
813.421	29353
813.562	29368
813.703	29220
813.845	28869
813.986	28828
814.127	28573
814.268	28577
814.41	28538
814.551	28580
814.692	28679
814.833	28432
814.974	28672
815.115	28630
815.256	28470
815.397	28462
815.539	28481
815.68	28424
815.821	28291
815.962	28531
816.103	28356
816.244	28341
816.385	28147
816.526	28150
816.666	28017
816.807	27865
816.948	27926
817.089	28002
817.23	27873
817.371	27850
817.512	27823
817.653	27762
817.793	27755
817.934	27884
818.075	27865
818.216	27895
818.356	27709
818.497	27713
818.638	27686
818.778	27656
818.919	27682
819.06	27705
819.2	27762
819.341	27998
819.481	27823
819.622	28002
819.762	28238
819.903	28105
820.043	28177
820.184	28040
820.324	28013
820.465	27991
820.605	27991
820.746	28032
820.886	27914
821.026	28017
821.167	27926
821.307	28017
821.447	28002
821.588	27732
821.728	27675
821.868	27515
822.008	27351
822.149	27412
822.289	27519
822.429	27062
822.569	27104
822.709	27055
822.849	26765
822.99	26864
823.13	26933
823.27	26693
823.41	26689
823.55	26526
823.69	26632
823.83	26629
823.97	26575
824.11	26442
824.25	26442
824.389	26431
824.529	26533
824.669	26598
824.809	26788
824.949	26689
825.089	26598
825.228	26522
825.368	26294
825.508	26370
825.648	26453
825.787	26404
825.927	26495
826.067	26396
826.206	26492
826.346	26473
826.485	26564
826.625	26396
826.765	26457
826.904	26442
827.044	26134
827.183	26168
827.323	26081
827.462	26275
827.601	26107
827.741	26035
827.88	26202
828.02	26054
828.159	26058
828.298	26077
828.437	26100
828.577	25997
828.716	26088
828.855	26062
828.994	25670
829.134	25966
829.273	25693
829.412	25860
829.551	25670
829.69	25753
829.829	25742
829.968	25879
830.107	25894
830.246	25742
830.385	25784
830.524	25651
830.663	25609
830.802	25537
830.941	25388
831.08	25460
831.219	25384
831.357	25521
831.496	25613
831.635	25430
831.774	25282
831.913	25285
832.051	25301
832.19	25168
832.329	25103
832.467	25152
832.606	25031
832.744	25031
832.883	24916
833.022	24954
833.16	25057
833.299	25171
833.437	25095
833.576	25084
833.714	25061
833.852	25122
833.991	25164
834.129	25236
834.267	25236
834.406	25190
834.544	25255
834.682	25034
834.821	24962
834.959	25247
835.097	25031
835.235	25198
835.373	25110
835.511	25057
835.65	24973
835.788	24924
835.926	24928
836.064	24722
836.202	24840
836.34	24935
836.478	25057
836.615	24901
836.753	24981
836.891	24989
837.029	24894
837.167	24848
837.305	24856
837.443	24764
837.58	24673
837.718	24692
837.856	24814
837.993	24802
838.131	24757
838.269	24574
838.406	24661
838.544	24585
838.681	24429
838.819	24384
838.956	24292
839.094	24289
839.231	24289
839.369	24441
839.506	24669
839.643	24448
839.781	24266
839.918	24083
840.055	24239
840.193	24178
840.33	24239
840.467	24125
840.604	24235
840.742	24513
840.879	23999
841.016	24110
841.153	24159
841.29	24155
841.427	24163
841.564	24110
841.701	24197
841.838	23973
841.975	24087
842.112	23973
842.249	24007
842.385	23939
842.522	24144
842.659	24041
842.796	23802
842.933	23961
843.069	24007
843.206	23916
843.343	24030
843.479	24030
843.616	23935
843.752	23760
843.889	23680
844.025	23752
844.162	23570
844.298	23710
844.435	23627
844.571	23478
844.708	23729
844.844	23752
844.98	23843
845.117	23840
845.253	23543
845.389	23611
845.525	23611
845.661	23619
845.798	23436
845.934	23463
846.07	23383
846.206	23341
846.342	23577
846.478	23463
846.614	23220
846.75	23102
846.886	23269
847.022	23239
847.158	23117
847.294	23113
847.429	23181
847.565	23010
847.701	23478
847.837	22991
847.972	22942
848.108	22915
848.244	23022
848.379	22767
848.515	22862
848.65	22725
848.786	22858
848.921	22672
849.057	22824
849.192	22782
849.328	22759
849.463	22653
849.598	22691
849.734	22740
849.869	22542
850.004	22481
850.14	22504
850.275	22497
850.41	22360
850.545	22402
850.68	22436
850.815	22573
850.95	22451
851.085	22573
851.22	22626
851.355	22447
851.49	22325
851.625	22424
851.76	22402
851.895	22538
852.03	22470
852.165	22470
852.299	22474
852.434	22504
852.569	22607
852.703	22550
852.838	22660
852.973	22527
853.107	22557
853.242	22443
853.376	22246
853.511	22238
853.645	22367
853.78	22485
853.914	22284
854.048	22272
854.183	22322
854.317	22432
854.451	22363
854.585	22299
854.72	22295
854.854	22360
854.988	22287
855.122	22299
855.256	22257
855.39	22371
855.524	22341
855.658	22398
855.792	22333
855.926	22249
856.06	22348
856.194	22508
856.327	22367
856.461	22276
856.595	22230
856.729	22303
856.862	22314
856.996	22333
857.13	22360
857.263	22379
857.397	22348
857.53	22322
857.664	22375
857.797	22253
857.931	22352
858.064	22268
858.197	22363
858.331	22291
858.464	22314
858.597	22109
858.731	22181
858.864	22200
858.997	22249
859.13	22272
859.263	22207
859.396	22390
859.529	22303
859.662	22215
859.795	22329
859.928	22257
860.061	22500
860.194	22527
860.327	22215
860.46	22344
860.592	22485
860.725	22360
860.858	22413
860.99	22314
861.123	22325
861.256	22204
861.388	22329
861.521	22968
861.653	22177
861.786	22055
861.918	22082
862.05	22253
862.183	22181
862.315	22211
862.447	22337
862.58	22238
862.712	22078
862.844	21899
862.976	22101
863.108	21987
863.24	22462
863.372	22048
863.504	22070
863.636	22051
863.768	22029
863.9	21979
864.032	21941
864.164	21934
864.296	22040
864.428	22078
864.559	22112
864.691	22135
864.823	21975
864.954	22036
865.086	21911
865.217	21937
865.349	21793
865.48	21922
865.612	21884
865.743	21983
865.875	21876
866.006	21968
866.137	21934
866.269	21915
866.4	21873
866.531	21873
866.662	21823
866.793	21876
866.924	21899
867.055	21854
867.186	21922
867.317	21724
867.448	21618
867.579	21797
867.71	21686
867.841	21732
867.972	21759
868.103	21819
868.233	21835
868.364	21842
868.495	21949
868.625	22044
868.756	22238
868.886	21972
869.017	22093
869.147	22131
869.278	22188
869.408	22139
869.539	21998
869.669	22211
869.799	22124
869.929	22124
870.06	22097
870.19	22379
870.32	22341
870.45	22428
870.58	22500
870.71	22455
870.84	22622
870.97	22607
871.1	22527
871.23	22508
871.36	22554
871.489	22466
871.619	22607
871.749	22653
871.879	22641
872.008	22763
872.138	22698
872.267	22736
872.397	22672
872.526	22440
872.656	22421
872.785	22493
872.915	22656
873.044	22805
873.173	22668
873.303	22763
873.432	22801
873.561	22847
873.69	22653
873.819	22656
873.948	22679
874.077	22759
874.206	22645
874.335	22672
874.464	22767
874.593	22854
874.722	22793
874.851	22980
874.979	22900
875.108	22869
875.237	22889
875.365	22660
875.494	22828
875.623	23022
875.751	22805
875.88	22965
876.008	23075
876.136	23124
876.265	23315
876.393	23463
876.521	23284
876.65	23322
876.778	23326
876.906	23349
877.034	23318
877.162	23246
877.29	23231
877.418	23220
877.546	23341
877.674	23170
877.802	23235
877.93	23204
878.058	23109
878.185	23220
878.313	23212
878.441	23117
878.568	23041
878.696	23181
878.824	23280
878.951	23216
879.079	23478
879.206	23402
879.333	23501
879.461	23170
879.588	23334
879.715	23353
879.842	23376
879.97	23296
880.097	23159
880.224	23041
880.351	23288
880.478	23086
880.605	23052
880.732	23147
880.859	23231
880.986	23056
881.112	23079
881.239	22915
881.366	22847
881.493	22725
881.619	22588
881.746	22713
881.872	22630
881.999	22679
882.125	22531
882.252	22683
882.378	22573
882.505	22771
882.631	22516
882.757	22314
882.883	22337
883.01	22481
883.136	22215
883.262	22139
883.388	22067
883.514	22226
883.64	22299
883.766	22207
883.892	22200
884.018	22105
884.143	22249
884.269	22440
884.395	22044
884.52	21941
884.646	21907
884.772	21876
884.897	21857
885.023	21922
885.148	22040
885.274	22090
885.399	21964
885.524	22013
885.65	21918
885.775	21930
885.9	21876
886.025	21998
886.15	22002
886.275	21846
886.4	21797
886.525	21934
886.65	21823
886.775	21884
886.9	22032
887.025	22135
887.149	21876
887.274	21755
887.399	21770
887.523	21679
887.648	21625
887.773	21656
887.897	21709
888.021	21652
888.146	21564
888.27	21785
888.395	21759
888.519	21701
888.643	21774
888.767	21705
888.891	21553
889.015	21523
889.139	21576
889.263	21485
889.387	21641
889.511	21785
889.635	21629
889.759	21420
889.883	21492
890.006	21488
890.13	21507
890.254	21428
890.377	21355
890.501	21154
890.624	21188
890.748	21268
890.871	21100
890.995	21047
891.118	21047
891.241	20956
891.364	21005
891.488	21169
891.611	21024
891.734	20967
891.857	21055
891.98	20952
892.103	20971
892.226	20998
892.349	20941
892.471	20838
892.594	20982
892.717	21013
892.839	20883
892.962	20925
893.085	21108
893.207	20887
893.33	20826
893.452	20895
893.575	20963
893.697	20872
893.819	20967
893.941	21104
894.064	20982
894.186	20823
894.308	20937
894.43	20971
894.552	21089
894.674	21001
894.796	20823
894.918	20925
895.04	20804
895.161	20857
895.283	21039
895.405	20811
895.526	20845
895.648	20826
895.769	21020
895.891	20895
896.012	21096
896.134	21062
896.255	20902
896.376	20902
896.498	20921
896.619	20868
896.74	20838
896.861	20918
896.982	21218
897.103	21374
897.224	21192
897.345	21150
897.466	20998
897.587	21169
897.708	21245
897.828	21100
897.949	21138
898.07	20998
898.19	21005
898.311	21195
898.431	21165
898.552	21161
898.672	21123
898.792	21058
898.913	21074
899.033	20971
899.153	20944
899.273	20765
899.393	20785
899.513	20941
899.633	20899
899.753	20731
899.873	20868
899.993	20933
900.113	20773
900.232	20861
900.352	20693
900.472	20724
900.591	20503
900.711	20655
900.83	20617
900.95	20842
901.069	20678
901.189	20492
901.308	20263
901.427	20142
901.546	20248
901.665	20237
901.784	20153
901.904	20138
902.023	19947
902.141	19833
902.26	19700
902.379	19818
902.498	19727
902.617	19708
902.735	19658
902.854	19563
902.973	19578
903.091	19415
903.21	19335
903.328	19289
903.446	19236
903.565	19129
903.683	19190
903.801	19031
903.919	19019
904.038	19148
904.156	18951
904.274	19050
904.392	19091
904.51	18844
904.627	18913
904.745	19008
904.863	19000
904.981	18677
905.098	18517
905.216	18616
905.334	18540
905.451	18506
905.569	18506
905.686	18604
905.803	18566
905.921	18490
906.038	18452
906.155	18308
906.272	18251
906.389	18296
906.506	18178
906.623	18030
906.74	18064
906.857	17942
906.974	18087
907.091	18197
907.208	18209
907.324	18148
907.441	17980
907.557	17813
907.674	17821
907.79	17745
907.907	17802
908.023	17752
908.139	17863
908.256	17767
908.372	17771
908.488	17691
908.604	17524
908.72	17532
908.836	17543
908.952	17459
909.068	17478
909.184	17611
909.3	17501
909.415	17551
909.531	17543
909.647	17296
909.762	17189
909.878	17189
909.993	17170
910.108	17208
910.224	17147
910.339	17151
910.454	17124
910.57	17003
910.685	16904
910.8	17299
910.915	17060
911.03	16968
911.145	16904
911.259	16831
911.374	16801
911.489	16740
911.604	16721
911.718	16546
911.833	16535
911.947	16466
912.062	16417
912.176	16538
912.291	16592
912.405	16447
912.519	16752
912.633	16733
912.748	16535
912.862	16519
912.976	16303
913.09	16291
913.204	16386
913.318	16295
913.431	16500
913.545	16417
913.659	16523
913.772	16265
913.886	16147
914	16154
914.113	16173
914.226	16173
914.34	16120
914.453	15956
914.566	16200
914.68	16032
914.793	16013
914.906	15785
915.019	15766
915.132	15667
915.245	15728
915.358	15827
915.47	15667
915.583	15755
915.696	15762
915.809	15831
915.921	15838
916.034	15625
916.146	15667
916.259	15739
916.371	15739
916.483	15648
916.595	15614
916.708	15633
916.82	15545
916.932	15507
917.044	15488
917.156	15500
917.268	15393
917.38	15401
917.491	15458
917.603	15294
917.715	15477
917.826	15488
917.938	15222
918.049	15146
918.161	15332
918.272	15416
918.384	15351
918.495	15325
918.606	15249
918.717	15066
918.828	15089
918.939	15154
919.05	15039
919.161	15089
919.272	14982
919.383	14918
919.494	15074
919.604	15344
919.715	15100
919.826	14960
919.936	15051
920.047	15097
920.157	15142
920.267	15287
920.378	15112
920.488	15001
920.598	15207
920.708	15348
920.818	15180
920.928	15173
921.038	15348
921.148	15241
921.258	15036
921.368	15017
921.477	14804
921.587	14773
921.697	14686
921.806	14777
921.916	14716
922.025	14488
922.134	14389
922.244	14339
922.353	14465
922.462	14240
922.571	14278
922.68	14107
922.789	14031
922.898	14065
923.007	13993
923.116	14054
923.224	14046
923.333	14027
923.442	13947
923.55	13871
923.659	13845
923.767	13951
923.876	13830
923.984	13951
924.092	13864
924.201	13860
924.309	13784
924.417	13784
924.525	13685
924.633	13769
924.741	14636
924.849	13514
924.956	13670
925.064	13430
925.172	13388
925.279	13327
925.387	13411
925.494	13441
925.602	13590
925.709	13430
925.816	13324
925.924	13297
926.031	13407
926.138	13388
926.245	13438
926.352	13247
926.459	13400
926.566	13388
926.673	13225
926.779	13221
926.886	13156
926.993	13107
927.099	12981
927.206	12878
927.312	12890
927.419	12993
927.525	12951
927.631	13034
927.737	12840
927.843	12886
927.95	12696
928.056	12776
928.162	12821
928.267	12886
928.373	13460
928.479	12825
928.585	12623
928.69	12707
928.796	12795
928.901	12559
929.007	12540
929.112	12597
929.218	12635
929.323	12475
929.428	12521
929.533	12642
929.638	12498
929.743	12479
929.848	12555
929.953	12471
930.058	12369
930.163	12228
930.267	12190
930.372	12228
930.477	12136
930.581	12380
930.685	12251
930.79	12087
930.894	12079
930.998	12152
931.103	12171
931.207	11843
931.311	11741
931.415	11668
931.519	11436
931.623	11429
