Data from test_V78500241_1551.txt Node
Date: Fri Mar 25 15:52:32 CST 2022
User: usil
Spectrometer: V785-0024
Trigger mode: 0
Integration Time (sec): 4.000000E-1
Scans to average: 1
Nonlinearity correction enabled: false
Boxcar width: 0
Storing dark spectrum: false
XAxis mode: Wavelengths
Number of Pixels in Spectrum: 1024
>>>>>Begin Spectral Data<<<<<
801.071	27614
801.214	27439
801.356	27519
801.499	27272
801.641	27100
801.783	27127
801.926	27081
802.068	27051
802.211	27131
802.353	27085
802.496	26944
802.638	26811
802.78	26720
802.923	26720
803.065	26613
803.208	26644
803.35	26815
803.492	26948
803.635	27009
803.777	26880
803.919	26899
804.061	27272
804.204	26994
804.346	26883
804.488	26982
804.63	27039
804.773	26948
804.915	26960
805.057	27138
805.199	27005
805.341	27154
805.483	27260
805.626	27093
805.768	27093
805.91	27150
806.052	27173
806.194	27108
806.336	27367
806.478	27055
806.62	27089
806.762	27142
806.904	27275
807.046	27523
807.188	27530
807.33	27557
807.472	27511
807.614	27553
807.756	27538
807.898	27412
808.04	27367
808.182	27348
808.324	27374
808.465	27492
808.607	27576
808.749	27709
808.891	27827
809.033	27903
809.174	27922
809.316	27743
809.458	27747
809.6	27515
809.741	27804
809.883	27972
810.025	28010
810.166	28055
810.308	28021
810.45	27937
810.591	27934
810.733	27759
810.875	27789
811.016	27534
811.158	27637
811.299	27816
811.441	27838
811.582	27846
811.724	27698
811.865	27663
812.007	27747
812.148	27701
812.29	27850
812.431	27911
812.573	27934
812.714	28040
812.855	28185
812.997	28325
813.138	28462
813.279	28413
813.421	28287
813.562	28200
813.703	28055
813.845	27937
813.986	27603
814.127	27424
814.268	27454
814.41	27534
814.551	27351
814.692	27466
814.833	27294
814.974	27340
815.115	27393
815.256	27252
815.397	27272
815.539	27310
815.68	27252
815.821	27188
815.962	27222
816.103	27195
816.244	27089
816.385	27017
816.526	27081
816.666	26720
816.807	26613
816.948	26705
817.089	26895
817.23	26739
817.371	26674
817.512	26701
817.653	26560
817.793	26636
817.934	26693
818.075	26705
818.216	26754
818.356	26629
818.497	26659
818.638	26469
818.778	26495
818.919	26419
819.06	26495
819.2	26594
819.341	26765
819.481	26583
819.622	26910
819.762	26967
819.903	26925
820.043	27047
820.184	26701
820.324	26769
820.465	26781
820.605	26838
820.746	26739
820.886	26773
821.026	26864
821.167	26788
821.307	26891
821.447	26670
821.588	26469
821.728	26507
821.868	26393
822.008	26237
822.149	26161
822.289	26065
822.429	25860
822.569	25776
822.709	25849
822.849	25651
822.99	25689
823.13	25670
823.27	25624
823.41	25540
823.55	25388
823.69	25559
823.83	25464
823.97	25377
824.11	25145
824.25	25202
824.389	25312
824.529	25365
824.669	25285
824.809	25327
824.949	25407
825.089	25339
825.228	25297
825.368	25129
825.508	25141
825.648	25202
825.787	25225
825.927	25183
826.067	25137
826.206	25152
826.346	25126
826.485	25232
826.625	25080
826.765	25160
826.904	25202
827.044	25012
827.183	24848
827.323	24825
827.462	25004
827.601	24939
827.741	24935
827.88	24779
828.02	24795
828.159	24798
828.298	24943
828.437	24829
828.577	24776
828.716	24890
828.855	24825
828.994	24574
829.134	24582
829.273	24608
829.412	24414
829.551	24551
829.69	24551
829.829	24669
829.968	24597
830.107	24578
830.246	24547
830.385	24578
830.524	24391
830.663	24384
830.802	24197
830.941	24228
831.08	24194
831.219	24281
831.357	24220
831.496	24300
831.635	24190
831.774	24095
831.913	24057
832.051	23961
832.19	23958
832.329	23984
832.467	23870
832.606	23809
832.744	23680
832.883	23851
833.022	23802
833.16	23904
833.299	23847
833.437	23859
833.576	23935
833.714	23840
833.852	23904
833.991	24011
834.129	23999
834.267	24053
834.406	23950
834.544	23885
834.682	23843
834.821	23843
834.959	24057
835.097	23958
835.235	23977
835.373	23805
835.511	23840
835.65	23691
835.788	23771
835.926	23554
836.064	23566
836.202	23615
836.34	23687
836.478	23779
836.615	23695
836.753	23680
836.891	23824
837.029	23783
837.167	23566
837.305	23699
837.443	23661
837.58	23520
837.718	23558
837.856	23608
837.993	23471
838.131	23505
838.269	23493
838.406	23474
838.544	23376
838.681	23143
838.819	23121
838.956	23010
839.094	22991
839.231	23128
839.369	23143
839.506	23341
839.643	23265
839.781	23041
839.918	23041
840.055	23052
840.193	23075
840.33	23037
840.467	22957
840.604	22984
840.742	23155
840.879	22755
841.016	22873
841.153	22816
841.29	23067
841.427	22976
841.564	22991
841.701	22927
841.838	22976
841.975	22889
842.112	22812
842.249	22816
842.385	22786
842.522	23018
842.659	22809
842.796	22717
842.933	22729
843.069	22615
843.206	22634
843.343	22721
843.479	22721
843.616	22702
843.752	22527
843.889	22478
844.025	22649
844.162	22417
844.298	22561
844.435	22508
844.571	22478
844.708	22516
844.844	22607
844.98	22645
845.117	22527
845.253	22440
845.389	22470
845.525	22478
845.661	22390
845.798	22234
845.934	22238
846.07	22215
846.206	22272
846.342	22356
846.478	22192
846.614	22055
846.75	21975
846.886	21934
847.022	22017
847.158	22025
847.294	21895
847.429	21922
847.565	21949
847.701	22192
847.837	21720
847.972	21656
848.108	21797
848.244	21770
848.379	21660
848.515	21564
848.65	21447
848.786	21561
848.921	21587
849.057	21720
849.192	21557
849.328	21679
849.463	21663
849.598	21549
849.734	21405
849.869	21405
850.004	21264
850.14	21192
850.275	21348
850.41	21165
850.545	21317
850.68	21291
850.815	21291
850.95	21249
851.085	21450
851.22	21408
851.355	21435
851.49	21359
851.625	21260
851.76	21374
851.895	21218
852.03	21252
852.165	21264
852.299	21294
852.434	21469
852.569	21325
852.703	21355
852.838	21329
852.973	21416
853.107	21439
853.242	21397
853.376	21222
853.511	21089
853.645	21184
853.78	21279
853.914	21116
854.048	21131
854.183	21028
854.317	21161
854.451	21348
854.585	21146
854.72	21096
854.854	21161
854.988	21173
855.122	21108
855.256	21043
855.39	21142
855.524	21112
855.658	21173
855.792	21104
855.926	21154
856.06	21138
856.194	21287
856.327	21131
856.461	21176
856.595	21116
856.729	21211
856.862	21214
856.996	21237
857.13	21138
857.263	21192
857.397	21264
857.53	21081
857.664	21081
857.797	21180
857.931	21313
858.064	21154
858.197	21245
858.331	21104
858.464	21055
858.597	20960
858.731	21195
858.864	21165
858.997	21199
859.13	21096
859.263	21176
859.396	21195
859.529	21096
859.662	21123
859.795	21173
859.928	21211
860.061	21329
860.194	21340
860.327	21195
860.46	21157
860.592	21188
860.725	21306
860.858	21272
860.99	21214
861.123	21154
861.256	21165
861.388	21119
861.521	21705
861.653	21062
861.786	20880
861.918	21058
862.05	20982
862.183	21043
862.315	21131
862.447	21154
862.58	21112
862.712	20804
862.844	20857
862.976	20906
863.108	20979
863.24	21431
863.372	20819
863.504	20819
863.636	20921
863.768	20895
863.9	20887
864.032	20781
864.164	20697
864.296	20925
864.428	20857
864.559	20895
864.691	20933
864.823	20880
864.954	20838
865.086	20739
865.217	20788
865.349	20689
865.48	20629
865.612	20777
865.743	20902
865.875	20735
866.006	20720
866.137	20819
866.269	20746
866.4	20720
866.531	20769
866.662	20629
866.793	20629
866.924	20602
867.055	20796
867.186	20682
867.317	20716
867.448	20575
867.579	20701
867.71	20765
867.841	20549
867.972	20701
868.103	20701
868.233	20667
868.364	20625
868.495	20796
868.625	20872
868.756	21028
868.886	20819
869.017	20914
869.147	21017
869.278	21020
869.408	20872
869.539	20902
869.669	21055
869.799	20971
869.929	20994
870.06	21180
870.19	21245
870.32	21131
870.45	21233
870.58	21359
870.71	21416
870.84	21428
870.97	21310
871.1	21268
871.23	21507
871.36	21538
871.489	21389
871.619	21599
871.749	21660
871.879	21614
872.008	21572
872.138	21538
872.267	21496
872.397	21428
872.526	21386
872.656	21389
872.785	21329
872.915	21580
873.044	21633
873.173	21523
873.303	21523
873.432	21625
873.561	21667
873.69	21553
873.819	21526
873.948	21625
874.077	21545
874.206	21519
874.335	21576
874.464	21663
874.593	21831
874.722	21736
874.851	21762
874.979	21850
875.108	21884
875.237	21755
875.365	21778
875.494	21800
875.623	21808
875.751	21781
875.88	21930
876.008	21838
876.136	21968
876.265	22219
876.393	22337
876.521	22188
876.65	22367
876.778	22086
876.906	22207
877.034	22112
877.162	22078
877.29	22048
877.418	22200
877.546	22185
877.674	22135
877.802	22139
877.93	22185
878.058	22124
878.185	22090
878.313	22074
878.441	22048
878.568	21956
878.696	21975
878.824	22215
878.951	22131
879.079	22276
879.206	22417
879.333	22386
879.461	22082
879.588	22310
879.715	22402
879.842	22451
879.97	22265
880.097	21979
880.224	21926
880.351	22013
880.478	22025
880.605	22010
880.732	21922
880.859	22120
880.986	21949
881.112	22025
881.239	21759
881.366	21797
881.493	21599
881.619	21488
881.746	21622
881.872	21580
881.999	21454
882.125	21439
882.252	21606
882.378	21515
882.505	21675
882.631	21416
882.757	21306
882.883	21249
883.01	21237
883.136	21199
883.262	21142
883.388	21135
883.514	21252
883.64	21321
883.766	21184
883.892	21074
884.018	21032
884.143	21211
884.269	21313
884.395	21062
884.52	20937
884.646	20838
884.772	20883
884.897	20792
885.023	20891
885.148	21093
885.274	21070
885.399	20956
885.524	20960
885.65	20971
885.775	20861
885.9	20880
886.025	20975
886.15	20933
886.275	20823
886.4	20648
886.525	20853
886.65	20788
886.775	20705
886.9	20921
887.025	21104
887.149	20895
887.274	20891
887.399	20754
887.523	20667
887.648	20499
887.773	20575
887.897	20746
888.021	20648
888.146	20579
888.27	20769
888.395	20705
888.519	20689
888.643	20686
888.767	20686
888.891	20549
889.015	20541
889.139	20552
889.263	20434
889.387	20583
889.511	20575
889.635	20568
889.759	20549
889.883	20473
890.006	20442
890.13	20541
890.254	20366
890.377	20343
890.501	20180
890.624	20161
890.748	20259
890.871	20081
890.995	19989
891.118	19963
891.241	20005
891.364	20100
891.488	20115
891.611	19993
891.734	20024
891.857	20043
891.98	19921
892.103	19947
892.226	20035
892.349	20012
892.471	19818
892.594	20005
892.717	19974
892.839	19940
892.962	20020
893.085	19940
893.207	19925
893.33	19890
893.452	19913
893.575	19955
893.697	19917
893.819	20103
893.941	20096
894.064	20027
894.186	19963
894.308	19814
894.43	19986
894.552	20005
894.674	20073
894.796	19936
894.918	19906
895.04	19795
895.161	19928
895.283	19932
895.405	19852
895.526	19909
895.648	20016
895.769	19921
895.891	19993
896.012	19989
896.134	20073
896.255	19906
896.376	19890
896.498	19902
896.619	20107
896.74	19951
896.861	19989
896.982	20332
897.103	20393
897.224	20248
897.345	20229
897.466	20248
897.587	20176
897.708	20240
897.828	20187
897.949	20050
898.07	19887
898.19	20062
898.311	20130
898.431	20130
898.552	20191
898.672	20233
898.792	20183
898.913	20103
899.033	20138
899.153	19989
899.273	19807
899.393	20012
899.513	19951
899.633	19906
899.753	19989
899.873	19837
899.993	19879
900.113	19951
900.232	19852
900.352	19921
900.472	19871
900.591	19635
900.711	19731
900.83	19616
900.95	19807
901.069	19807
901.189	19708
901.308	19324
901.427	19301
901.546	19225
901.665	19312
901.784	19285
901.904	19213
902.023	19031
902.141	18791
902.26	18867
902.379	18798
902.498	18840
902.617	18749
902.735	18753
902.854	18802
902.973	18684
903.091	18559
903.21	18517
903.328	18464
903.446	18418
903.565	18220
903.683	18319
903.801	18159
903.919	18213
904.038	18289
904.156	17999
904.274	18194
904.392	18045
904.51	18060
904.627	17958
904.745	17946
904.863	18155
904.981	17916
905.098	17684
905.216	17661
905.334	17752
905.451	17752
905.569	17707
905.686	17748
905.803	17687
905.921	17490
906.038	17619
906.155	17558
906.272	17429
906.389	17452
906.506	17216
906.623	17216
906.74	17349
906.857	17121
906.974	17064
907.091	17326
907.208	17440
907.324	17311
907.441	17178
907.557	17090
907.674	17025
907.79	16755
907.907	16961
908.023	16927
908.139	16965
908.256	16847
908.372	16862
908.488	16809
908.604	16790
908.72	16599
908.836	16691
908.952	16675
909.068	16687
909.184	16710
909.3	16630
909.415	16672
909.531	16637
909.647	16538
909.762	16329
909.878	16322
909.993	16462
910.108	16462
910.224	16386
910.339	16485
910.454	16314
910.57	16295
910.685	16128
910.8	16390
910.915	16405
911.03	16238
911.145	16128
911.259	15975
911.374	15987
911.489	15968
911.604	15876
911.718	15732
911.833	15774
911.947	15656
912.062	15500
912.176	15686
912.291	15705
912.405	15770
912.519	15964
912.633	15892
912.748	15831
912.862	15698
912.976	15545
913.09	15443
913.204	15519
913.318	15603
913.431	15701
913.545	15557
913.659	15599
913.772	15557
913.886	15519
914	15378
914.113	15534
914.226	15584
914.34	15431
914.453	15214
914.566	15348
914.68	15321
914.793	15195
914.906	15077
915.019	15070
915.132	14960
915.245	14956
915.358	15077
915.47	15036
915.583	14963
915.696	15017
915.809	15062
915.921	15207
916.034	14861
916.146	14975
916.259	14823
916.371	14952
916.483	14918
916.595	14811
916.708	14842
916.82	14845
916.932	14739
917.044	14819
917.156	14853
917.268	14689
917.38	14686
917.491	14640
917.603	14621
917.715	14716
917.826	14724
917.938	14587
918.049	14469
918.161	14621
918.272	14712
918.384	14701
918.495	14655
918.606	14484
918.717	14355
918.828	14446
918.939	14427
919.05	14377
919.161	14442
919.272	14256
919.383	14176
919.494	14427
919.604	14579
919.715	14381
919.826	14366
919.936	14339
920.047	14488
920.157	14313
920.267	14533
920.378	14408
920.488	14389
920.598	14533
920.708	14621
920.818	14530
920.928	14469
921.038	14701
921.148	14617
921.258	14267
921.368	14187
921.477	14119
921.587	14024
921.697	13959
921.806	14172
921.916	14054
922.025	13757
922.134	13750
922.244	13795
922.353	13727
922.462	13689
922.571	13556
922.68	13422
922.789	13430
922.898	13483
923.007	13392
923.116	13373
923.224	13339
923.333	13320
923.442	13240
923.55	13263
923.659	13259
923.767	13293
923.876	13137
923.984	13247
924.092	13141
924.201	13168
924.309	13137
924.417	13118
924.525	13065
924.633	13160
924.741	14005
924.849	12989
924.956	13008
925.064	12901
925.172	12791
925.279	12802
925.387	12932
925.494	12844
925.602	12905
925.709	12844
925.816	12764
925.924	12779
926.031	12871
926.138	12772
926.245	12886
926.352	12715
926.459	12764
926.566	12795
926.673	12753
926.779	12566
926.886	12612
926.993	12509
927.099	12414
927.206	12410
927.312	12380
927.419	12448
927.525	12334
927.631	12380
927.737	12308
927.843	12311
927.95	12083
928.056	12148
928.162	12194
928.267	12228
928.373	12886
928.479	12220
928.585	12102
928.69	12213
928.796	12262
928.901	12060
929.007	11958
929.112	12045
929.218	11931
929.323	12045
929.428	11935
929.533	11996
929.638	11901
929.743	11920
929.848	11847
929.953	11889
930.058	11843
930.163	11653
930.267	11695
930.372	11832
930.477	11604
930.581	11809
930.685	11688
930.79	11501
930.894	11589
930.998	11505
931.103	11672
931.207	11277
931.311	11185
931.415	11083
931.519	10885
931.623	10923
