Data from test_V78500241_3052.txt Node
Date: Fri Mar 25 16:02:56 CST 2022
User: usil
Spectrometer: V785-0024
Trigger mode: 0
Integration Time (sec): 4.000000E-1
Scans to average: 1
Nonlinearity correction enabled: false
Boxcar width: 0
Storing dark spectrum: false
XAxis mode: Wavelengths
Number of Pixels in Spectrum: 1024
>>>>>Begin Spectral Data<<<<<
801.071	28112
801.214	28074
801.356	27785
801.499	27808
801.641	27732
801.783	27595
801.926	27644
802.068	27583
802.211	27603
802.353	27656
802.496	27370
802.638	27408
802.78	27348
802.923	27241
803.065	27218
803.208	27359
803.35	27386
803.492	27466
803.635	27545
803.777	27420
803.919	27564
804.061	27823
804.204	27526
804.346	27504
804.488	27439
804.63	27583
804.773	27389
804.915	27599
805.057	27819
805.199	27633
805.341	27686
805.483	27641
805.626	27694
805.768	27587
805.91	27644
806.052	27679
806.194	27641
806.336	27884
806.478	27759
806.62	27675
806.762	27876
806.904	28010
807.046	28185
807.188	28196
807.33	28048
807.472	28215
807.614	28131
807.756	28211
807.898	27964
808.04	28093
808.182	27926
808.324	28036
808.465	27895
808.607	28329
808.749	28287
808.891	28565
809.033	28588
809.174	28481
809.316	28375
809.458	28409
809.6	28230
809.741	28436
809.883	28440
810.025	28637
810.166	28679
810.308	28584
810.45	28542
810.591	28603
810.733	28314
810.875	28478
811.016	28257
811.158	28303
811.299	28489
811.441	28588
811.582	28550
811.724	28261
811.865	28325
812.007	28375
812.148	28382
812.29	28485
812.431	28447
812.573	28694
812.714	28748
812.855	28824
812.997	28942
813.138	28976
813.279	28923
813.421	28869
813.562	28778
813.703	28618
813.845	28637
813.986	28280
814.127	28192
814.268	28036
814.41	28055
814.551	28177
814.692	28215
814.833	27911
814.974	27983
815.115	28150
815.256	27968
815.397	28044
815.539	27876
815.68	27812
815.821	27766
815.962	27865
816.103	27800
816.244	27633
816.385	27587
816.526	27618
816.666	27416
816.807	27313
816.948	27481
817.089	27545
817.23	27386
817.371	27340
817.512	27317
817.653	27382
817.793	27249
817.934	27272
818.075	27363
818.216	27291
818.356	27374
818.497	27161
818.638	26979
818.778	27119
818.919	27218
819.06	27302
819.2	27154
819.341	27363
819.481	27256
819.622	27572
819.762	27698
819.903	27644
820.043	27583
820.184	27534
820.324	27580
820.465	27488
820.605	27435
820.746	27488
820.886	27272
821.026	27564
821.167	27412
821.307	27534
821.447	27348
821.588	27241
821.728	27176
821.868	27135
822.008	27020
822.149	26933
822.289	26807
822.429	26659
822.569	26522
822.709	26446
822.849	26408
822.99	26248
823.13	26317
823.27	26332
823.41	26122
823.55	25974
823.69	26065
823.83	26164
823.97	26065
824.11	25925
824.25	25890
824.389	26031
824.529	25986
824.669	25932
824.809	26103
824.949	26016
825.089	26001
825.228	26069
825.368	25734
825.508	25811
825.648	25856
825.787	25883
825.927	26005
826.067	25807
826.206	25906
826.346	25887
826.485	25818
826.625	25696
826.765	25894
826.904	25746
827.044	25613
827.183	25491
827.323	25586
827.462	25601
827.601	25415
827.741	25567
827.88	25620
828.02	25384
828.159	25533
828.298	25575
828.437	25571
828.577	25430
828.716	25594
828.855	25575
828.994	25308
829.134	25255
829.273	25373
829.412	25190
829.551	25156
829.69	25126
829.829	25221
829.968	25255
830.107	25240
830.246	25221
830.385	25179
830.524	25198
830.663	25023
830.802	24924
830.941	24916
831.08	24787
831.219	24886
831.357	24989
831.496	25156
831.635	24882
831.774	24795
831.913	24578
832.051	24654
832.19	24627
832.329	24661
832.467	24509
832.606	24452
832.744	24597
832.883	24612
833.022	24566
833.16	24642
833.299	24475
833.437	24505
833.576	24551
833.714	24608
833.852	24616
833.991	24483
834.129	24639
834.267	24669
834.406	24483
834.544	24631
834.682	24570
834.821	24582
834.959	24707
835.097	24623
835.235	24623
835.373	24574
835.511	24711
835.65	24479
835.788	24460
835.926	24239
836.064	24273
836.202	24254
836.34	24391
836.478	24418
836.615	24380
836.753	24578
836.891	24494
837.029	24285
837.167	24338
837.305	24304
837.443	24296
837.58	24224
837.718	24357
837.856	24228
837.993	24216
838.131	24186
838.269	24079
838.406	24152
838.544	24038
838.681	23813
838.819	23901
838.956	23710
839.094	23657
839.231	23687
839.369	24007
839.506	24140
839.643	23939
839.781	23722
839.918	23726
840.055	23707
840.193	23714
840.33	23524
840.467	23611
840.604	23589
840.742	24053
840.879	23417
841.016	23497
841.153	23391
841.29	23668
841.427	23657
841.564	23695
841.701	23665
841.838	23490
841.975	23570
842.112	23539
842.249	23520
842.385	23360
842.522	23566
842.659	23448
842.796	23330
842.933	23395
843.069	23337
843.206	23212
843.343	23410
843.479	23398
843.616	23436
843.752	23147
843.889	23143
844.025	23425
844.162	23147
844.298	23208
844.435	23235
844.571	23060
844.708	23197
844.844	23288
844.98	23337
845.117	23273
845.253	23022
845.389	22961
845.525	23071
845.661	22938
845.798	22896
845.934	22942
846.07	22850
846.206	22717
846.342	23124
846.478	22869
846.614	22683
846.75	22516
846.886	22546
847.022	22478
847.158	22641
847.294	22675
847.429	22630
847.565	22710
847.701	22968
847.837	22337
847.972	22261
848.108	22451
848.244	22360
848.379	22287
848.515	22219
848.65	22070
848.786	22173
848.921	22234
849.057	22329
849.192	22329
849.328	22295
849.463	22150
849.598	22131
849.734	22029
849.869	22006
850.004	22090
850.14	22112
850.275	22002
850.41	21770
850.545	21861
850.68	21953
850.815	21972
850.95	21934
851.085	22124
851.22	22055
851.355	21941
851.49	21998
851.625	21857
851.76	21960
851.895	21918
852.03	21869
852.165	21960
852.299	21994
852.434	21895
852.569	22002
852.703	21983
852.838	21953
852.973	22154
853.107	21972
853.242	21800
853.376	21838
853.511	21682
853.645	21747
853.78	21759
853.914	21781
854.048	21785
854.183	21770
854.317	21838
854.451	21956
854.585	21713
854.72	21899
854.854	21850
854.988	21827
855.122	21736
855.256	21625
855.39	21789
855.524	21846
855.658	21835
855.792	21713
855.926	21732
856.06	21751
856.194	21846
856.327	21789
856.461	21724
856.595	21667
856.729	21808
856.862	21953
856.996	21819
857.13	21873
857.263	21873
857.397	21884
857.53	21701
857.664	21804
857.797	21876
857.931	21934
858.064	21842
858.197	21785
858.331	21739
858.464	21762
858.597	21690
858.731	21701
858.864	21705
858.997	21747
859.13	21789
859.263	21736
859.396	21827
859.529	21739
859.662	21774
859.795	21656
859.928	21812
860.061	21842
860.194	21956
860.327	21854
860.46	21873
860.592	21960
860.725	21915
860.858	21972
860.99	21755
861.123	21857
861.256	21709
861.388	21888
861.521	22557
861.653	21694
861.786	21599
861.918	21595
862.05	21663
862.183	21774
862.315	21682
862.447	21819
862.58	21686
862.712	21496
862.844	21519
862.976	21641
863.108	21603
863.24	21975
863.372	21428
863.504	21603
863.636	21542
863.768	21538
863.9	21530
864.032	21469
864.164	21424
864.296	21454
864.428	21587
864.559	21701
864.691	21568
864.823	21511
864.954	21443
865.086	21473
865.217	21545
865.349	21207
865.48	21507
865.612	21355
865.743	21523
865.875	21374
866.006	21405
866.137	21378
866.269	21389
866.4	21306
866.531	21370
866.662	21306
866.793	21374
866.924	21306
867.055	21447
867.186	21420
867.317	21287
867.448	21237
867.579	21294
867.71	21249
867.841	21195
867.972	21256
868.103	21393
868.233	21443
868.364	21317
868.495	21367
868.625	21542
868.756	21637
868.886	21511
869.017	21595
869.147	21759
869.278	21641
869.408	21530
869.539	21599
869.669	21641
869.799	21709
869.929	21724
870.06	21663
870.19	21922
870.32	21873
870.45	22029
870.58	21945
870.71	21968
870.84	22067
870.97	21846
871.1	22006
871.23	22169
871.36	22192
871.489	22112
871.619	22086
871.749	22173
871.879	22207
872.008	22318
872.138	22173
872.267	22246
872.397	21953
872.526	21930
872.656	22101
872.785	22006
872.915	22154
873.044	22169
873.173	22120
873.303	22306
873.432	22280
873.561	22306
873.69	22268
873.819	22135
873.948	22413
874.077	22253
874.206	22230
874.335	22188
874.464	22295
874.593	22466
874.722	22394
874.851	22546
874.979	22348
875.108	22512
875.237	22363
875.365	22352
875.494	22375
875.623	22398
875.751	22390
875.88	22398
876.008	22485
876.136	22626
876.265	22828
876.393	22927
876.521	22809
876.65	22778
876.778	22713
876.906	22797
877.034	22790
877.162	22599
877.29	22698
877.418	22858
877.546	22812
877.674	22653
877.802	22740
877.93	22748
878.058	22637
878.185	22554
878.313	22645
878.441	22717
878.568	22637
878.696	22820
878.824	22778
878.951	22782
879.079	22854
879.206	22908
879.333	22961
879.461	22904
879.588	22900
879.715	22972
879.842	23109
879.97	22767
880.097	22584
880.224	22538
880.351	22599
880.478	22641
880.605	22664
880.732	22535
880.859	22733
880.986	22535
881.112	22630
881.239	22489
881.366	22287
881.493	22230
881.619	22177
881.746	22162
881.872	22116
881.999	22128
882.125	22078
882.252	22162
882.378	22238
882.505	22188
882.631	22101
882.757	21789
882.883	21865
883.01	21819
883.136	21816
883.262	21755
883.388	21644
883.514	21888
883.64	21876
883.766	21831
883.892	21572
884.018	21648
884.143	21751
884.269	21827
884.395	21572
884.52	21397
884.646	21435
884.772	21397
884.897	21382
885.023	21458
885.148	21492
885.274	21583
885.399	21576
885.524	21526
885.65	21576
885.775	21481
885.9	21340
886.025	21515
886.15	21682
886.275	21382
886.4	21355
886.525	21329
886.65	21291
886.775	21359
886.9	21538
887.025	21671
887.149	21431
887.274	21393
887.399	21310
887.523	21100
887.648	21199
887.773	21184
887.897	21287
888.021	21279
888.146	21252
888.27	21370
888.395	21313
888.519	21378
888.643	21199
888.767	21237
888.891	21024
889.015	21032
889.139	21123
889.263	21055
889.387	21150
889.511	21291
889.635	21142
889.759	21108
889.883	21062
890.006	21161
890.13	21157
890.254	21028
890.377	20872
890.501	20754
890.624	20777
890.748	20845
890.871	20758
890.995	20526
891.118	20625
891.241	20590
891.364	20545
891.488	20785
891.611	20727
891.734	20575
891.857	20667
891.98	20697
892.103	20667
892.226	20590
892.349	20541
892.471	20396
892.594	20457
892.717	20427
892.839	20571
892.962	20526
893.085	20526
893.207	20526
893.33	20393
893.452	20507
893.575	20438
893.697	20514
893.819	20686
893.941	20617
894.064	20678
894.186	20450
894.308	20412
894.43	20526
894.552	20716
894.674	20514
894.796	20488
894.918	20507
895.04	20473
895.161	20583
895.283	20552
895.405	20419
895.526	20587
895.648	20484
895.769	20511
895.891	20579
896.012	20545
896.134	20476
896.255	20412
896.376	20587
896.498	20461
896.619	20511
896.74	20450
896.861	20571
896.982	20830
897.103	20868
897.224	20762
897.345	20830
897.466	20693
897.587	20701
897.708	20750
897.828	20804
897.949	20689
898.07	20579
898.19	20648
898.311	20773
898.431	20511
898.552	20781
898.672	20750
898.792	20739
898.913	20720
899.033	20655
899.153	20579
899.273	20328
899.393	20530
899.513	20526
899.633	20374
899.753	20404
899.873	20469
899.993	20427
900.113	20415
900.232	20457
900.352	20431
900.472	20275
900.591	20221
900.711	20221
900.83	20119
900.95	20351
901.069	20313
901.189	20168
901.308	19909
901.427	19769
901.546	19875
901.665	19807
901.784	19849
901.904	19666
902.023	19521
902.141	19472
902.26	19335
902.379	19407
902.498	19373
902.617	19400
902.735	19339
902.854	19346
902.973	19259
903.091	18954
903.21	19031
903.328	19057
903.446	18966
903.565	18719
903.683	18863
903.801	18650
903.919	18798
904.038	18661
904.156	18646
904.274	18642
904.392	18589
904.51	18513
904.627	18517
904.745	18570
904.863	18551
904.981	18361
905.098	18205
905.216	18186
905.334	18315
905.451	18235
905.569	18114
905.686	18228
905.803	18300
905.921	18068
906.038	18098
906.155	18098
906.272	17931
906.389	17969
906.506	17756
906.623	17722
906.74	17771
906.857	17661
906.974	17707
907.091	17836
907.208	17866
907.324	17718
907.441	17585
907.557	17493
907.674	17387
907.79	17372
907.907	17474
908.023	17474
908.139	17402
908.256	17391
908.372	17322
908.488	17334
908.604	17223
908.72	17220
908.836	17105
908.952	17132
909.068	17155
909.184	17178
909.3	17181
909.415	17246
909.531	17159
909.647	16953
909.762	16885
909.878	16946
909.993	16934
910.108	16850
910.224	16892
910.339	16858
910.454	16717
910.57	16706
910.685	16607
910.8	16930
910.915	16809
911.03	16778
911.145	16394
911.259	16424
911.374	16424
911.489	16386
911.604	16375
911.718	16166
911.833	16265
911.947	16048
912.062	16112
912.176	16124
912.291	16139
912.405	16166
912.519	16322
912.633	16413
912.748	16166
912.862	16135
912.976	16086
913.09	15953
913.204	15975
913.318	15983
913.431	16002
913.545	16181
913.659	16207
913.772	16013
913.886	15850
914	15819
914.113	15835
914.226	16010
914.34	15956
914.453	15682
914.566	15937
914.68	15679
914.793	15671
914.906	15587
915.019	15374
915.132	15325
915.245	15393
915.358	15488
915.47	15496
915.583	15378
915.696	15412
915.809	15519
915.921	15515
916.034	15393
916.146	15287
916.259	15321
916.371	15363
916.483	15336
916.595	15310
916.708	15188
916.82	15264
916.932	15245
917.044	15161
917.156	15169
917.268	15058
917.38	15108
917.491	15066
917.603	15085
917.715	15207
917.826	15142
917.938	15001
918.049	14899
918.161	15013
918.272	15157
918.384	15135
918.495	15070
918.606	14830
918.717	14788
918.828	14705
918.939	14807
919.05	14724
919.161	14762
919.272	14583
919.383	14655
919.494	14857
919.604	14990
919.715	14788
919.826	14670
919.936	14830
920.047	14834
920.157	14826
920.267	14895
920.378	14834
920.488	14705
920.598	14872
920.708	15089
920.818	14948
920.928	14891
921.038	15055
921.148	15013
921.258	14708
921.368	14636
921.477	14552
921.587	14530
921.697	14374
921.806	14457
921.916	14252
922.025	14271
922.134	14119
922.244	14123
922.353	14168
922.462	14092
922.571	13898
922.68	13803
922.789	13776
922.898	13791
923.007	13753
923.116	13788
923.224	13742
923.333	13860
923.442	13601
923.55	13674
923.659	13594
923.767	13738
923.876	13499
923.984	13647
924.092	13594
924.201	13499
924.309	13449
924.417	13578
924.525	13441
924.633	13460
924.741	14191
924.849	13179
924.956	13316
925.064	13164
925.172	13217
925.279	13160
925.387	13221
925.494	13217
925.602	13278
925.709	13221
925.816	13099
925.924	13179
926.031	13255
926.138	13088
926.245	13145
926.352	13042
926.459	13198
926.566	13171
926.673	13069
926.779	12882
926.886	12886
926.993	12825
927.099	12745
927.206	12616
927.312	12665
927.419	12821
927.525	12772
927.631	12692
927.737	12635
927.843	12623
927.95	12521
928.056	12528
928.162	12612
928.267	12563
928.373	13088
928.479	12601
928.585	12399
928.69	12490
928.796	12490
928.901	12422
929.007	12304
929.112	12467
929.218	12319
929.323	12239
929.428	12251
929.533	12506
929.638	12201
929.743	12186
929.848	12273
929.953	12216
930.058	12102
930.163	11958
930.267	11931
930.372	12095
930.477	11923
930.581	12121
930.685	11996
930.79	11904
930.894	11889
930.998	11847
931.103	11920
931.207	11604
931.311	11592
931.415	11383
931.519	11318
931.623	11162
