Data from test_V78500241_1720.txt Node
Date: Fri Mar 25 15:53:42 CST 2022
User: usil
Spectrometer: V785-0024
Trigger mode: 0
Integration Time (sec): 4.000000E-1
Scans to average: 1
Nonlinearity correction enabled: false
Boxcar width: 0
Storing dark spectrum: false
XAxis mode: Wavelengths
Number of Pixels in Spectrum: 1024
>>>>>Begin Spectral Data<<<<<
801.071	28284
801.214	28177
801.356	28055
801.499	28010
801.641	27926
801.783	27888
801.926	27800
802.068	27861
802.211	27789
802.353	27766
802.496	27686
802.638	27393
802.78	27568
802.923	27481
803.065	27359
803.208	27405
803.35	27466
803.492	27625
803.635	27709
803.777	27614
803.919	27755
804.061	27907
804.204	27709
804.346	27671
804.488	27637
804.63	27835
804.773	27739
804.915	27682
805.057	27937
805.199	27781
805.341	27880
805.483	27987
805.626	27964
805.768	27793
805.91	27926
806.052	27960
806.194	27766
806.336	27991
806.478	27934
806.62	27907
806.762	28090
806.904	28154
807.046	28386
807.188	28379
807.33	28280
807.472	28310
807.614	28303
807.756	28261
807.898	28314
808.04	28105
808.182	28048
808.324	28074
808.465	28375
808.607	28314
808.749	28550
808.891	28702
809.033	28679
809.174	28554
809.316	28489
809.458	28653
809.6	28508
809.741	28679
809.883	28748
810.025	28839
810.166	28869
810.308	28828
810.45	28752
810.591	28767
810.733	28523
810.875	28557
811.016	28421
811.158	28360
811.299	28622
811.441	28656
811.582	28721
811.724	28592
811.865	28634
812.007	28672
812.148	28478
812.29	28561
812.431	28706
812.573	28911
812.714	29018
812.855	29075
812.997	29033
813.138	29265
813.279	29098
813.421	28972
813.562	28976
813.703	28873
813.845	28801
813.986	28367
814.127	28413
814.268	28303
814.41	28207
814.551	28268
814.692	28379
814.833	28192
814.974	28295
815.115	28322
815.256	28120
815.397	28090
815.539	28124
815.68	28017
815.821	28101
815.962	27975
816.103	28158
816.244	27918
816.385	27842
816.526	27641
816.666	27667
816.807	27450
816.948	27682
817.089	27709
817.23	27553
817.371	27633
817.512	27568
817.653	27526
817.793	27416
817.934	27561
818.075	27603
818.216	27542
818.356	27420
818.497	27473
818.638	27252
818.778	27252
818.919	27325
819.06	27408
819.2	27302
819.341	27507
819.481	27542
819.622	27736
819.762	27964
819.903	27861
820.043	27739
820.184	27656
820.324	27660
820.465	27564
820.605	27713
820.746	27610
820.886	27477
821.026	27587
821.167	27610
821.307	27637
821.447	27485
821.588	27542
821.728	27272
821.868	27180
822.008	27013
822.149	27138
822.289	27081
822.429	26819
822.569	26602
822.709	26583
822.849	26526
822.99	26396
823.13	26541
823.27	26446
823.41	26370
823.55	26301
823.69	26446
823.83	26370
823.97	26278
824.11	26145
824.25	26157
824.389	26187
824.529	26180
824.669	26142
824.809	26225
824.949	26195
825.089	26263
825.228	26153
825.368	26046
825.508	26012
825.648	26142
825.787	26107
825.927	26062
826.067	26024
826.206	26054
826.346	26134
826.485	26050
826.625	26092
826.765	26168
826.904	26157
827.044	25704
827.183	25830
827.323	25727
827.462	25784
827.601	25860
827.741	25696
827.88	25742
828.02	25723
828.159	25708
828.298	25715
828.437	25791
828.577	25746
828.716	25894
828.855	25628
828.994	25430
829.134	25540
829.273	25354
829.412	25384
829.551	25445
829.69	25518
829.829	25548
829.968	25643
830.107	25495
830.246	25438
830.385	25384
830.524	25350
830.663	25350
830.802	25137
830.941	25069
831.08	24951
831.219	25152
831.357	25110
831.496	25308
831.635	24977
831.774	24989
831.913	25031
832.051	24913
832.19	24719
832.329	24829
832.467	24821
832.606	24734
832.744	24726
832.883	24772
833.022	24696
833.16	24719
833.299	24760
833.437	24817
833.576	24738
833.714	24722
833.852	24802
833.991	24875
834.129	24795
834.267	24840
834.406	24882
834.544	24863
834.682	24817
834.821	24730
834.959	25042
835.097	24684
835.235	24970
835.373	24745
835.511	24776
835.65	24544
835.788	24536
835.926	24483
836.064	24536
836.202	24517
836.34	24692
836.478	24802
836.615	24620
836.753	24559
836.891	24661
837.029	24715
837.167	24498
837.305	24551
837.443	24525
837.58	24441
837.718	24513
837.856	24498
837.993	24277
838.131	24486
838.269	24247
838.406	24251
838.544	24437
838.681	24038
838.819	24053
838.956	24053
839.094	23969
839.231	23988
839.369	24163
839.506	24311
839.643	24133
839.781	23863
839.918	23901
840.055	23973
840.193	24038
840.33	23870
840.467	23961
840.604	23851
840.742	24083
840.879	23748
841.016	23748
841.153	23745
841.29	23984
841.427	23756
841.564	23958
841.701	23786
841.838	23562
841.975	23760
842.112	23752
842.249	23668
842.385	23718
842.522	23703
842.659	23684
842.796	23524
842.933	23707
843.069	23589
843.206	23623
843.343	23798
843.479	23615
843.616	23566
843.752	23353
843.889	23318
844.025	23516
844.162	23296
844.298	23444
844.435	23372
844.571	23265
844.708	23372
844.844	23512
844.98	23501
845.117	23429
845.253	23398
845.389	23284
845.525	23277
845.661	23185
845.798	23185
845.934	23105
846.07	23003
846.206	23204
846.342	23296
846.478	23159
846.614	22816
846.75	22755
846.886	22828
847.022	22984
847.158	22828
847.294	22816
847.429	22816
847.565	22786
847.701	23018
847.837	22519
847.972	22554
848.108	22630
848.244	22565
848.379	22531
848.515	22386
848.65	22493
848.786	22261
848.921	22386
849.057	22531
849.192	22546
849.328	22474
849.463	22386
849.598	22306
849.734	22287
849.869	22177
850.004	22223
850.14	22268
850.275	22185
850.41	22135
850.545	22147
850.68	22082
850.815	22211
850.95	22204
851.085	22303
851.22	22246
851.355	22192
851.49	22150
851.625	22025
851.76	22101
851.895	22044
852.03	22097
852.165	22181
852.299	22207
852.434	22200
852.569	22086
852.703	22055
852.838	22310
852.973	22181
853.107	22360
853.242	22181
853.376	22105
853.511	21907
853.645	21800
853.78	22188
853.914	22063
854.048	21953
854.183	21956
854.317	22074
854.451	22158
854.585	22048
854.72	21949
854.854	22112
854.988	21895
855.122	21968
855.256	21918
855.39	21994
855.524	22135
855.658	22219
855.792	21922
855.926	21964
856.06	21991
856.194	21968
856.327	21911
856.461	21854
856.595	21930
856.729	22013
856.862	22109
856.996	22059
857.13	22055
857.263	22078
857.397	21926
857.53	21945
857.664	22078
857.797	22017
857.931	22124
858.064	22051
858.197	22032
858.331	21934
858.464	22017
858.597	21816
858.731	21857
858.864	21915
858.997	21960
859.13	22090
859.263	22070
859.396	22048
859.529	21945
859.662	22025
859.795	21930
859.928	22029
860.061	22223
860.194	22169
860.327	21922
860.46	22002
860.592	22135
860.725	22097
860.858	22211
860.99	22074
861.123	21857
861.256	21934
861.388	21968
861.521	22634
861.653	21895
861.786	21671
861.918	21861
862.05	21884
862.183	21918
862.315	21899
862.447	21934
862.58	21873
862.712	21755
862.844	21778
862.976	21641
863.108	21743
863.24	22067
863.372	21679
863.504	21671
863.636	21591
863.768	21686
863.9	21667
864.032	21652
864.164	21739
864.296	21667
864.428	21793
864.559	21804
864.691	21705
864.823	21728
864.954	21641
865.086	21603
865.217	21523
865.349	21534
865.48	21496
865.612	21564
865.743	21739
865.875	21534
866.006	21675
866.137	21686
866.269	21595
866.4	21526
866.531	21561
866.662	21466
866.793	21469
866.924	21420
867.055	21610
867.186	21633
867.317	21568
867.448	21443
867.579	21485
867.71	21435
867.841	21473
867.972	21450
868.103	21538
868.233	21523
868.364	21534
868.495	21667
868.625	21895
868.756	21717
868.886	21682
869.017	21755
869.147	21800
869.278	21876
869.408	21701
869.539	21816
869.669	21888
869.799	21895
869.929	21979
870.06	21789
870.19	22082
870.32	22070
870.45	22002
870.58	22105
870.71	22238
870.84	22200
870.97	22158
871.1	22139
871.23	22306
871.36	22310
871.489	22242
871.619	22249
871.749	22386
871.879	22405
872.008	22493
872.138	22329
872.267	22360
872.397	22242
872.526	22211
872.656	22276
872.785	22268
872.915	22314
873.044	22485
873.173	22352
873.303	22405
873.432	22497
873.561	22512
873.69	22424
873.819	22390
873.948	22360
874.077	22447
874.206	22360
874.335	22413
874.464	22603
874.593	22653
874.722	22588
874.851	22672
874.979	22557
875.108	22603
875.237	22577
875.365	22485
875.494	22599
875.623	22653
875.751	22622
875.88	22550
876.008	22626
876.136	22664
876.265	22953
876.393	23136
876.521	23014
876.65	23052
876.778	22957
876.906	22904
877.034	22896
877.162	22892
877.29	22831
877.418	23033
877.546	22900
877.674	22858
877.802	22908
877.93	22957
878.058	22877
878.185	22892
878.313	22949
878.441	22816
878.568	22858
878.696	22877
878.824	22900
878.951	23071
879.079	23170
879.206	23216
879.333	23052
879.461	22896
879.588	22965
879.715	23075
879.842	23132
879.97	23075
880.097	22713
880.224	22797
880.351	22854
880.478	22729
880.605	22679
880.732	22668
880.859	22972
880.986	22782
881.112	22744
881.239	22713
881.366	22413
881.493	22493
881.619	22348
881.746	22314
881.872	22352
881.999	22238
882.125	22291
882.252	22348
882.378	22303
882.505	22344
882.631	22112
882.757	22002
882.883	22082
883.01	22162
883.136	21960
883.262	21850
883.388	21949
883.514	22055
883.64	22013
883.766	22044
883.892	21816
884.018	21823
884.143	21869
884.269	22082
884.395	21705
884.52	21564
884.646	21701
884.772	21671
884.897	21557
885.023	21644
885.148	21686
885.274	21819
885.399	21660
885.524	21553
885.65	21690
885.775	21629
885.9	21656
886.025	21739
886.15	21743
886.275	21576
886.4	21542
886.525	21553
886.65	21553
886.775	21545
886.9	21724
887.025	21903
887.149	21511
887.274	21530
887.399	21481
887.523	21378
887.648	21397
887.773	21329
887.897	21416
888.021	21519
888.146	21363
888.27	21561
888.395	21420
888.519	21397
888.643	21492
888.767	21256
888.891	21226
889.015	21348
889.139	21275
889.263	21279
889.387	21279
889.511	21397
889.635	21306
889.759	21074
889.883	21138
890.006	21310
890.13	21367
890.254	21138
890.377	21116
890.501	20963
890.624	20861
890.748	21077
890.871	20925
890.995	20636
891.118	20750
891.241	20788
891.364	20796
891.488	20941
891.611	20659
891.734	20765
891.857	20823
891.98	20750
892.103	20891
892.226	20705
892.349	20743
892.471	20655
892.594	20712
892.717	20644
892.839	20545
892.962	20655
893.085	20781
893.207	20602
893.33	20621
893.452	20385
893.575	20613
893.697	20511
893.819	20720
893.941	20853
894.064	20705
894.186	20552
894.308	20514
894.43	20625
894.552	20842
894.674	20693
894.796	20587
894.918	20568
895.04	20800
895.161	20727
895.283	20739
895.405	20552
895.526	20644
895.648	20556
895.769	20705
895.891	20629
896.012	20705
896.134	20754
896.255	20731
896.376	20632
896.498	20693
896.619	20609
896.74	20594
896.861	20606
896.982	20887
897.103	21074
897.224	20929
897.345	20777
897.466	20819
897.587	20838
897.708	20849
897.828	20830
897.949	20682
898.07	20674
898.19	20788
898.311	21024
898.431	20800
898.552	20868
898.672	20914
898.792	20887
898.913	20792
899.033	20735
899.153	20659
899.273	20549
899.393	20670
899.513	20682
899.633	20579
899.753	20625
899.873	20587
899.993	20636
900.113	20503
900.232	20488
900.352	20434
900.472	20301
900.591	20275
900.711	20412
900.83	20290
900.95	20492
901.069	20446
901.189	20225
901.308	20164
901.427	19947
901.546	19932
901.665	19959
901.784	19932
901.904	19856
902.023	19807
902.141	19559
902.26	19453
902.379	19499
902.498	19449
902.617	19445
902.735	19457
902.854	19247
902.973	19324
903.091	19232
903.21	19053
903.328	19050
903.446	19000
903.565	18928
903.683	18920
903.801	18798
903.919	18848
904.038	18848
904.156	18764
904.274	18787
904.392	18692
904.51	18574
904.627	18681
904.745	18661
904.863	18700
904.981	18540
905.098	18327
905.216	18384
905.334	18388
905.451	18292
905.569	18319
905.686	18247
905.803	18311
905.921	18072
906.038	18308
906.155	18068
906.272	18095
906.389	18019
906.506	17901
906.623	17958
906.74	17866
906.857	17707
906.974	17737
907.091	17893
907.208	17973
907.324	17965
907.441	17794
907.557	17512
907.674	17551
907.79	17467
907.907	17448
908.023	17630
908.139	17630
908.256	17299
908.372	17478
908.488	17486
908.604	17387
908.72	17227
908.836	17353
908.952	17227
909.068	17360
909.184	17250
909.3	17280
909.415	17372
909.531	17246
909.647	17071
909.762	16942
909.878	16946
909.993	16946
910.108	16919
910.224	16934
910.339	16995
910.454	16831
910.57	16778
910.685	16717
910.8	16995
910.915	16968
911.03	16858
911.145	16626
911.259	16531
911.374	16603
911.489	16531
911.604	16538
911.718	16325
911.833	16398
911.947	16207
912.062	16253
912.176	16284
912.291	16352
912.405	16272
912.519	16481
912.633	16443
912.748	16371
912.862	16322
912.976	16188
913.09	15979
913.204	16219
913.318	16188
913.431	16238
913.545	16154
913.659	16246
913.772	16147
913.886	15949
914	15994
914.113	15934
914.226	16029
914.34	15994
914.453	15759
914.566	15926
914.68	15869
914.793	15774
914.906	15614
915.019	15515
915.132	15481
915.245	15466
915.358	15488
915.47	15549
915.583	15538
915.696	15530
915.809	15603
915.921	15629
916.034	15564
916.146	15416
916.259	15378
916.371	15443
916.483	15469
916.595	15279
916.708	15443
916.82	15389
916.932	15332
917.044	15275
917.156	15302
917.268	15150
917.38	15199
917.491	15085
917.603	15188
917.715	15336
917.826	15218
917.938	15081
918.049	15024
918.161	15108
918.272	15203
918.384	15203
918.495	15066
918.606	14990
918.717	14937
918.828	14960
918.939	14872
919.05	14845
919.161	14872
919.272	14663
919.383	14804
919.494	14967
919.604	15020
919.715	14918
919.826	14796
919.936	14849
920.047	15039
920.157	14918
920.267	14960
920.378	14811
920.488	14861
920.598	15036
920.708	15184
920.818	14967
920.928	14963
921.038	15112
921.148	15150
921.258	14796
921.368	14670
921.477	14663
921.587	14625
921.697	14537
921.806	14640
921.916	14480
922.025	14244
922.134	14214
922.244	14191
922.353	14259
922.462	14103
922.571	14081
922.68	13894
922.789	13849
922.898	13841
923.007	13947
923.116	13963
923.224	13837
923.333	13757
923.442	13750
923.55	13594
923.659	13666
923.767	13784
923.876	13613
923.984	13658
924.092	13613
924.201	13605
924.309	13575
924.417	13575
924.525	13567
924.633	13556
924.741	14317
924.849	13331
924.956	13480
925.064	13377
925.172	13282
925.279	13308
925.387	13343
925.494	13324
925.602	13453
925.709	13308
925.816	13183
925.924	13221
926.031	13320
926.138	13202
926.245	13190
926.352	13168
926.459	13251
926.566	13289
926.673	13091
926.779	13050
926.886	13012
926.993	12928
927.099	12894
927.206	12840
927.312	12753
927.419	12909
927.525	12840
927.631	12901
927.737	12681
927.843	12745
927.95	12532
928.056	12608
928.162	12711
928.267	12711
928.373	13403
928.479	12757
928.585	12452
928.69	12658
928.796	12650
928.901	12479
929.007	12369
929.112	12437
929.218	12540
929.323	12357
929.428	12422
929.533	12559
929.638	12315
929.743	12323
929.848	12391
929.953	12334
930.058	12228
930.163	12117
930.267	12129
930.372	12334
930.477	12060
930.581	12247
930.685	12163
930.79	11920
930.894	12015
930.998	11977
931.103	12114
931.207	11752
931.311	11695
931.415	11623
931.519	11368
931.623	11303
