Data from test_V78500241_3023.txt Node
Date: Fri Mar 25 16:02:44 CST 2022
User: usil
Spectrometer: V785-0024
Trigger mode: 0
Integration Time (sec): 4.000000E-1
Scans to average: 1
Nonlinearity correction enabled: false
Boxcar width: 0
Storing dark spectrum: false
XAxis mode: Wavelengths
Number of Pixels in Spectrum: 1024
>>>>>Begin Spectral Data<<<<<
801.071	28767
801.214	28786
801.356	28535
801.499	28519
801.641	28196
801.783	28367
801.926	28367
802.068	28375
802.211	28306
802.353	28257
802.496	28147
802.638	28044
802.78	27991
802.923	27960
803.065	27865
803.208	28055
803.35	28017
803.492	28169
803.635	28287
803.777	28211
803.919	28356
804.061	28561
804.204	28310
804.346	28329
804.488	28249
804.63	28382
804.773	28268
804.915	28295
805.057	28379
805.199	28318
805.341	28428
805.483	28462
805.626	28401
805.768	28356
805.91	28478
806.052	28531
806.194	28295
806.336	28436
806.478	28436
806.62	28424
806.762	28565
806.904	28706
807.046	29010
807.188	28908
807.33	28949
807.472	28927
807.614	28911
807.756	28862
807.898	28721
808.04	28717
808.182	28733
808.324	28835
808.465	28919
808.607	28961
808.749	29197
808.891	29185
809.033	29341
809.174	29242
809.316	29143
809.458	29197
809.6	29102
809.741	29155
809.883	29353
810.025	29440
810.166	29375
810.308	29311
810.45	29448
810.591	29524
810.733	29174
810.875	29280
811.016	29086
811.158	29105
811.299	29406
811.441	29299
811.582	29341
811.724	29265
811.865	29105
812.007	29174
812.148	29273
812.29	29235
812.431	29383
812.573	29547
812.714	29611
812.855	29729
812.997	29771
813.138	29813
813.279	29847
813.421	29756
813.562	29767
813.703	29539
813.845	29360
813.986	29105
814.127	28915
814.268	28915
814.41	28869
814.551	28892
814.692	28927
814.833	28786
814.974	28839
815.115	28923
815.256	28645
815.397	28904
815.539	28771
815.68	28721
815.821	28611
815.962	28786
816.103	28599
816.244	28500
816.385	28634
816.526	28500
816.666	28246
816.807	28185
816.948	28249
817.089	28329
817.23	28169
817.371	28257
817.512	28242
817.653	28147
817.793	28078
817.934	28128
818.075	28048
818.216	28128
818.356	28097
818.497	27983
818.638	27892
818.778	27907
818.919	27975
819.06	28063
819.2	28036
819.341	28093
819.481	28143
819.622	28272
819.762	28508
819.903	28493
820.043	28401
820.184	28398
820.324	28249
820.465	28508
820.605	28325
820.746	28131
820.886	28181
821.026	28196
821.167	28318
821.307	28356
821.447	28238
821.588	28090
821.728	27934
821.868	27800
822.008	27743
822.149	27739
822.289	27720
822.429	27447
822.569	27374
822.709	27329
822.849	27218
822.99	27279
823.13	27310
823.27	27157
823.41	26952
823.55	26804
823.69	26998
823.83	27104
823.97	26982
824.11	26796
824.25	26861
824.389	26796
824.529	26921
824.669	26937
824.809	26887
824.949	26914
825.089	26979
825.228	26826
825.368	26842
825.508	26609
825.648	26743
825.787	26781
825.927	26727
826.067	26724
826.206	26769
826.346	26731
826.485	26788
826.625	26705
826.765	26781
826.904	26792
827.044	26606
827.183	26423
827.323	26480
827.462	26625
827.601	26598
827.741	26366
827.88	26575
828.02	26301
828.159	26526
828.298	26453
828.437	26530
828.577	26377
828.716	26473
828.855	26400
828.994	26168
829.134	26309
829.273	26130
829.412	26271
829.551	26111
829.69	26191
829.829	26046
829.968	26115
830.107	26271
830.246	26138
830.385	26103
830.524	26084
830.663	25925
830.802	25879
830.941	25788
831.08	25807
831.219	25940
831.357	25879
831.496	25898
831.635	25753
831.774	25674
831.913	25601
832.051	25601
832.19	25578
832.329	25643
832.467	25445
832.606	25449
832.744	25400
832.883	25422
833.022	25384
833.16	25449
833.299	25373
833.437	25407
833.576	25666
833.714	25491
833.852	25521
833.991	25563
834.129	25510
834.267	25647
834.406	25419
834.544	25544
834.682	25529
834.821	25472
834.959	25655
835.097	25518
835.235	25441
835.373	25472
835.511	25613
835.65	25365
835.788	25259
835.926	25148
836.064	25069
836.202	25247
836.34	25225
836.478	25358
836.615	25190
836.753	25225
836.891	25384
837.029	25339
837.167	25259
837.305	25251
837.443	25160
837.58	25114
837.718	25160
837.856	25091
837.993	25206
838.131	25095
838.269	24981
838.406	25152
838.544	24989
838.681	24856
838.819	24677
838.956	24612
839.094	24536
839.231	24681
839.369	24878
839.506	25023
839.643	24814
839.781	24597
839.918	24494
840.055	24642
840.193	24597
840.33	24559
840.467	24475
840.604	24471
840.742	24867
840.879	24300
841.016	24399
841.153	24319
841.29	24517
841.427	24528
841.564	24475
841.701	24483
841.838	24536
841.975	24376
842.112	24380
842.249	24384
842.385	24270
842.522	24494
842.659	24426
842.796	24148
842.933	24361
843.069	24247
843.206	24163
843.343	24239
843.479	24277
843.616	24300
843.752	24159
843.889	23912
844.025	24262
844.162	24003
844.298	24087
844.435	24053
844.571	24015
844.708	24083
844.844	24258
844.98	24117
845.117	24136
845.253	24034
845.389	23931
845.525	23935
845.661	23840
845.798	23665
845.934	23866
846.07	23840
846.206	23707
846.342	23908
846.478	23733
846.614	23581
846.75	23478
846.886	23444
847.022	23627
847.158	23444
847.294	23474
847.429	23657
847.565	23512
847.701	23748
847.837	23197
847.972	23136
848.108	23296
848.244	23258
848.379	23185
848.515	23044
848.65	23079
848.786	23181
848.921	23060
849.057	23151
849.192	23098
849.328	23189
849.463	22972
849.598	23155
849.734	22999
849.869	22831
850.004	22908
850.14	22900
850.275	22911
850.41	22835
850.545	22752
850.68	22729
850.815	22866
850.95	22900
851.085	22965
851.22	23098
851.355	22828
851.49	22831
851.625	22782
851.76	22748
851.895	22809
852.03	22733
852.165	22873
852.299	22923
852.434	22930
852.569	22904
852.703	22927
852.838	22953
852.973	22984
853.107	23048
853.242	22911
853.376	22596
853.511	22573
853.645	22630
853.78	22801
853.914	22660
854.048	22634
854.183	22630
854.317	22729
854.451	22915
854.585	22740
854.72	22713
854.854	22733
854.988	22668
855.122	22580
855.256	22565
855.39	22672
855.524	22744
855.658	22603
855.792	22740
855.926	22596
856.06	22592
856.194	22767
856.327	22618
856.461	22588
856.595	22630
856.729	22748
856.862	22862
856.996	22763
857.13	22691
857.263	22850
857.397	22763
857.53	22672
857.664	22668
857.797	22752
857.931	22843
858.064	22649
858.197	22675
858.331	22702
858.464	22618
858.597	22641
858.731	22622
858.864	22523
858.997	22660
859.13	22637
859.263	22626
859.396	22675
859.529	22691
859.662	22660
859.795	22668
859.928	22660
860.061	22816
860.194	22782
860.327	22656
860.46	22664
860.592	22790
860.725	22847
860.858	22782
860.99	22740
861.123	22622
861.256	22599
861.388	22565
861.521	23486
861.653	22485
861.786	22535
861.918	22386
862.05	22546
862.183	22656
862.315	22573
862.447	22611
862.58	22550
862.712	22402
862.844	22398
862.976	22459
863.108	22455
863.24	22729
863.372	22455
863.504	22322
863.636	22402
863.768	22478
863.9	22386
864.032	22470
864.164	22428
864.296	22398
864.428	22428
864.559	22592
864.691	22386
864.823	22261
864.954	22337
865.086	22417
865.217	22299
865.349	22253
865.48	22196
865.612	22402
865.743	22379
865.875	22306
866.006	22135
866.137	22280
866.269	22207
866.4	22318
866.531	22207
866.662	22177
866.793	22192
866.924	22276
867.055	22139
867.186	22265
867.317	22086
867.448	22112
867.579	22291
867.71	22105
867.841	22116
867.972	22234
868.103	22101
868.233	22169
868.364	22204
868.495	22257
868.625	22424
868.756	22580
868.886	22265
869.017	22314
869.147	22500
869.278	22474
869.408	22402
869.539	22382
869.669	22504
869.799	22314
869.929	22379
870.06	22550
870.19	22717
870.32	22748
870.45	22710
870.58	22885
870.71	22850
870.84	22915
870.97	22862
871.1	22725
871.23	22972
871.36	23044
871.489	22946
871.619	23048
871.749	23041
871.879	23010
872.008	23174
872.138	23124
872.267	22972
872.397	22987
872.526	22809
872.656	22847
872.785	22820
872.915	22984
873.044	23132
873.173	22961
873.303	23121
873.432	23143
873.561	23105
873.69	23083
873.819	23014
873.948	23090
874.077	23094
874.206	22892
874.335	23155
874.464	23056
874.593	23337
874.722	23136
874.851	23265
874.979	23292
875.108	23322
875.237	23102
875.365	23208
875.494	23242
875.623	23311
875.751	23246
875.88	23277
876.008	23379
876.136	23379
876.265	23729
876.393	23745
876.521	23760
876.65	23786
876.778	23577
876.906	23657
877.034	23608
877.162	23566
877.29	23528
877.418	23649
877.546	23558
877.674	23573
877.802	23630
877.93	23665
878.058	23547
878.185	23429
878.313	23482
878.441	23421
878.568	23539
878.696	23573
878.824	23459
878.951	23687
879.079	23729
879.206	23851
879.333	23813
879.461	23630
879.588	23703
879.715	23824
879.842	23726
879.97	23642
880.097	23410
880.224	23387
880.351	23512
880.478	23486
880.605	23337
880.732	23433
880.859	23627
880.986	23429
881.112	23337
881.239	23227
881.366	23166
881.493	23075
881.619	22942
881.746	23006
881.872	22976
881.999	22930
882.125	22919
882.252	23083
882.378	22991
882.505	23048
882.631	22915
882.757	22626
882.883	22683
883.01	22622
883.136	22611
883.262	22421
883.388	22489
883.514	22668
883.64	22519
883.766	22516
883.892	22314
884.018	22352
884.143	22554
884.269	22592
884.395	22325
884.52	22097
884.646	22215
884.772	22192
884.897	22173
885.023	22280
885.148	22341
885.274	22390
885.399	22344
885.524	22379
885.65	22284
885.775	22272
885.9	22352
886.025	22371
886.15	22344
886.275	22215
886.4	22238
886.525	22166
886.65	22128
886.775	22169
886.9	22447
887.025	22447
887.149	22337
887.274	22021
887.399	22135
887.523	22040
887.648	21956
887.773	21911
887.897	22101
888.021	21998
888.146	21785
888.27	22090
888.395	22173
888.519	21964
888.643	22002
888.767	21964
888.891	21987
889.015	21797
889.139	21899
889.263	21838
889.387	21850
889.511	22025
889.635	21968
889.759	21759
889.883	21762
890.006	21903
890.13	21911
890.254	21652
890.377	21751
890.501	21549
890.624	21553
890.748	21549
890.871	21477
890.995	21287
891.118	21359
891.241	21321
891.364	21443
891.488	21500
891.611	21435
891.734	21329
891.857	21504
891.98	21408
892.103	21378
892.226	21283
892.349	21226
892.471	21184
892.594	21249
892.717	21340
892.839	21214
892.962	21222
893.085	21344
893.207	21332
893.33	21119
893.452	21214
893.575	21298
893.697	21233
893.819	21477
893.941	21443
894.064	21374
894.186	21119
894.308	21188
894.43	21294
894.552	21355
894.674	21230
894.796	21150
894.918	21123
895.04	21260
895.161	21272
895.283	21245
895.405	21203
895.526	21184
895.648	21199
895.769	21184
895.891	21260
896.012	21211
896.134	21165
896.255	21237
896.376	21157
896.498	21218
896.619	21329
896.74	21249
896.861	21233
896.982	21663
897.103	21629
897.224	21496
897.345	21477
897.466	21416
897.587	21450
897.708	21568
897.828	21526
897.949	21367
898.07	21188
898.19	21222
898.311	21526
898.431	21431
898.552	21363
898.672	21591
898.792	21507
898.913	21428
899.033	21241
899.153	21173
899.273	21123
899.393	21055
899.513	21195
899.633	21058
899.753	21176
899.873	20982
899.993	21150
900.113	21104
900.232	21081
900.352	21081
900.472	21001
900.591	20872
900.711	20994
900.83	20861
900.95	20933
901.069	20933
901.189	20777
901.308	20598
901.427	20480
901.546	20484
901.665	20594
901.784	20556
901.904	20324
902.023	20233
902.141	19993
902.26	20084
902.379	20031
902.498	19906
902.617	19944
902.735	19986
902.854	19906
902.973	19875
903.091	19712
903.21	19639
903.328	19613
903.446	19578
903.565	19506
903.683	19487
903.801	19282
903.919	19331
904.038	19362
904.156	19247
904.274	19426
904.392	19175
904.51	19137
904.627	19297
904.745	19308
904.863	19171
904.981	18932
905.098	18913
905.216	18798
905.334	18924
905.451	18901
905.569	18833
905.686	18863
905.803	18897
905.921	18608
906.038	18673
906.155	18642
906.272	18692
906.389	18627
906.506	18388
906.623	18350
906.74	18403
906.857	18323
906.974	18445
907.091	18353
907.208	18517
907.324	18467
907.441	18159
907.557	18270
907.674	17992
907.79	18007
907.907	17958
908.023	18038
908.139	18117
908.256	18034
908.372	17935
908.488	17840
908.604	17859
908.72	17790
908.836	17836
908.952	17855
909.068	17843
909.184	17908
909.3	17714
909.415	17779
909.531	17863
909.647	17520
909.762	17516
909.878	17528
909.993	17471
910.108	17486
910.224	17417
910.339	17459
910.454	17334
910.57	17334
910.685	17250
910.8	17528
910.915	17398
911.03	17269
911.145	17105
911.259	17105
911.374	17098
911.489	16972
911.604	17045
911.718	16854
911.833	16858
911.947	16713
912.062	16630
912.176	16854
912.291	16942
912.405	16839
912.519	16930
912.633	16858
912.748	16812
912.862	16824
912.976	16584
913.09	16542
913.204	16641
913.318	16596
913.431	16691
913.545	16694
913.659	16622
913.772	16409
913.886	16421
914	16421
914.113	16447
914.226	16565
914.34	16382
914.453	16310
914.566	16413
914.68	16272
914.793	16303
914.906	16017
915.019	16067
915.132	15812
915.245	15964
915.358	16002
915.47	16017
915.583	15915
915.696	16044
915.809	16032
915.921	16116
916.034	16017
916.146	15918
916.259	15899
916.371	16025
916.483	15892
916.595	15850
916.708	15850
916.82	15762
916.932	15713
917.044	15800
917.156	15667
917.268	15652
917.38	15644
917.491	15542
917.603	15591
917.715	15625
917.826	15671
917.938	15549
918.049	15431
918.161	15599
918.272	15732
918.384	15603
918.495	15557
918.606	15298
918.717	15378
918.828	15386
918.939	15351
919.05	15237
919.161	15302
919.272	15039
919.383	15176
919.494	15272
919.604	15507
919.715	15294
919.826	15230
919.936	15336
920.047	15329
920.157	15332
920.267	15469
920.378	15287
920.488	15260
920.598	15355
920.708	15568
920.818	15447
920.928	15336
921.038	15435
921.148	15530
921.258	15275
921.368	15161
921.477	15043
921.587	14952
921.697	14880
921.806	15058
921.916	14864
922.025	14655
922.134	14644
922.244	14564
922.353	14697
922.462	14465
922.571	14400
922.68	14282
922.789	14263
922.898	14393
923.007	14199
923.116	14256
923.224	14317
923.333	14313
923.442	14065
923.55	14016
923.659	14195
923.767	14237
923.876	14054
923.984	14092
924.092	14020
924.201	14058
924.309	13978
924.417	14027
924.525	13959
924.633	13928
924.741	14610
924.849	13742
924.956	13852
925.064	13837
925.172	13559
925.279	13677
925.387	13704
925.494	13670
925.602	13719
925.709	13693
925.816	13601
925.924	13636
926.031	13578
926.138	13502
926.245	13693
926.352	13605
926.459	13643
926.566	13674
926.673	13586
926.779	13457
926.886	13434
926.993	13259
927.099	13247
927.206	13198
927.312	13164
927.419	13118
927.525	13221
927.631	13202
927.737	13133
927.843	13050
927.95	12954
928.056	12947
928.162	13099
928.267	13065
928.373	13704
928.479	13027
928.585	12837
928.69	12958
928.796	12939
928.901	12703
929.007	12719
929.112	12878
929.218	12730
929.323	12814
929.428	12734
929.533	12897
929.638	12635
929.743	12620
929.848	12684
929.953	12623
930.058	12578
930.163	12281
930.267	12467
930.372	12433
930.477	12357
930.581	12521
930.685	12399
930.79	12247
930.894	12311
930.998	12235
931.103	12391
931.207	12095
931.311	11912
931.415	11851
931.519	11680
931.623	11623
