Data from test_V78500241_400.txt Node
Date: Fri Mar 25 15:44:34 CST 2022
User: usil
Spectrometer: V785-0024
Trigger mode: 0
Integration Time (sec): 4.000000E-1
Scans to average: 1
Nonlinearity correction enabled: false
Boxcar width: 0
Storing dark spectrum: false
XAxis mode: Wavelengths
Number of Pixels in Spectrum: 1024
>>>>>Begin Spectral Data<<<<<
801.071	28771
801.214	28531
801.356	28417
801.499	28485
801.641	28447
801.783	28466
801.926	28405
802.068	28348
802.211	28219
802.353	28131
802.496	27972
802.638	27953
802.78	28120
802.923	27846
803.065	27918
803.208	27964
803.35	27960
803.492	28177
803.635	28013
803.777	28025
803.919	28090
804.061	28424
804.204	28093
804.346	28086
804.488	28128
804.63	28013
804.773	27945
804.915	28074
805.057	28242
805.199	28124
805.341	28375
805.483	28246
805.626	28128
805.768	28093
805.91	28101
806.052	28147
806.194	28253
806.336	28527
806.478	28310
806.62	28074
806.762	28276
806.904	28421
807.046	28866
807.188	28664
807.33	28687
807.472	28660
807.614	28664
807.756	28512
807.898	28474
808.04	28447
808.182	28352
808.324	28443
808.465	28516
808.607	28755
808.749	28793
808.891	28885
809.033	28976
809.174	29079
809.316	28805
809.458	28862
809.6	28873
809.741	28961
809.883	28927
810.025	29105
810.166	29083
810.308	29143
810.45	29056
810.591	29117
810.733	28972
810.875	28816
811.016	28744
811.158	28725
811.299	28938
811.441	28972
811.582	28995
811.724	28885
811.865	28839
812.007	28675
812.148	28869
812.29	28774
812.431	28972
812.573	29143
812.714	29239
812.855	29356
812.997	29531
813.138	29547
813.279	29349
813.421	29303
813.562	29254
813.703	29098
813.845	28927
813.986	28888
814.127	28596
814.268	28478
814.41	28432
814.551	28337
814.692	28459
814.833	28516
814.974	28436
815.115	28512
815.256	28200
815.397	28265
815.539	28371
815.68	28295
815.821	28295
815.962	28322
816.103	28059
816.244	28181
816.385	27987
816.526	28070
816.666	27808
816.807	27812
816.948	27827
817.089	27800
817.23	27755
817.371	27766
817.512	27819
817.653	27663
817.793	27599
817.934	27629
818.075	27705
818.216	27804
818.356	27656
818.497	27462
818.638	27435
818.778	27435
818.919	27378
819.06	27447
819.2	27595
819.341	27603
819.481	27561
819.622	27842
819.762	28070
819.903	27835
820.043	27732
820.184	27835
820.324	27694
820.465	27892
820.605	27808
820.746	27774
820.886	27762
821.026	27770
821.167	27698
821.307	27804
821.447	27709
821.588	27530
821.728	27473
821.868	27211
822.008	27127
822.149	27195
822.289	27169
822.429	26720
822.569	26826
822.709	26880
822.849	26659
822.99	26609
823.13	26590
823.27	26461
823.41	26423
823.55	26339
823.69	26412
823.83	26396
823.97	26320
824.11	26138
824.25	26244
824.389	26161
824.529	26244
824.669	26271
824.809	26374
824.949	26252
825.089	26256
825.228	26267
825.368	25944
825.508	26164
825.648	26088
825.787	26115
825.927	26111
826.067	26027
826.206	25986
826.346	26164
826.485	26157
826.625	26035
826.765	26115
826.904	26130
827.044	25791
827.183	25807
827.323	25578
827.462	25765
827.601	25742
827.741	25715
827.88	25750
828.02	25662
828.159	25708
828.298	25670
828.437	25833
828.577	25723
828.716	25761
828.855	25620
828.994	25460
829.134	25411
829.273	25487
829.412	25339
829.551	25278
829.69	25308
829.829	25491
829.968	25468
830.107	25449
830.246	25392
830.385	25365
830.524	25285
830.663	25145
830.802	25168
830.941	24966
831.08	24966
831.219	25008
831.357	25065
831.496	25217
831.635	24939
831.774	24935
831.913	24844
832.051	24882
832.19	24833
832.329	24791
832.467	24738
832.606	24700
832.744	24578
832.883	24669
833.022	24623
833.16	24665
833.299	24631
833.437	24597
833.576	24707
833.714	24787
833.852	24601
833.991	24776
834.129	24863
834.267	24738
834.406	24627
834.544	24677
834.682	24620
834.821	24540
834.959	24757
835.097	24521
835.235	24616
835.373	24753
835.511	24711
835.65	24521
835.788	24327
835.926	24441
836.064	24270
836.202	24388
836.34	24452
836.478	24403
836.615	24380
836.753	24513
836.891	24532
837.029	24483
837.167	24399
837.305	24319
837.443	24315
837.58	24197
837.718	24414
837.856	24391
837.993	24251
838.131	24266
838.269	24209
838.406	24296
838.544	24167
838.681	23855
838.819	23946
838.956	23775
839.094	23828
839.231	23775
839.369	23878
839.506	24114
839.643	24053
839.781	23627
839.918	23722
840.055	23836
840.193	23630
840.33	23619
840.467	23703
840.604	23733
840.742	23927
840.879	23482
841.016	23501
841.153	23589
841.29	23714
841.427	23528
841.564	23619
841.701	23535
841.838	23726
841.975	23531
842.112	23474
842.249	23372
842.385	23398
842.522	23524
842.659	23490
842.796	23345
842.933	23478
843.069	23288
843.206	23402
843.343	23341
843.479	23345
843.616	23284
843.752	23193
843.889	23044
844.025	23216
844.162	23166
844.298	23242
844.435	23014
844.571	22930
844.708	22987
844.844	23181
844.98	23216
845.117	23200
845.253	23060
845.389	22999
845.525	22999
845.661	22805
845.798	22713
845.934	22850
846.07	22774
846.206	22862
846.342	22961
846.478	22805
846.614	22649
846.75	22588
846.886	22592
847.022	22527
847.158	22538
847.294	22508
847.429	22626
847.565	22584
847.701	22877
847.837	22280
847.972	22242
848.108	22417
848.244	22356
848.379	22128
848.515	22097
848.65	22128
848.786	22090
848.921	22185
849.057	22226
849.192	22192
849.328	22173
849.463	22002
849.598	21979
849.734	21903
849.869	21915
850.004	21949
850.14	21884
850.275	21934
850.41	21739
850.545	21747
850.68	21751
850.815	21972
850.95	21903
851.085	22048
851.22	21892
851.355	21831
851.49	21903
851.625	21827
851.76	21770
851.895	21778
852.03	21892
852.165	21857
852.299	21934
852.434	21934
852.569	21899
852.703	21884
852.838	21850
852.973	21953
853.107	21987
853.242	21793
853.376	21728
853.511	21545
853.645	21751
853.78	21819
853.914	21690
854.048	21534
854.183	21618
854.317	21766
854.451	21823
854.585	21759
854.72	21648
854.854	21816
854.988	21610
855.122	21641
855.256	21576
855.39	21671
855.524	21747
855.658	21797
855.792	21736
855.926	21804
856.06	21808
856.194	21823
856.327	21739
856.461	21629
856.595	21652
856.729	21660
856.862	21682
856.996	21800
857.13	21652
857.263	21770
857.397	21827
857.53	21603
857.664	21755
857.797	21679
857.931	21724
858.064	21728
858.197	21823
858.331	21660
858.464	21485
858.597	21587
858.731	21610
858.864	21568
858.997	21694
859.13	21679
859.263	21751
859.396	21709
859.529	21660
859.662	21576
859.795	21572
859.928	21679
860.061	21846
860.194	21789
860.327	21675
860.46	21625
860.592	21587
860.725	21747
860.858	21785
860.99	21648
861.123	21587
861.256	21618
861.388	21732
861.521	22268
861.653	21572
861.786	21469
861.918	21507
862.05	21545
862.183	21610
862.315	21682
862.447	21675
862.58	21633
862.712	21481
862.844	21329
862.976	21587
863.108	21488
863.24	21846
863.372	21329
863.504	21431
863.636	21287
863.768	21306
863.9	21462
864.032	21256
864.164	21321
864.296	21348
864.428	21389
864.559	21268
864.691	21447
864.823	21325
864.954	21389
865.086	21317
865.217	21230
865.349	21203
865.48	21294
865.612	21218
865.743	21355
865.875	21245
866.006	21192
866.137	21188
866.269	21283
866.4	21272
866.531	21146
866.662	21241
866.793	21176
866.924	21058
867.055	21161
867.186	21294
867.317	21108
867.448	21013
867.579	21081
867.71	20994
867.841	21119
867.972	21188
868.103	21207
868.233	21123
868.364	21135
868.495	21173
868.625	21359
868.756	21507
868.886	21405
869.017	21370
869.147	21553
869.278	21549
869.408	21435
869.539	21310
869.669	21553
869.799	21447
869.929	21583
870.06	21587
870.19	21656
870.32	21625
870.45	21694
870.58	21739
870.71	21964
870.84	21926
870.97	21827
871.1	21739
871.23	21915
871.36	22040
871.489	21819
871.619	21972
871.749	22017
871.879	22063
872.008	22116
872.138	22002
872.267	21934
872.397	21975
872.526	21804
872.656	21827
872.785	21774
872.915	21941
873.044	22109
873.173	21953
873.303	22124
873.432	22006
873.561	21991
873.69	22063
873.819	22116
873.948	22036
874.077	22006
874.206	22101
874.335	21964
874.464	22120
874.593	22219
874.722	22276
874.851	22382
874.979	22219
875.108	22337
875.237	22166
875.365	22166
875.494	22272
875.623	22329
875.751	22109
875.88	22268
876.008	22348
876.136	22497
876.265	22687
876.393	22691
876.521	22771
876.65	22649
876.778	22592
876.906	22637
877.034	22455
877.162	22554
877.29	22618
877.418	22683
877.546	22603
877.674	22607
877.802	22481
877.93	22489
878.058	22626
878.185	22519
878.313	22607
878.441	22535
878.568	22424
878.696	22561
878.824	22485
878.951	22694
879.079	22892
879.206	23029
879.333	22790
879.461	22603
879.588	22698
879.715	22733
879.842	22934
879.97	22656
880.097	22500
880.224	22344
880.351	22466
880.478	22447
880.605	22341
880.732	22303
880.859	22634
880.986	22447
881.112	22394
881.239	22371
881.366	22101
881.493	22013
881.619	21949
881.746	22101
881.872	22128
881.999	21994
882.125	21937
882.252	22036
882.378	22093
882.505	22059
882.631	21934
882.757	21812
882.883	21804
883.01	21713
883.136	21724
883.262	21580
883.388	21561
883.514	21759
883.64	21663
883.766	21606
883.892	21313
884.018	21393
884.143	21580
884.269	21709
884.395	21382
884.52	21291
884.646	21397
884.772	21184
884.897	21230
885.023	21435
885.148	21294
885.274	21496
885.399	21389
885.524	21313
885.65	21378
885.775	21294
885.9	21332
886.025	21408
886.15	21321
886.275	21272
886.4	21245
886.525	21272
886.65	21351
886.775	21268
886.9	21443
887.025	21500
887.149	21142
887.274	21100
887.399	21024
887.523	21081
887.648	20925
887.773	20918
887.897	21138
888.021	21214
888.146	21005
888.27	21077
888.395	21154
888.519	21199
888.643	21013
888.767	21142
888.891	20925
889.015	20952
889.139	20891
889.263	20765
889.387	20921
889.511	21066
889.635	20956
889.759	20807
889.883	20796
890.006	20994
890.13	20883
890.254	20868
890.377	20815
890.501	20670
890.624	20564
890.748	20651
890.871	20404
890.995	20309
891.118	20355
891.241	20396
891.364	20438
891.488	20457
891.611	20412
891.734	20454
891.857	20461
891.98	20461
892.103	20454
892.226	20476
892.349	20294
892.471	20240
892.594	20446
892.717	20385
892.839	20313
892.962	20290
893.085	20320
893.207	20290
893.33	20164
893.452	20271
893.575	20465
893.697	20263
893.819	20317
893.941	20518
894.064	20393
894.186	20317
894.308	20218
894.43	20385
894.552	20457
894.674	20419
894.796	20168
894.918	20343
895.04	20244
895.161	20377
895.283	20400
895.405	20221
895.526	20256
895.648	20282
895.769	20282
895.891	20427
896.012	20339
896.134	20412
896.255	20347
896.376	20347
896.498	20305
896.619	20495
896.74	20278
896.861	20404
896.982	20701
897.103	20815
897.224	20579
897.345	20632
897.466	20560
897.587	20537
897.708	20617
897.828	20602
897.949	20602
898.07	20366
898.19	20533
898.311	20598
898.431	20564
898.552	20514
898.672	20636
898.792	20708
898.913	20587
899.033	20457
899.153	20298
899.273	20199
899.393	20259
899.513	20278
899.633	20404
899.753	20362
899.873	20290
899.993	20278
900.113	20199
900.232	20195
900.352	20157
900.472	20088
900.591	20103
900.711	20161
900.83	19963
900.95	20218
901.069	20168
901.189	19944
901.308	19898
901.427	19689
901.546	19582
901.665	19727
901.784	19670
901.904	19670
902.023	19468
902.141	19171
902.26	19217
902.379	19137
902.498	19202
902.617	19084
902.735	19190
902.854	19057
902.973	19050
903.091	18924
903.21	18840
903.328	18677
903.446	18798
903.565	18707
903.683	18669
903.801	18479
903.919	18555
904.038	18486
904.156	18350
904.274	18490
904.392	18426
904.51	18361
904.627	18372
904.745	18350
904.863	18456
904.981	18152
905.098	18034
905.216	17950
905.334	18083
905.451	17988
905.569	17950
905.686	18011
905.803	18068
905.921	17843
906.038	17870
906.155	17817
906.272	17775
906.389	17722
906.506	17600
906.623	17501
906.74	17554
906.857	17448
906.974	17429
907.091	17695
907.208	17615
907.324	17615
907.441	17467
907.557	17318
907.674	17311
907.79	17170
907.907	17155
908.023	17311
908.139	17345
908.256	17223
908.372	17045
908.488	17128
908.604	16968
908.72	16980
908.836	16961
908.952	16854
909.068	17048
909.184	16991
909.3	16904
909.415	16991
909.531	17010
909.647	16702
909.762	16683
909.878	16618
909.993	16653
910.108	16618
910.224	16702
910.339	16634
910.454	16523
910.57	16314
910.685	16379
910.8	16641
910.915	16618
911.03	16436
911.145	16352
911.259	16246
911.374	16150
911.489	16139
911.604	16185
911.718	16071
911.833	15949
911.947	15903
912.062	15861
912.176	15994
912.291	16013
912.405	16051
912.519	16169
912.633	16143
912.748	15960
912.862	15895
912.976	15873
913.09	15690
913.204	15736
913.318	15816
913.431	15823
913.545	15842
913.659	15903
913.772	15732
913.886	15587
914	15564
914.113	15610
914.226	15797
914.34	15603
914.453	15526
914.566	15671
914.68	15492
914.793	15538
914.906	15348
915.019	15310
915.132	15081
915.245	15173
915.358	15154
915.47	15146
915.583	15245
915.696	15279
915.809	15283
915.921	15310
916.034	15062
916.146	15146
916.259	15058
916.371	15188
916.483	15039
916.595	14963
916.708	14979
916.82	15123
916.932	15036
917.044	14857
917.156	14979
917.268	14872
917.38	14826
917.491	14830
917.603	14796
917.715	14941
917.826	14838
917.938	14823
918.049	14644
918.161	14788
918.272	14815
918.384	14887
918.495	14708
918.606	14617
918.717	14541
918.828	14686
918.939	14632
919.05	14446
919.161	14564
919.272	14317
919.383	14446
919.494	14583
919.604	14762
919.715	14545
919.826	14473
919.936	14522
920.047	14655
920.157	14579
920.267	14724
920.378	14590
920.488	14484
920.598	14830
920.708	14883
920.818	14670
920.928	14701
921.038	14765
921.148	14781
921.258	14556
921.368	14442
921.477	14347
921.587	14206
921.697	14077
921.806	14298
921.916	14187
922.025	14016
922.134	13959
922.244	14012
922.353	14024
922.462	13887
922.571	13719
922.68	13639
922.789	13677
922.898	13620
923.007	13483
923.116	13582
923.224	13514
923.333	13483
923.442	13449
923.55	13403
923.659	13358
923.767	13441
923.876	13335
923.984	13460
924.092	13297
924.201	13384
924.309	13373
924.417	13247
924.525	13225
924.633	13266
924.741	14001
924.849	13118
924.956	13141
925.064	13129
925.172	12985
925.279	13012
925.387	13027
925.494	12928
925.602	13065
925.709	13019
925.816	12901
925.924	12985
926.031	13076
926.138	12939
926.245	12970
926.352	12875
926.459	12966
926.566	13000
926.673	12856
926.779	12791
926.886	12779
926.993	12601
927.099	12593
927.206	12521
927.312	12509
927.419	12620
927.525	12631
927.631	12585
927.737	12372
927.843	12384
927.95	12292
928.056	12361
928.162	12338
928.267	12395
928.373	13137
928.479	12506
928.585	12186
928.69	12304
928.796	12350
928.901	12304
929.007	12079
929.112	12220
929.218	12140
929.323	12213
929.428	12117
929.533	12235
929.638	12068
929.743	12049
929.848	12041
929.953	12064
930.058	11961
930.163	11756
930.267	11805
930.372	11874
930.477	11767
930.581	11950
930.685	11828
930.79	11718
930.894	11737
930.998	11684
931.103	11745
931.207	11414
931.311	11277
931.415	11299
931.519	11075
931.623	11052
