Data from test_V78500241_1178.txt Node
Date: Fri Mar 25 15:49:57 CST 2022
User: usil
Spectrometer: V785-0024
Trigger mode: 0
Integration Time (sec): 4.000000E-1
Scans to average: 1
Nonlinearity correction enabled: false
Boxcar width: 0
Storing dark spectrum: false
XAxis mode: Wavelengths
Number of Pixels in Spectrum: 1024
>>>>>Begin Spectral Data<<<<<
801.071	28421
801.214	28356
801.356	28253
801.499	28310
801.641	28105
801.783	28150
801.926	28200
802.068	28116
802.211	28272
802.353	28063
802.496	27972
802.638	27918
802.78	27751
802.923	27660
803.065	27679
803.208	27884
803.35	27793
803.492	27941
803.635	27926
803.777	27804
803.919	28021
804.061	28413
804.204	28131
804.346	27979
804.488	27983
804.63	28036
804.773	27842
804.915	28177
805.057	28128
805.199	28082
805.341	28219
805.483	28261
805.626	28291
805.768	28021
805.91	28188
806.052	28219
806.194	28150
806.336	28481
806.478	28169
806.62	28318
806.762	28329
806.904	28538
807.046	28660
807.188	28637
807.33	28615
807.472	28702
807.614	28634
807.756	28664
807.898	28557
808.04	28611
808.182	28611
808.324	28546
808.465	28641
808.607	28824
808.749	28927
808.891	28873
809.033	29029
809.174	28968
809.316	28866
809.458	28961
809.6	29037
809.741	29048
809.883	29022
810.025	29220
810.166	29170
810.308	29356
810.45	29132
810.591	29204
810.733	28828
810.875	28995
811.016	28843
811.158	28748
811.299	28995
811.441	29273
811.582	29071
811.724	29003
811.865	28968
812.007	28908
812.148	29014
812.29	28999
812.431	29147
812.573	29296
812.714	29372
812.855	29341
812.997	29657
813.138	29687
813.279	29566
813.421	29592
813.562	29379
813.703	29326
813.845	29033
813.986	29025
814.127	28809
814.268	28641
814.41	28755
814.551	28668
814.692	28816
814.833	28565
814.974	28546
815.115	28740
815.256	28428
815.397	28474
815.539	28637
815.68	28455
815.821	28451
815.962	28569
816.103	28348
816.244	28500
816.385	28299
816.526	28173
816.666	28116
816.807	27865
816.948	27991
817.089	28090
817.23	27983
817.371	27895
817.512	28013
817.653	27934
817.793	27888
817.934	27918
818.075	27876
818.216	27949
818.356	27812
818.497	27892
818.638	27701
818.778	27698
818.919	27800
819.06	27873
819.2	27778
819.341	27975
819.481	27956
819.622	28105
819.762	28314
819.903	28219
820.043	28147
820.184	28105
820.324	28017
820.465	28131
820.605	28093
820.746	28082
820.886	27876
821.026	28105
821.167	28002
821.307	28051
821.447	28070
821.588	27880
821.728	27899
821.868	27591
822.008	27462
822.149	27454
822.289	27408
822.429	27226
822.569	27062
822.709	27009
822.849	26933
822.99	26982
823.13	26967
823.27	26933
823.41	26815
823.55	26746
823.69	26716
823.83	26670
823.97	26705
824.11	26473
824.25	26560
824.389	26651
824.529	26594
824.669	26682
824.809	26731
824.949	26689
825.089	26575
825.228	26621
825.368	26446
825.508	26415
825.648	26450
825.787	26522
825.927	26560
826.067	26438
826.206	26583
826.346	26640
826.485	26526
826.625	26492
826.765	26564
826.904	26522
827.044	26324
827.183	26134
827.323	26328
827.462	26358
827.601	26278
827.741	26183
827.88	26252
828.02	26073
828.159	26275
828.298	26324
828.437	26244
828.577	26065
828.716	26259
828.855	25970
828.994	25966
829.134	25868
829.273	26012
829.412	26008
829.551	25883
829.69	26065
829.829	25997
829.968	25936
830.107	25947
830.246	26016
830.385	25845
830.524	25658
830.663	25696
830.802	25609
830.941	25556
831.08	25472
831.219	25506
831.357	25571
831.496	25742
831.635	25590
831.774	25384
831.913	25464
832.051	25358
832.19	25316
832.329	25312
832.467	25225
832.606	25217
832.744	25099
832.883	25038
833.022	25187
833.16	25209
833.299	25213
833.437	25183
833.576	25346
833.714	25057
833.852	25175
833.991	25308
834.129	25388
834.267	25232
834.406	25365
834.544	25236
834.682	25346
834.821	25175
834.959	25293
835.097	25164
835.235	25175
835.373	25263
835.511	25190
835.65	25027
835.788	25152
835.926	24833
836.064	24905
836.202	24882
836.34	25038
836.478	25072
836.615	25027
836.753	24992
836.891	25221
837.029	25027
837.167	24958
837.305	24962
837.443	24878
837.58	24810
837.718	25023
837.856	24970
837.993	24810
838.131	24764
838.269	24795
838.406	24886
838.544	24730
838.681	24494
838.819	24505
838.956	24445
839.094	24315
839.231	24384
839.369	24525
839.506	24661
839.643	24642
839.781	24391
839.918	24304
840.055	24346
840.193	24361
840.33	24235
840.467	24273
840.604	24209
840.742	24483
840.879	24152
841.016	24251
841.153	24129
841.29	24403
841.427	24350
841.564	24292
841.701	24224
841.838	24186
841.975	24251
842.112	24144
842.249	24140
842.385	24098
842.522	24209
842.659	24228
842.796	24007
842.933	24079
843.069	23923
843.206	23916
843.343	24102
843.479	23961
843.616	23977
843.752	23832
843.889	23802
844.025	23927
844.162	23847
844.298	23977
844.435	23748
844.571	23707
844.708	23794
844.844	23855
844.98	23923
845.117	23752
845.253	23817
845.389	23741
845.525	23699
845.661	23684
845.798	23474
845.934	23600
846.07	23539
846.206	23573
846.342	23585
846.478	23512
846.614	23414
846.75	23292
846.886	23162
847.022	23296
847.158	23269
847.294	23185
847.429	23265
847.565	23162
847.701	23341
847.837	22892
847.972	22927
848.108	22991
848.244	23022
848.379	22923
848.515	22812
848.65	22755
848.786	22702
848.921	22828
849.057	22858
849.192	22839
849.328	22733
849.463	22698
849.598	22736
849.734	22584
849.869	22660
850.004	22622
850.14	22500
850.275	22660
850.41	22489
850.545	22459
850.68	22694
850.815	22630
850.95	22573
851.085	22748
851.22	22550
851.355	22702
851.49	22664
851.625	22554
851.76	22481
851.895	22474
852.03	22546
852.165	22519
852.299	22729
852.434	22596
852.569	22721
852.703	22599
852.838	22778
852.973	22649
853.107	22736
853.242	22535
853.376	22432
853.511	22276
853.645	22436
853.78	22443
853.914	22421
854.048	22310
854.183	22424
854.317	22390
854.451	22577
854.585	22428
854.72	22428
854.854	22489
854.988	22405
855.122	22550
855.256	22265
855.39	22402
855.524	22440
855.658	22546
855.792	22428
855.926	22466
856.06	22409
856.194	22375
856.327	22421
856.461	22375
856.595	22211
856.729	22440
856.862	22489
856.996	22417
857.13	22474
857.263	22592
857.397	22497
857.53	22287
857.664	22512
857.797	22588
857.931	22474
858.064	22341
858.197	22596
858.331	22265
858.464	22329
858.597	22341
858.731	22325
858.864	22356
858.997	22344
859.13	22348
859.263	22352
859.396	22443
859.529	22440
859.662	22417
859.795	22344
859.928	22386
860.061	22577
860.194	22668
860.327	22451
860.46	22516
860.592	22565
860.725	22569
860.858	22596
860.99	22325
861.123	22226
861.256	22367
861.388	22386
861.521	23140
861.653	22390
861.786	22215
861.918	22192
862.05	22246
862.183	22390
862.315	22386
862.447	22413
862.58	22230
862.712	22055
862.844	22055
862.976	22207
863.108	22196
863.24	22656
863.372	22032
863.504	22200
863.636	22101
863.768	22196
863.9	22055
864.032	22021
864.164	21979
864.296	22078
864.428	22265
864.559	22055
864.691	22204
864.823	22070
864.954	22112
865.086	22040
865.217	22097
865.349	21892
865.48	21960
865.612	21975
865.743	22051
865.875	21956
866.006	21949
866.137	22010
866.269	22025
866.4	21857
866.531	22010
866.662	21861
866.793	21850
866.924	21888
867.055	21861
867.186	21907
867.317	21953
867.448	21880
867.579	21975
867.71	21854
867.841	21812
867.972	21778
868.103	21998
868.233	21884
868.364	21987
868.495	22021
868.625	22223
868.756	22192
868.886	22074
869.017	22105
869.147	22360
869.278	22280
869.408	22051
869.539	22169
869.669	22287
869.799	22093
869.929	22207
870.06	22280
870.19	22462
870.32	22481
870.45	22546
870.58	22535
870.71	22656
870.84	22668
870.97	22577
871.1	22569
871.23	22710
871.36	22710
871.489	22805
871.619	22675
871.749	22793
871.879	22725
872.008	22713
872.138	22656
872.267	22679
872.397	22653
872.526	22546
872.656	22634
872.785	22618
872.915	22736
873.044	22881
873.173	22729
873.303	22679
873.432	22869
873.561	22858
873.69	22744
873.819	22736
873.948	22809
874.077	22717
874.206	22683
874.335	22740
874.464	22759
874.593	22930
874.722	23044
874.851	23079
874.979	22984
875.108	23014
875.237	22968
875.365	22869
875.494	22923
875.623	23033
875.751	22877
875.88	23018
876.008	23067
876.136	23128
876.265	23284
876.393	23455
876.521	23501
876.65	23493
876.778	23345
876.906	23318
877.034	23296
877.162	23372
877.29	23254
877.418	23185
877.546	23239
877.674	23398
877.802	23231
877.93	23239
878.058	23181
878.185	23162
878.313	23151
878.441	23250
878.568	23189
878.696	23258
878.824	23280
878.951	23353
879.079	23448
879.206	23512
879.333	23383
879.461	23402
879.588	23417
879.715	23539
879.842	23638
879.97	23372
880.097	23006
880.224	23102
880.351	23193
880.478	23064
880.605	23086
880.732	23155
880.859	23372
880.986	23056
881.112	23140
881.239	23037
881.366	22881
881.493	22923
881.619	22675
881.746	22748
881.872	22584
881.999	22656
882.125	22611
882.252	22725
882.378	22687
882.505	22774
882.631	22565
882.757	22519
882.883	22485
883.01	22306
883.136	22413
883.262	22173
883.388	22188
883.514	22363
883.64	22440
883.766	22337
883.892	22173
884.018	22120
884.143	22299
884.269	22325
884.395	22192
884.52	22082
884.646	21994
884.772	22036
884.897	22067
885.023	21953
885.148	21994
885.274	22158
885.399	22017
885.524	22025
885.65	21899
885.775	22021
885.9	22051
886.025	22036
886.15	22082
886.275	21979
886.4	21964
886.525	21838
886.65	21987
886.775	21823
886.9	22139
887.025	22333
887.149	21983
887.274	21797
887.399	21797
887.523	21762
887.648	21705
887.773	21713
887.897	21842
888.021	21793
888.146	21580
888.27	21819
888.395	21774
888.519	21873
888.643	21865
888.767	21770
888.891	21751
889.015	21648
889.139	21644
889.263	21439
889.387	21675
889.511	21793
889.635	21606
889.759	21648
889.883	21466
890.006	21488
890.13	21629
890.254	21473
890.377	21507
890.501	21298
890.624	21374
890.748	21287
890.871	21161
890.995	21028
891.118	20986
891.241	20994
891.364	21203
891.488	21142
891.611	21165
891.734	21074
891.857	21146
891.98	21222
892.103	21237
892.226	21165
892.349	21017
892.471	20910
892.594	20956
892.717	21051
892.839	21051
892.962	20982
893.085	21043
893.207	20952
893.33	20906
893.452	21051
893.575	21058
893.697	20967
893.819	21230
893.941	21096
894.064	21157
894.186	20838
894.308	20861
894.43	20967
894.552	21112
894.674	21051
894.796	20918
894.918	21074
895.04	20883
895.161	21051
895.283	21104
895.405	20910
895.526	20910
895.648	20902
895.769	21013
895.891	21096
896.012	21066
896.134	21051
896.255	21005
896.376	20933
896.498	20941
896.619	20982
896.74	21013
896.861	21077
896.982	21359
897.103	21526
897.224	21203
897.345	21287
897.466	20963
897.587	21275
897.708	21279
897.828	21256
897.949	21039
898.07	20979
898.19	21108
898.311	21252
898.431	21032
898.552	21116
898.672	21260
898.792	21214
898.913	21237
899.033	21043
899.153	20944
899.273	20853
899.393	20853
899.513	20921
899.633	20960
899.753	20921
899.873	20937
899.993	20929
900.113	20902
900.232	21036
900.352	20800
900.472	20727
900.591	20792
900.711	20682
900.83	20598
900.95	20826
901.069	20686
901.189	20602
901.308	20202
901.427	20343
901.546	20233
901.665	20218
901.784	20301
901.904	20008
902.023	20027
902.141	19894
902.26	19738
902.379	19921
902.498	19734
902.617	19704
902.735	19719
902.854	19719
902.973	19658
903.091	19476
903.21	19297
903.328	19392
903.446	19419
903.565	19156
903.683	19209
903.801	19103
903.919	19236
904.038	19050
904.156	18901
904.274	19042
904.392	18993
904.51	18871
904.627	19015
904.745	19072
904.863	18996
904.981	18760
905.098	18703
905.216	18601
905.334	18753
905.451	18582
905.569	18715
905.686	18559
905.803	18627
905.921	18467
906.038	18631
906.155	18452
906.272	18311
906.389	18479
906.506	18171
906.623	18133
906.74	18110
906.857	18117
906.974	18102
907.091	18228
907.208	18197
907.324	18194
907.441	18007
907.557	17805
907.674	17897
907.79	17931
907.907	17840
908.023	17923
908.139	17840
908.256	17821
908.372	17779
908.488	17847
908.604	17756
908.72	17543
908.836	17585
908.952	17501
909.068	17661
909.184	17600
909.3	17570
909.415	17589
909.531	17638
909.647	17341
909.762	17326
909.878	17265
909.993	17334
910.108	17162
910.224	17143
910.339	17269
910.454	17094
910.57	16991
910.685	17060
910.8	17372
910.915	17166
911.03	17117
911.145	16980
911.259	16877
911.374	16904
911.489	16763
911.604	16725
911.718	16519
911.833	16660
911.947	16550
912.062	16573
912.176	16558
912.291	16664
912.405	16573
912.519	16733
912.633	16862
912.748	16653
912.862	16561
912.976	16360
913.09	16276
913.204	16333
913.318	16500
913.431	16386
913.545	16489
913.659	16474
913.772	16352
913.886	16238
914	16238
914.113	16185
914.226	16303
914.34	16226
914.453	16055
914.566	16306
914.68	16051
914.793	16040
914.906	15892
915.019	15846
915.132	15797
915.245	15755
915.358	15835
915.47	15797
915.583	15831
915.696	15835
915.809	15907
915.921	15823
916.034	15743
916.146	15785
916.259	15637
916.371	15781
916.483	15728
916.595	15660
916.708	15557
916.82	15542
916.932	15553
917.044	15622
917.156	15564
917.268	15405
917.38	15408
917.491	15321
917.603	15435
917.715	15458
917.826	15492
917.938	15302
918.049	15245
918.161	15348
918.272	15523
918.384	15511
918.495	15264
918.606	15142
918.717	15104
918.828	15154
918.939	15218
919.05	15001
919.161	15195
919.272	14937
919.383	14952
919.494	15199
919.604	15424
919.715	15154
919.826	15070
919.936	15108
920.047	15131
920.157	15119
920.267	15313
920.378	15116
920.488	15047
920.598	15252
920.708	15386
920.818	15233
920.928	15150
921.038	15378
921.148	15378
921.258	15100
921.368	15013
921.477	14788
921.587	14857
921.697	14743
921.806	14864
921.916	14727
922.025	14514
922.134	14446
922.244	14473
922.353	14476
922.462	14317
922.571	14172
922.68	14164
922.789	14142
922.898	14168
923.007	14073
923.116	14088
923.224	14077
923.333	14043
923.442	13909
923.55	13890
923.659	13967
923.767	13993
923.876	13868
923.984	13989
924.092	13753
924.201	13902
924.309	13864
924.417	13871
924.525	13772
924.633	13738
924.741	14495
924.849	13605
924.956	13677
925.064	13476
925.172	13472
925.279	13403
925.387	13514
925.494	13518
925.602	13571
925.709	13491
925.816	13392
925.924	13430
926.031	13537
926.138	13384
926.245	13495
926.352	13327
926.459	13499
926.566	13506
926.673	13403
926.779	13320
926.886	13156
926.993	13053
927.099	13038
927.206	12996
927.312	13031
927.419	13103
927.525	12985
927.631	13031
927.737	12973
927.843	12848
927.95	12806
928.056	12802
928.162	12848
928.267	12958
928.373	13453
928.479	12871
928.585	12700
928.69	12787
928.796	12886
928.901	12692
929.007	12547
929.112	12582
929.218	12726
929.323	12650
929.428	12532
929.533	12738
929.638	12532
929.743	12486
929.848	12597
929.953	12486
930.058	12334
930.163	12194
930.267	12338
930.372	12388
930.477	12175
930.581	12433
930.685	12346
930.79	12083
930.894	12159
930.998	12106
931.103	12247
931.207	11920
931.311	11733
931.415	11760
931.519	11509
931.623	11539
