Data from test_V78500241_2926.txt Node
Date: Fri Mar 25 16:02:04 CST 2022
User: usil
Spectrometer: V785-0024
Trigger mode: 0
Integration Time (sec): 4.000000E-1
Scans to average: 1
Nonlinearity correction enabled: false
Boxcar width: 0
Storing dark spectrum: false
XAxis mode: Wavelengths
Number of Pixels in Spectrum: 1024
>>>>>Begin Spectral Data<<<<<
801.071	28942
801.214	28809
801.356	28622
801.499	28615
801.641	28516
801.783	28481
801.926	28500
802.068	28538
802.211	28409
802.353	28474
802.496	28348
802.638	28234
802.78	28226
802.923	28196
803.065	28158
803.208	28192
803.35	28318
803.492	28401
803.635	28360
803.777	28238
803.919	28493
804.061	28759
804.204	28462
804.346	28337
804.488	28356
804.63	28333
804.773	28287
804.915	28436
805.057	28660
805.199	28299
805.341	28546
805.483	28649
805.626	28398
805.768	28565
805.91	28565
806.052	28527
806.194	28405
806.336	28599
806.478	28653
806.62	28569
806.762	28637
806.904	28938
807.046	29124
807.188	28946
807.33	28934
807.472	28999
807.614	28991
807.756	29025
807.898	29022
808.04	28809
808.182	28904
808.324	28946
808.465	28908
808.607	29223
808.749	29311
808.891	29398
809.033	29433
809.174	29353
809.316	29254
809.458	29216
809.6	29254
809.741	29334
809.883	29406
810.025	29707
810.166	29478
810.308	29653
810.45	29452
810.591	29375
810.733	29414
810.875	29277
811.016	29246
811.158	29185
811.299	29414
811.441	29581
811.582	29444
811.724	29315
811.865	29269
812.007	29296
812.148	29398
812.29	29360
812.431	29493
812.573	29668
812.714	29672
812.855	29798
812.997	29908
813.138	30015
813.279	29836
813.421	29798
813.562	29657
813.703	29756
813.845	29478
813.986	29200
814.127	29124
814.268	28923
814.41	29079
814.551	28999
814.692	29094
814.833	28968
814.974	28968
815.115	29079
815.256	28824
815.397	28896
815.539	28965
815.68	28812
815.821	28812
815.962	28683
816.103	28869
816.244	28706
816.385	28653
816.526	28561
816.666	28478
816.807	28322
816.948	28451
817.089	28459
817.23	28436
817.371	28360
817.512	28401
817.653	28401
817.793	28299
817.934	28371
818.075	28379
818.216	28371
818.356	28261
818.497	28325
818.638	28105
818.778	28116
818.919	28200
819.06	28097
819.2	28303
819.341	28417
819.481	28367
819.622	28565
819.762	28713
819.903	28565
820.043	28455
820.184	28584
820.324	28512
820.465	28538
820.605	28550
820.746	28379
820.886	28318
821.026	28424
821.167	28523
821.307	28561
821.447	28306
821.588	28253
821.728	28131
821.868	27873
822.008	27888
822.149	27983
822.289	27827
822.429	27618
822.569	27523
822.709	27553
822.849	27397
822.99	27393
823.13	27310
823.27	27214
823.41	27131
823.55	27051
823.69	27222
823.83	27264
823.97	27142
824.11	27036
824.25	26914
824.389	26914
824.529	27043
824.669	26948
824.809	27154
824.949	27074
825.089	26990
825.228	27077
825.368	26845
825.508	26872
825.648	26921
825.787	26906
825.927	26864
826.067	26979
826.206	26952
826.346	26899
826.485	26948
826.625	26910
826.765	26906
826.904	26830
827.044	26617
827.183	26727
827.323	26579
827.462	26705
827.601	26716
827.741	26648
827.88	26598
828.02	26499
828.159	26537
828.298	26587
828.437	26621
828.577	26727
828.716	26621
828.855	26446
828.994	26195
829.134	26161
829.273	26225
829.412	26229
829.551	26180
829.69	26290
829.829	26408
829.968	26396
830.107	26263
830.246	26248
830.385	26240
830.524	26168
830.663	26065
830.802	26008
830.941	25906
831.08	25814
831.219	25883
831.357	25982
831.496	26092
831.635	25845
831.774	25925
831.913	25871
832.051	25677
832.19	25620
832.329	25887
832.467	25567
832.606	25510
832.744	25457
832.883	25518
833.022	25457
833.16	25495
833.299	25575
833.437	25658
833.576	25514
833.714	25670
833.852	25677
833.991	25647
834.129	25655
834.267	25670
834.406	25578
834.544	25677
834.682	25552
834.821	25594
834.959	25662
835.097	25544
835.235	25620
835.373	25681
835.511	25514
835.65	25506
835.788	25601
835.926	25263
836.064	25320
836.202	25339
836.34	25499
836.478	25468
836.615	25430
836.753	25434
836.891	25445
837.029	25381
837.167	25358
837.305	25312
837.443	25247
837.58	25183
837.718	25335
837.856	25365
837.993	25247
838.131	25255
838.269	25114
838.406	25221
838.544	25042
838.681	24966
838.819	24871
838.956	24829
839.094	24768
839.231	24654
839.369	24913
839.506	25046
839.643	25103
839.781	24711
839.918	24696
840.055	24715
840.193	24719
840.33	24642
840.467	24620
840.604	24688
840.742	24852
840.879	24490
841.016	24604
841.153	24475
841.29	24722
841.427	24601
841.564	24734
841.701	24593
841.838	24620
841.975	24593
842.112	24544
842.249	24475
842.385	24395
842.522	24677
842.659	24616
842.796	24380
842.933	24391
843.069	24251
843.206	24296
843.343	24422
843.479	24357
843.616	24361
843.752	24136
843.889	24186
844.025	24247
844.162	24125
844.298	24186
844.435	24117
844.571	24076
844.708	24224
844.844	24273
844.98	24247
845.117	24232
845.253	24030
845.389	23988
845.525	24030
845.661	24026
845.798	23885
845.934	23977
846.07	23809
846.206	23874
846.342	24079
846.478	23866
846.614	23649
846.75	23718
846.886	23577
847.022	23467
847.158	23562
847.294	23627
847.429	23600
847.565	23581
847.701	23790
847.837	23356
847.972	23356
848.108	23417
848.244	23406
848.379	23250
848.515	23258
848.65	23273
848.786	23303
848.921	23239
849.057	23227
849.192	23143
849.328	23170
849.463	23269
849.598	23136
849.734	23094
849.869	23242
850.004	22938
850.14	22980
850.275	23067
850.41	23067
850.545	22949
850.68	23041
850.815	23014
850.95	22904
851.085	23056
851.22	23086
851.355	22991
851.49	22889
851.625	22984
851.76	22965
851.895	22790
852.03	22744
852.165	22812
852.299	22911
852.434	23014
852.569	22877
852.703	22972
852.838	23071
852.973	23124
853.107	23048
853.242	22949
853.376	22736
853.511	22580
853.645	22755
853.78	22869
853.914	22733
854.048	22588
854.183	22824
854.317	22892
854.451	22934
854.585	22694
854.72	22733
854.854	22919
854.988	22660
855.122	22869
855.256	22531
855.39	22820
855.524	22847
855.658	22656
855.792	22694
855.926	22793
856.06	22649
856.194	23003
856.327	22790
856.461	22759
856.595	22721
856.729	22786
856.862	22889
856.996	22752
857.13	22763
857.263	22866
857.397	22972
857.53	22694
857.664	22797
857.797	22774
857.931	22972
858.064	22687
858.197	22904
858.331	22812
858.464	22668
858.597	22767
858.731	22710
858.864	22626
858.997	22733
859.13	22797
859.263	22752
859.396	22900
859.529	22816
859.662	22782
859.795	22702
859.928	22858
860.061	22984
860.194	22957
860.327	22862
860.46	22881
860.592	22972
860.725	22953
860.858	22984
860.99	22733
861.123	22660
861.256	22771
861.388	22889
861.521	23501
861.653	22649
861.786	22554
861.918	22577
862.05	22706
862.183	22778
862.315	22778
862.447	22748
862.58	22668
862.712	22466
862.844	22535
862.976	22516
863.108	22573
863.24	23098
863.372	22516
863.504	22504
863.636	22535
863.768	22481
863.9	22459
864.032	22421
864.164	22478
864.296	22535
864.428	22573
864.559	22687
864.691	22588
864.823	22481
864.954	22386
865.086	22432
865.217	22565
865.349	22341
865.48	22333
865.612	22299
865.743	22641
865.875	22440
866.006	22226
866.137	22459
866.269	22325
866.4	22451
866.531	22242
866.662	22314
866.793	22257
866.924	22424
867.055	22276
867.186	22268
867.317	22337
867.448	22382
867.579	22303
867.71	22287
867.841	22303
867.972	22356
868.103	22207
868.233	22234
868.364	22211
868.495	22424
868.625	22405
868.756	22729
868.886	22504
869.017	22516
869.147	22744
869.278	22660
869.408	22611
869.539	22660
869.669	22599
869.799	22596
869.929	22672
870.06	22713
870.19	22987
870.32	22824
870.45	22942
870.58	23018
870.71	23071
870.84	23056
870.97	22911
871.1	22930
871.23	23151
871.36	23147
871.489	23162
871.619	23090
871.749	23075
871.879	23113
872.008	23204
872.138	23162
872.267	23235
872.397	23025
872.526	23044
872.656	23033
872.785	23086
872.915	23140
873.044	23322
873.173	23280
873.303	23269
873.432	23254
873.561	23311
873.69	23231
873.819	23143
873.948	23353
874.077	23250
874.206	22999
874.335	23094
874.464	23269
874.593	23417
874.722	23376
874.851	23265
874.979	23360
875.108	23531
875.237	23387
875.365	23417
875.494	23440
875.623	23376
875.751	23410
875.88	23349
876.008	23619
876.136	23520
876.265	23767
876.393	23866
876.521	23908
876.65	23828
876.778	23764
876.906	23634
877.034	23779
877.162	23752
877.29	23695
877.418	23707
877.546	23767
877.674	23638
877.802	23779
877.93	23558
878.058	23642
878.185	23539
878.313	23600
878.441	23634
878.568	23581
878.696	23722
878.824	23714
878.951	23920
879.079	23988
879.206	23878
879.333	23954
879.461	23718
879.588	23832
879.715	23931
879.842	24034
879.97	23840
880.097	23554
880.224	23573
880.351	23596
880.478	23653
880.605	23509
880.732	23596
880.859	23798
880.986	23642
881.112	23562
881.239	23421
881.366	23311
881.493	23155
881.619	23140
881.746	23033
881.872	23231
881.999	23037
882.125	23052
882.252	23109
882.378	23052
882.505	23193
882.631	23006
882.757	22790
882.883	22847
883.01	22736
883.136	22679
883.262	22645
883.388	22599
883.514	22839
883.64	22702
883.766	22649
883.892	22561
884.018	22649
884.143	22729
884.269	22858
884.395	22451
884.52	22481
884.646	22432
884.772	22295
884.897	22318
885.023	22485
885.148	22592
885.274	22573
885.399	22542
885.524	22417
885.65	22417
885.775	22390
885.9	22325
886.025	22466
886.15	22440
886.275	22322
886.4	22234
886.525	22306
886.65	22367
886.775	22246
886.9	22519
887.025	22611
887.149	22371
887.274	22135
887.399	22272
887.523	22211
887.648	22063
887.773	22055
887.897	22249
888.021	22299
888.146	22109
888.27	22086
888.395	22188
888.519	22188
888.643	22158
888.767	22158
888.891	22010
889.015	21880
889.139	22059
889.263	21903
889.387	22040
889.511	22036
889.635	22074
889.759	22002
889.883	22017
890.006	21975
890.13	22017
890.254	21884
890.377	21907
890.501	21785
890.624	21633
890.748	21686
890.871	21663
890.995	21538
891.118	21576
891.241	21401
891.364	21481
891.488	21561
891.611	21542
891.734	21408
891.857	21545
891.98	21496
892.103	21523
892.226	21507
892.349	21431
892.471	21310
892.594	21374
892.717	21348
892.839	21272
892.962	21504
893.085	21439
893.207	21397
893.33	21348
893.452	21344
893.575	21393
893.697	21355
893.819	21545
893.941	21519
894.064	21595
894.186	21405
894.308	21131
894.43	21401
894.552	21378
894.674	21416
894.796	21180
894.918	21268
895.04	21374
895.161	21420
895.283	21382
895.405	21180
895.526	21378
895.648	21344
895.769	21351
895.891	21428
896.012	21378
896.134	21416
896.255	21351
896.376	21264
896.498	21310
896.619	21283
896.74	21264
896.861	21393
896.982	21705
897.103	21823
897.224	21549
897.345	21591
897.466	21557
897.587	21587
897.708	21671
897.828	21587
897.949	21496
898.07	21359
898.19	21492
898.311	21606
898.431	21481
898.552	21526
898.672	21625
898.792	21568
898.913	21549
899.033	21355
899.153	21351
899.273	21214
899.393	21241
899.513	21294
899.633	21249
899.753	21245
899.873	21214
899.993	21344
900.113	21127
900.232	21131
900.352	21241
900.472	21169
900.591	21017
900.711	21070
900.83	20948
900.95	21077
901.069	21096
901.189	20899
901.308	20689
901.427	20549
901.546	20587
901.665	20644
901.784	20644
901.904	20503
902.023	20351
902.141	20172
902.26	20001
902.379	20111
902.498	20031
902.617	20183
902.735	20130
902.854	20107
902.973	19967
903.091	19788
903.21	19734
903.328	19811
903.446	19643
903.565	19521
903.683	19518
903.801	19392
903.919	19491
904.038	19499
904.156	19419
904.274	19358
904.392	19331
904.51	19255
904.627	19285
904.745	19316
904.863	19346
904.981	19050
905.098	18947
905.216	18935
905.334	18920
905.451	18973
905.569	19031
905.686	19133
905.803	18947
905.921	18760
906.038	18878
906.155	18825
906.272	18673
906.389	18642
906.506	18506
906.623	18525
906.74	18521
906.857	18486
906.974	18414
907.091	18486
907.208	18631
907.324	18582
907.441	18319
907.557	18266
907.674	18323
907.79	18140
907.907	18232
908.023	18228
908.139	18205
908.256	18228
908.372	18095
908.488	18201
908.604	17897
908.72	17893
908.836	17931
908.952	17927
909.068	17882
909.184	18007
909.3	18060
909.415	17977
909.531	17920
909.647	17748
909.762	17562
909.878	17627
909.993	17646
910.108	17592
910.224	17516
910.339	17463
910.454	17539
910.57	17360
910.685	17269
910.8	17554
910.915	17528
911.03	17398
911.145	17235
911.259	17162
911.374	17170
911.489	17086
911.604	17117
911.718	16915
911.833	16908
911.947	16759
912.062	16778
912.176	16930
912.291	16896
912.405	16946
912.519	17162
912.633	17094
912.748	16881
912.862	16980
912.976	16713
913.09	16656
913.204	16660
913.318	16774
913.431	16850
913.545	16885
913.659	16839
913.772	16649
913.886	16569
914	16451
914.113	16546
914.226	16618
914.34	16607
914.453	16398
914.566	16523
914.68	16424
914.793	16337
914.906	16234
915.019	16124
915.132	15968
915.245	16135
915.358	16150
915.47	16082
915.583	16055
915.696	16143
915.809	16166
915.921	16238
916.034	16002
916.146	15960
916.259	15926
916.371	15968
916.483	16010
916.595	15895
916.708	15895
916.82	15953
916.932	15835
917.044	15797
917.156	15785
917.268	15751
917.38	15808
917.491	15774
917.603	15686
917.715	15663
917.826	15800
917.938	15599
918.049	15614
918.161	15572
918.272	15781
918.384	15804
918.495	15534
918.606	15500
918.717	15367
918.828	15431
918.939	15488
919.05	15363
919.161	15435
919.272	15154
919.383	15321
919.494	15397
919.604	15637
919.715	15408
919.826	15325
919.936	15367
920.047	15374
920.157	15412
920.267	15580
920.378	15458
920.488	15260
920.598	15542
920.708	15660
920.818	15519
920.928	15431
921.038	15682
921.148	15652
921.258	15283
921.368	15180
921.477	15116
921.587	15154
921.697	14986
921.806	15108
921.916	15066
922.025	14807
922.134	14788
922.244	14689
922.353	14773
922.462	14583
922.571	14526
922.68	14446
922.789	14332
922.898	14446
923.007	14404
923.116	14434
923.224	14434
923.333	14320
923.442	14214
923.55	14195
923.659	14259
923.767	14187
923.876	14046
923.984	14191
924.092	13986
924.201	14115
924.309	14065
924.417	14130
924.525	13970
924.633	13917
924.741	14960
924.849	13715
924.956	13970
925.064	13757
925.172	13727
925.279	13780
925.387	13830
925.494	13704
925.602	13940
925.709	13738
925.816	13681
925.924	13578
926.031	13731
926.138	13586
926.245	13776
926.352	13510
926.459	13849
926.566	13712
926.673	13525
926.779	13430
926.886	13392
926.993	13301
927.099	13282
927.206	13194
927.312	13183
927.419	13324
927.525	13312
927.631	13278
927.737	13137
927.843	13091
927.95	12977
928.056	12993
928.162	13129
928.267	13099
928.373	13666
928.479	13156
928.585	12901
928.69	13046
928.796	13046
928.901	12928
929.007	12837
929.112	12954
929.218	12814
929.323	12863
929.428	12795
929.533	12920
929.638	12749
929.743	12715
929.848	12916
929.953	12711
930.058	12612
930.163	12525
930.267	12528
930.372	12559
930.477	12452
930.581	12623
930.685	12544
930.79	12361
930.894	12452
930.998	12384
931.103	12479
931.207	12095
931.311	12049
931.415	11927
931.519	11790
931.623	11688
