Data from test_V78500241_1924.txt Node
Date: Fri Mar 25 15:55:07 CST 2022
User: usil
Spectrometer: V785-0024
Trigger mode: 0
Integration Time (sec): 4.000000E-1
Scans to average: 1
Nonlinearity correction enabled: false
Boxcar width: 0
Storing dark spectrum: false
XAxis mode: Wavelengths
Number of Pixels in Spectrum: 1024
>>>>>Begin Spectral Data<<<<<
801.071	28664
801.214	28630
801.356	28424
801.499	28314
801.641	28223
801.783	28272
801.926	28333
802.068	28356
802.211	28074
802.353	28234
802.496	28063
802.638	27953
802.78	28101
802.923	27930
803.065	27861
803.208	27934
803.35	28040
803.492	28116
803.635	28200
803.777	28265
803.919	28242
804.061	28592
804.204	28204
804.346	28246
804.488	28185
804.63	28238
804.773	28226
804.915	28382
805.057	28348
805.199	28303
805.341	28363
805.483	28352
805.626	28367
805.768	28356
805.91	28447
806.052	28303
806.194	28207
806.336	28527
806.478	28344
806.62	28375
806.762	28584
806.904	28516
807.046	28805
807.188	28828
807.33	28877
807.472	28930
807.614	28854
807.756	28957
807.898	28801
808.04	28641
808.182	28637
808.324	28611
808.465	28839
808.607	28881
808.749	28968
808.891	29193
809.033	29258
809.174	29246
809.316	29056
809.458	29147
809.6	29071
809.741	29235
809.883	29204
810.025	29341
810.166	29345
810.308	29299
810.45	29414
810.591	29185
810.733	29140
810.875	29086
811.016	28927
811.158	28987
811.299	29159
811.441	29197
811.582	29220
811.724	29025
811.865	29056
812.007	29155
812.148	28896
812.29	29189
812.431	29235
812.573	29482
812.714	29589
812.855	29680
812.997	29691
813.138	29809
813.279	29710
813.421	29634
813.562	29516
813.703	29493
813.845	29269
813.986	29052
814.127	28843
814.268	28881
814.41	28847
814.551	28721
814.692	28923
814.833	28790
814.974	28698
815.115	28759
815.256	28679
815.397	28744
815.539	28618
815.68	28554
815.821	28462
815.962	28573
816.103	28573
816.244	28554
816.385	28481
816.526	28306
816.666	28166
816.807	28158
816.948	28090
817.089	28196
817.23	28154
817.371	28048
817.512	28082
817.653	27998
817.793	27968
817.934	28002
818.075	28093
818.216	28074
818.356	28090
818.497	27911
818.638	27774
818.778	27998
818.919	27720
819.06	27861
819.2	28021
819.341	28025
819.481	28074
819.622	28295
819.762	28554
819.903	28322
820.043	28272
820.184	28409
820.324	28219
820.465	28306
820.605	28188
820.746	28097
820.886	27972
821.026	28226
821.167	28112
821.307	28265
821.447	28143
821.588	27968
821.728	27827
821.868	27717
822.008	27618
822.149	27564
822.289	27583
822.429	27321
822.569	27230
822.709	27207
822.849	27104
822.99	26918
823.13	27032
823.27	26765
823.41	26796
823.55	26899
823.69	26857
823.83	26960
823.97	26944
824.11	26530
824.25	26590
824.389	26842
824.529	26807
824.669	26686
824.809	26880
824.949	26781
825.089	26769
825.228	26796
825.368	26648
825.508	26689
825.648	26625
825.787	26602
825.927	26674
826.067	26670
826.206	26667
826.346	26617
826.485	26689
826.625	26701
826.765	26823
826.904	26575
827.044	26313
827.183	26514
827.323	26248
827.462	26336
827.601	26301
827.741	26225
827.88	26469
828.02	26199
828.159	26233
828.298	26305
828.437	26412
828.577	26252
828.716	26389
828.855	26252
828.994	26024
829.134	26050
829.273	26107
829.412	25925
829.551	26005
829.69	25970
829.829	26008
829.968	26153
830.107	26050
830.246	26069
830.385	25932
830.524	25902
830.663	25871
830.802	25776
830.941	25655
831.08	25700
831.219	25658
831.357	25769
831.496	25818
831.635	25495
831.774	25571
831.913	25476
832.051	25369
832.19	25369
832.329	25487
832.467	25225
832.606	25293
832.744	25221
832.883	25388
833.022	25221
833.16	25293
833.299	25190
833.437	25324
833.576	25282
833.714	25384
833.852	25388
833.991	25460
834.129	25487
834.267	25263
834.406	25407
834.544	25483
834.682	25354
834.821	25278
834.959	25514
835.097	25285
835.235	25396
835.373	25377
835.511	25388
835.65	25141
835.788	25160
835.926	25069
836.064	25038
836.202	25156
836.34	25228
836.478	25293
836.615	25080
836.753	25145
836.891	25331
837.029	25247
837.167	25148
837.305	25152
837.443	24958
837.58	24947
837.718	25065
837.856	25000
837.993	24935
838.131	24844
838.269	24844
838.406	24901
838.544	24730
838.681	24563
838.819	24563
838.956	24437
839.094	24464
839.231	24570
839.369	24574
839.506	24928
839.643	24711
839.781	24410
839.918	24479
840.055	24361
840.193	24536
840.33	24350
840.467	24414
840.604	24441
840.742	24536
840.879	24266
841.016	24194
841.153	24182
841.29	24460
841.427	24277
841.564	24445
841.701	24334
841.838	24178
841.975	24285
842.112	24277
842.249	24194
842.385	24163
842.522	24311
842.659	24171
842.796	24155
842.933	24190
843.069	24030
843.206	24095
843.343	24083
843.479	24106
843.616	23996
843.752	23965
843.889	23817
844.025	24095
844.162	23745
844.298	23882
844.435	23961
844.571	23996
844.708	23885
844.844	24083
844.98	24091
845.117	23908
845.253	23855
845.389	23741
845.525	23741
845.661	23714
845.798	23680
845.934	23608
846.07	23589
846.206	23547
846.342	23718
846.478	23452
846.614	23467
846.75	23235
846.886	23299
847.022	23341
847.158	23383
847.294	23520
847.429	23387
847.565	23398
847.701	23558
847.837	22965
847.972	23025
848.108	23113
848.244	23250
848.379	22949
848.515	22923
848.65	22809
848.786	22934
848.921	22858
849.057	23010
849.192	23018
849.328	22938
849.463	22938
849.598	22938
849.734	22854
849.869	22748
850.004	22805
850.14	22786
850.275	22622
850.41	22550
850.545	22603
850.68	22694
850.815	22603
850.95	22588
851.085	22809
851.22	22729
851.355	22748
851.49	22554
851.625	22733
851.76	22672
851.895	22637
852.03	22626
852.165	22615
852.299	22824
852.434	22713
852.569	22694
852.703	22755
852.838	22702
852.973	22850
853.107	22862
853.242	22531
853.376	22428
853.511	22382
853.645	22573
853.78	22607
853.914	22527
854.048	22447
854.183	22493
854.317	22512
854.451	22519
854.585	22565
854.72	22382
854.854	22542
854.988	22447
855.122	22565
855.256	22375
855.39	22512
855.524	22615
855.658	22634
855.792	22588
855.926	22504
856.06	22519
856.194	22519
856.327	22474
856.461	22303
856.595	22443
856.729	22409
856.862	22660
856.996	22535
857.13	22618
857.263	22618
857.397	22577
857.53	22481
857.664	22577
857.797	22668
857.931	22474
858.064	22440
858.197	22573
858.331	22527
858.464	22348
858.597	22516
858.731	22462
858.864	22474
858.997	22424
859.13	22481
859.263	22432
859.396	22626
859.529	22550
859.662	22382
859.795	22466
859.928	22474
860.061	22519
860.194	22637
860.327	22736
860.46	22550
860.592	22645
860.725	22725
860.858	22713
860.99	22386
861.123	22413
861.256	22348
861.388	22493
861.521	23334
861.653	22329
861.786	22234
861.918	22287
862.05	22405
862.183	22394
862.315	22428
862.447	22504
862.58	22516
862.712	22257
862.844	22131
862.976	22371
863.108	22234
863.24	22793
863.372	22078
863.504	22135
863.636	22314
863.768	22131
863.9	22196
864.032	22112
864.164	22192
864.296	22177
864.428	22242
864.559	22234
864.691	22253
864.823	22226
864.954	22204
865.086	22169
865.217	22131
865.349	22048
865.48	22070
865.612	22048
865.743	22196
865.875	22070
866.006	22128
866.137	22010
866.269	22055
866.4	22070
866.531	22173
866.662	21979
866.793	21922
866.924	21991
867.055	21987
867.186	22067
867.317	22025
867.448	22002
867.579	22040
867.71	21903
867.841	21975
867.972	21930
868.103	22036
868.233	21930
868.364	22063
868.495	22109
868.625	22173
868.756	22226
868.886	22230
869.017	22337
869.147	22344
869.278	22348
869.408	22325
869.539	22291
869.669	22348
869.799	22272
869.929	22451
870.06	22306
870.19	22493
870.32	22546
870.45	22622
870.58	22637
870.71	22805
870.84	22744
870.97	22584
871.1	22580
871.23	22904
871.36	22896
871.489	22740
871.619	22744
871.749	22790
871.879	22809
872.008	23003
872.138	22957
872.267	22877
872.397	22850
872.526	22622
872.656	22706
872.785	22752
872.915	22820
873.044	22911
873.173	22896
873.303	22820
873.432	22927
873.561	22915
873.69	22953
873.819	22748
873.948	22911
874.077	22919
874.206	22934
874.335	22828
874.464	22961
874.593	23083
874.722	23041
874.851	23079
874.979	23231
875.108	23185
875.237	23117
875.365	22915
875.494	22980
875.623	23174
875.751	23124
875.88	22930
876.008	23273
876.136	23231
876.265	23410
876.393	23459
876.521	23642
876.65	23596
876.778	23387
876.906	23520
877.034	23471
877.162	23303
877.29	23406
877.418	23436
877.546	23368
877.674	23368
877.802	23345
877.93	23425
878.058	23258
878.185	23220
878.313	23414
878.441	23471
878.568	23204
878.696	23341
878.824	23467
878.951	23490
879.079	23566
879.206	23722
879.333	23630
879.461	23444
879.588	23459
879.715	23554
879.842	23661
879.97	23554
880.097	23200
880.224	23303
880.351	23231
880.478	23299
880.605	23254
880.732	23223
880.859	23486
880.986	23216
881.112	23174
881.239	23170
881.366	22976
881.493	22740
881.619	22885
881.746	22900
881.872	22824
881.999	22687
882.125	22774
882.252	22843
882.378	22805
882.505	22892
882.631	22710
882.757	22428
882.883	22626
883.01	22440
883.136	22386
883.262	22504
883.388	22375
883.514	22573
883.64	22569
883.766	22329
883.892	22207
884.018	22280
884.143	22329
884.269	22531
884.395	22249
884.52	22116
884.646	22173
884.772	22074
884.897	22021
885.023	22162
885.148	22265
885.274	22306
885.399	22211
885.524	22120
885.65	22166
885.775	22097
885.9	22105
886.025	22257
886.15	22059
886.275	22074
886.4	22017
886.525	22048
886.65	21998
886.775	22131
886.9	22200
887.025	22234
887.149	21911
887.274	21953
887.399	21857
887.523	21876
887.648	21660
887.773	21793
887.897	21918
888.021	21899
888.146	21884
888.27	21998
888.395	22025
888.519	21918
888.643	21857
888.767	21861
888.891	21842
889.015	21663
889.139	21732
889.263	21599
889.387	21694
889.511	21816
889.635	21797
889.759	21538
889.883	21709
890.006	21690
890.13	21713
890.254	21583
890.377	21591
890.501	21393
890.624	21317
890.748	21443
890.871	21336
890.995	21146
891.118	21142
891.241	21142
891.364	21355
891.488	21351
891.611	21138
891.734	21135
891.857	21256
891.98	21184
892.103	21192
892.226	21135
892.349	21146
892.471	20990
892.594	21146
892.717	21184
892.839	21169
892.962	21180
893.085	21169
893.207	21093
893.33	21058
893.452	20971
893.575	21123
893.697	21108
893.819	21218
893.941	21355
894.064	21260
894.186	21104
894.308	21032
894.43	21089
894.552	21245
894.674	21135
894.796	21043
894.918	21157
895.04	21051
895.161	21188
895.283	21112
895.405	20963
895.526	21093
895.648	21036
895.769	21173
895.891	21096
896.012	21154
896.134	21024
896.255	21119
896.376	21112
896.498	21100
896.619	21154
896.74	21184
896.861	21195
896.982	21428
897.103	21595
897.224	21336
897.345	21313
897.466	21203
897.587	21291
897.708	21260
897.828	21386
897.949	21291
898.07	21051
898.19	21173
898.311	21450
898.431	21325
898.552	21226
898.672	21382
898.792	21405
898.913	21264
899.033	21218
899.153	21089
899.273	20933
899.393	20952
899.513	20967
899.633	21085
899.753	20975
899.873	20944
899.993	20914
900.113	20956
900.232	20914
900.352	20807
900.472	20929
900.591	20754
900.711	20754
900.83	20746
900.95	20796
901.069	20883
901.189	20750
901.308	20423
901.427	20408
901.546	20389
901.665	20457
901.784	20210
901.904	20145
902.023	20172
902.141	19871
902.26	19776
902.379	19807
902.498	19860
902.617	19795
902.735	19887
902.854	19780
902.973	19586
903.091	19559
903.21	19460
903.328	19434
903.446	19335
903.565	19312
903.683	19339
903.801	19255
903.919	19110
904.038	19190
904.156	19175
904.274	19148
904.392	19061
904.51	18993
904.627	18970
904.745	19095
904.863	19137
904.981	18814
905.098	18696
905.216	18738
905.334	18798
905.451	18726
905.569	18650
905.686	18768
905.803	18646
905.921	18467
906.038	18601
906.155	18506
906.272	18403
906.389	18467
906.506	18228
906.623	18311
906.74	18182
906.857	18098
906.974	18232
907.091	18209
907.208	18334
907.324	18186
907.441	18091
907.557	17961
907.674	17939
907.79	17809
907.907	17897
908.023	17897
908.139	17973
908.256	17817
908.372	17889
908.488	17855
908.604	17718
908.72	17596
908.836	17756
908.952	17726
909.068	17676
909.184	17752
909.3	17653
909.415	17699
909.531	17619
909.647	17429
909.762	17345
909.878	17330
909.993	17280
910.108	17368
910.224	17185
910.339	17280
910.454	17288
910.57	17151
910.685	17094
910.8	17269
910.915	17318
911.03	17197
911.145	16987
911.259	16904
911.374	16938
911.489	16729
911.604	16934
911.718	16622
911.833	16729
911.947	16561
912.062	16447
912.176	16710
912.291	16702
912.405	16618
912.519	16881
912.633	16835
912.748	16672
912.862	16622
912.976	16451
913.09	16459
913.204	16508
913.318	16447
913.431	16573
913.545	16466
913.659	16538
913.772	16478
913.886	16322
914	16249
914.113	16379
914.226	16379
914.34	16356
914.453	16154
914.566	16284
914.68	16223
914.793	16173
914.906	15922
915.019	15838
915.132	15846
915.245	15781
915.358	15903
915.47	15903
915.583	15854
915.696	15884
915.809	15956
915.921	15937
916.034	15766
916.146	15808
916.259	15827
916.371	15876
916.483	15660
916.595	15641
916.708	15698
916.82	15622
916.932	15603
917.044	15641
917.156	15637
917.268	15507
917.38	15511
917.491	15496
917.603	15526
917.715	15462
917.826	15526
917.938	15466
918.049	15386
918.161	15439
918.272	15564
918.384	15553
918.495	15420
918.606	15313
918.717	15245
918.828	15359
918.939	15169
919.05	15157
919.161	15157
919.272	15028
919.383	15032
919.494	15302
919.604	15351
919.715	15195
919.826	15058
919.936	15214
920.047	15207
920.157	15154
920.267	15367
920.378	15157
920.488	15203
920.598	15393
920.708	15416
920.818	15321
920.928	15287
921.038	15412
921.148	15450
921.258	15081
921.368	15001
921.477	14800
921.587	14948
921.697	14823
921.806	14914
921.916	14689
922.025	14610
922.134	14598
922.244	14560
922.353	14488
922.462	14336
922.571	14328
922.68	14138
922.789	14115
922.898	14206
923.007	14111
923.116	14214
923.224	14199
923.333	14103
923.442	14001
923.55	13970
923.659	14008
923.767	13989
923.876	13890
923.984	14046
924.092	13936
924.201	13959
924.309	13925
924.417	13875
924.525	13833
924.633	13818
924.741	14739
924.849	13624
924.956	13769
925.064	13677
925.172	13468
925.279	13563
925.387	13567
925.494	13548
925.602	13632
925.709	13533
925.816	13449
925.924	13445
926.031	13601
926.138	13529
926.245	13483
926.352	13301
926.459	13620
926.566	13499
926.673	13350
926.779	13331
926.886	13285
926.993	13114
927.099	13156
927.206	13103
927.312	13019
927.419	13065
927.525	13076
927.631	13076
927.737	12973
927.843	12913
927.95	12871
928.056	12844
928.162	12939
928.267	12951
928.373	13540
928.479	12909
928.585	12760
928.69	12833
928.796	12905
928.901	12810
929.007	12631
929.112	12806
929.218	12734
929.323	12597
929.428	12601
929.533	12764
929.638	12570
929.743	12540
929.848	12627
929.953	12616
930.058	12479
930.163	12273
930.267	12334
930.372	12414
930.477	12289
930.581	12437
930.685	12243
930.79	12182
930.894	12201
930.998	12159
931.103	12277
931.207	11874
931.311	11843
931.415	11748
931.519	11493
931.623	11558
