Data from test_V78500241_1569.txt Node
Date: Fri Mar 25 15:52:40 CST 2022
User: usil
Spectrometer: V785-0024
Trigger mode: 0
Integration Time (sec): 4.000000E-1
Scans to average: 1
Nonlinearity correction enabled: false
Boxcar width: 0
Storing dark spectrum: false
XAxis mode: Wavelengths
Number of Pixels in Spectrum: 1024
>>>>>Begin Spectral Data<<<<<
801.071	28059
801.214	28063
801.356	27873
801.499	27888
801.641	27682
801.783	27591
801.926	27945
802.068	27599
802.211	27591
802.353	27591
802.496	27374
802.638	27291
802.78	27317
802.923	27336
803.065	27431
803.208	27310
803.35	27405
803.492	27542
803.635	27599
803.777	27469
803.919	27656
804.061	27930
804.204	27736
804.346	27561
804.488	27485
804.63	27542
804.773	27420
804.915	27561
805.057	27720
805.199	27648
805.341	27561
805.483	27610
805.626	27637
805.768	27656
805.91	27732
806.052	27572
806.194	27713
806.336	27998
806.478	27816
806.62	27660
806.762	27781
806.904	27987
807.046	28154
807.188	28101
807.33	28177
807.472	28306
807.614	28090
807.756	28246
807.898	28044
808.04	28048
808.182	27960
808.324	28063
808.465	28147
808.607	28181
808.749	28306
808.891	28436
809.033	28611
809.174	28367
809.316	28382
809.458	28367
809.6	28261
809.741	28512
809.883	28500
810.025	28683
810.166	28660
810.308	28634
810.45	28637
810.591	28630
810.733	28451
810.875	28303
811.016	28382
811.158	28265
811.299	28360
811.441	28660
811.582	28577
811.724	28424
811.865	28310
812.007	28375
812.148	28352
812.29	28344
812.431	28421
812.573	28660
812.714	28774
812.855	28812
812.997	28984
813.138	29109
813.279	28957
813.421	28896
813.562	28771
813.703	28603
813.845	28626
813.986	28371
814.127	28093
814.268	28162
814.41	28032
814.551	28055
814.692	28166
814.833	28010
814.974	28078
815.115	28135
815.256	28070
815.397	27922
815.539	27907
815.68	27816
815.821	27846
815.962	27907
816.103	27781
816.244	27876
816.385	27686
816.526	27553
816.666	27367
816.807	27374
816.948	27454
817.089	27462
817.23	27329
817.371	27367
817.512	27291
817.653	27363
817.793	27180
817.934	27310
818.075	27405
818.216	27332
818.356	27272
818.497	27165
818.638	27066
818.778	27055
818.919	27127
819.06	27195
819.2	27306
819.341	27351
819.481	27340
819.622	27523
819.762	27694
819.903	27633
820.043	27488
820.184	27450
820.324	27424
820.465	27625
820.605	27393
820.746	27504
820.886	27378
821.026	27496
821.167	27355
821.307	27534
821.447	27496
821.588	27272
821.728	27188
821.868	26937
822.008	26838
822.149	26880
822.289	26762
822.429	26617
822.569	26526
822.709	26446
822.849	26503
822.99	26389
823.13	26286
823.27	26225
823.41	26183
823.55	26145
823.69	26149
823.83	26176
823.97	26153
824.11	25856
824.25	26020
824.389	26031
824.529	26096
824.669	26043
824.809	26164
824.949	26107
825.089	26088
825.228	26084
825.368	25970
825.508	25936
825.648	25890
825.787	25955
825.927	25841
826.067	25856
826.206	25803
826.346	26054
826.485	25951
826.625	25955
826.765	26020
826.904	25871
827.044	25864
827.183	25632
827.323	25620
827.462	25628
827.601	25571
827.741	25556
827.88	25655
828.02	25441
828.159	25662
828.298	25624
828.437	25620
828.577	25472
828.716	25712
828.855	25483
828.994	25354
829.134	25426
829.273	25350
829.412	25225
829.551	25187
829.69	25247
829.829	25331
829.968	25339
830.107	25365
830.246	25400
830.385	25304
830.524	25263
830.663	25031
830.802	25080
830.941	24867
831.08	24920
831.219	25042
831.357	24966
831.496	25118
831.635	24920
831.774	24932
831.913	24673
832.051	24661
832.19	24703
832.329	24665
832.467	24525
832.606	24582
832.744	24521
832.883	24536
833.022	24483
833.16	24601
833.299	24505
833.437	24597
833.576	24639
833.714	24601
833.852	24696
833.991	24665
834.129	24707
834.267	24608
834.406	24559
834.544	24627
834.682	24639
834.821	24665
834.959	24722
835.097	24608
835.235	24711
835.373	24540
835.511	24642
835.65	24494
835.788	24677
835.926	24289
836.064	24315
836.202	24277
836.34	24597
836.478	24597
836.615	24456
836.753	24327
836.891	24540
837.029	24414
837.167	24399
837.305	24277
837.443	24338
837.58	24235
837.718	24376
837.856	24300
837.993	24186
838.131	24323
838.269	24186
838.406	24171
838.544	24106
838.681	23931
838.819	23988
838.956	23840
839.094	23760
839.231	23847
839.369	23931
839.506	24114
839.643	24022
839.781	23828
839.918	23752
840.055	23767
840.193	23805
840.33	23649
840.467	23783
840.604	23741
840.742	23912
840.879	23512
841.016	23642
841.153	23684
841.29	23828
841.427	23676
841.564	23600
841.701	23680
841.838	23573
841.975	23573
842.112	23512
842.249	23562
842.385	23444
842.522	23748
842.659	23490
842.796	23452
842.933	23429
843.069	23379
843.206	23242
843.343	23501
843.479	23398
843.616	23421
843.752	23189
843.889	23223
844.025	23410
844.162	23117
844.298	23208
844.435	23181
844.571	23197
844.708	23117
844.844	23280
844.98	23356
845.117	23391
845.253	23204
845.389	23041
845.525	23048
845.661	23037
845.798	22900
845.934	22873
846.07	22984
846.206	22961
846.342	23105
846.478	22835
846.614	22725
846.75	22672
846.886	22573
847.022	22656
847.158	22744
847.294	22573
847.429	22679
847.565	22630
847.701	22896
847.837	22481
847.972	22325
848.108	22607
848.244	22516
848.379	22200
848.515	22169
848.65	22295
848.786	22234
848.921	22341
849.057	22402
849.192	22470
849.328	22291
849.463	22291
849.598	22249
849.734	22147
849.869	22093
850.004	21964
850.14	21991
850.275	22013
850.41	21983
850.545	21869
850.68	21960
850.815	22059
850.95	22017
851.085	22215
851.22	22101
851.355	22150
851.49	21953
851.625	21899
851.76	21987
851.895	21937
852.03	21937
852.165	21827
852.299	22128
852.434	21983
852.569	22177
852.703	21991
852.838	22021
852.973	22101
853.107	22177
853.242	22013
853.376	21827
853.511	21793
853.645	21846
853.78	21922
853.914	21865
854.048	21709
854.183	21766
854.317	21793
854.451	22090
854.585	21869
854.72	21808
854.854	22044
854.988	21873
855.122	21911
855.256	21835
855.39	21857
855.524	21930
855.658	21854
855.792	21861
855.926	21903
856.06	21937
856.194	21846
856.327	21785
856.461	21835
856.595	21770
856.729	21755
856.862	21846
856.996	21876
857.13	21915
857.263	21994
857.397	21956
857.53	21835
857.664	21892
857.797	21926
857.931	22017
858.064	21972
858.197	22101
858.331	21705
858.464	21652
858.597	21629
858.731	21934
858.864	21766
858.997	21713
859.13	21899
859.263	21899
859.396	21842
859.529	21671
859.662	21720
859.795	21861
859.928	21873
860.061	21899
860.194	22101
860.327	21857
860.46	22002
860.592	21819
860.725	22006
860.858	21895
860.99	21789
861.123	21762
861.256	21850
861.388	21835
861.521	22451
861.653	21705
861.786	21728
861.918	21694
862.05	21690
862.183	21728
862.315	21736
862.447	21804
862.58	21701
862.712	21557
862.844	21485
862.976	21835
863.108	21694
863.24	22032
863.372	21412
863.504	21420
863.636	21473
863.768	21542
863.9	21671
864.032	21450
864.164	21454
864.296	21382
864.428	21663
864.559	21515
864.691	21675
864.823	21469
864.954	21580
865.086	21568
865.217	21477
865.349	21332
865.48	21454
865.612	21458
865.743	21542
865.875	21553
866.006	21393
866.137	21454
866.269	21378
866.4	21420
866.531	21321
866.662	21389
866.793	21397
866.924	21466
867.055	21408
867.186	21405
867.317	21272
867.448	21268
867.579	21344
867.71	21211
867.841	21363
867.972	21496
868.103	21245
868.233	21298
868.364	21310
868.495	21431
868.625	21663
868.756	21633
868.886	21572
869.017	21618
869.147	21679
869.278	21728
869.408	21660
869.539	21545
869.669	21679
869.799	21660
869.929	21701
870.06	21781
870.19	21949
870.32	21926
870.45	21991
870.58	22112
870.71	22166
870.84	22219
870.97	22029
871.1	22048
871.23	22215
871.36	22223
871.489	22063
871.619	22109
871.749	22177
871.879	22280
872.008	22299
872.138	22162
872.267	22204
872.397	22078
872.526	21953
872.656	22131
872.785	22048
872.915	22257
873.044	22394
873.173	22272
873.303	22299
873.432	22371
873.561	22341
873.69	22215
873.819	22276
873.948	22356
874.077	22272
874.206	22177
874.335	22223
874.464	22333
874.593	22569
874.722	22356
874.851	22516
874.979	22512
875.108	22417
875.237	22329
875.365	22291
875.494	22386
875.623	22607
875.751	22470
875.88	22436
876.008	22557
876.136	22622
876.265	22828
876.393	23006
876.521	22930
876.65	22961
876.778	22873
876.906	22877
877.034	22679
877.162	22664
877.29	22679
877.418	22713
877.546	22824
877.674	22896
877.802	22740
877.93	22869
878.058	22702
878.185	22675
878.313	22725
878.441	22900
878.568	22641
878.696	22759
878.824	22877
878.951	22896
879.079	22896
879.206	23102
879.333	22911
879.461	22839
879.588	22866
879.715	22824
879.842	23041
879.97	22961
880.097	22668
880.224	22516
880.351	22615
880.478	22557
880.605	22561
880.732	22596
880.859	22831
880.986	22519
881.112	22626
881.239	22481
881.366	22272
881.493	22162
881.619	22166
881.746	22150
881.872	22086
881.999	22044
882.125	22139
882.252	22188
882.378	22143
882.505	22299
882.631	22131
882.757	21983
882.883	21983
883.01	21842
883.136	21838
883.262	21694
883.388	21610
883.514	21861
883.64	21861
883.766	21778
883.892	21705
884.018	21694
884.143	21819
884.269	21937
884.395	21599
884.52	21428
884.646	21591
884.772	21435
884.897	21454
885.023	21511
885.148	21523
885.274	21739
885.399	21553
885.524	21420
885.65	21622
885.775	21561
885.9	21450
886.025	21667
886.15	21603
886.275	21462
886.4	21447
886.525	21431
886.65	21428
886.775	21469
886.9	21572
887.025	21732
887.149	21447
887.274	21241
887.399	21310
887.523	21332
887.648	21226
887.773	21066
887.897	21443
888.021	21317
888.146	21256
888.27	21272
888.395	21386
888.519	21313
888.643	21351
888.767	21325
888.891	21135
889.015	21074
889.139	21180
889.263	21085
889.387	21256
889.511	21237
889.635	21211
889.759	21009
889.883	21055
890.006	21077
890.13	21146
890.254	20868
890.377	20899
890.501	20731
890.624	20758
890.748	20929
890.871	20739
890.995	20701
891.118	20648
891.241	20682
891.364	20617
891.488	20781
891.611	20609
891.734	20735
891.857	20739
891.98	20686
892.103	20686
892.226	20716
892.349	20613
892.471	20514
892.594	20602
892.717	20648
892.839	20575
892.962	20571
893.085	20575
893.207	20511
893.33	20404
893.452	20385
893.575	20480
893.697	20446
893.819	20613
893.941	20777
894.064	20659
894.186	20355
894.308	20381
894.43	20587
894.552	20701
894.674	20568
894.796	20499
894.918	20518
895.04	20381
895.161	20484
895.283	20492
895.405	20473
895.526	20465
895.648	20495
895.769	20556
895.891	20533
896.012	20659
896.134	20549
896.255	20549
896.376	20530
896.498	20579
896.619	20549
896.74	20408
896.861	20545
896.982	20872
897.103	20857
897.224	20826
897.345	20708
897.466	20720
897.587	20743
897.708	20796
897.828	20743
897.949	20674
898.07	20514
898.19	20598
898.311	20716
898.431	20606
898.552	20826
898.672	20686
898.792	20899
898.913	20735
899.033	20465
899.153	20427
899.273	20423
899.393	20488
899.513	20514
899.633	20541
899.753	20423
899.873	20358
899.993	20488
900.113	20427
900.232	20492
900.352	20320
900.472	20362
900.591	20145
900.711	20259
900.83	20298
900.95	20252
901.069	20282
901.189	20145
901.308	19963
901.427	19917
901.546	19693
901.665	19917
901.784	19845
901.904	19719
902.023	19681
902.141	19415
902.26	19244
902.379	19400
902.498	19289
902.617	19434
902.735	19377
902.854	19343
902.973	19164
903.091	18977
903.21	18924
903.328	18962
903.446	18966
903.565	18768
903.683	18700
903.801	18688
903.919	18726
904.038	18639
904.156	18475
904.274	18589
904.392	18574
904.51	18441
904.627	18475
904.745	18502
904.863	18578
904.981	18365
905.098	18186
905.216	18220
905.334	18228
905.451	18194
905.569	18072
905.686	18281
905.803	18258
905.921	18026
906.038	18152
906.155	17980
906.272	17893
906.389	17893
906.506	17824
906.623	17847
906.74	17786
906.857	17562
906.974	17680
907.091	17889
907.208	17798
907.324	17802
907.441	17596
907.557	17505
907.674	17490
907.79	17353
907.907	17547
908.023	17520
908.139	17402
908.256	17334
908.372	17421
908.488	17330
908.604	17162
908.72	17239
908.836	17212
908.952	17162
909.068	17197
909.184	17204
909.3	17166
909.415	17159
909.531	17193
909.647	16976
909.762	16957
909.878	16828
909.993	16915
910.108	16809
910.224	16809
910.339	16797
910.454	16797
910.57	16683
910.685	16592
910.8	16866
910.915	16790
911.03	16679
911.145	16489
911.259	16443
911.374	16508
911.489	16421
911.604	16348
911.718	16158
911.833	16226
911.947	16215
912.062	16105
912.176	16185
912.291	16249
912.405	16265
912.519	16405
912.633	16310
912.748	16318
912.862	16188
912.976	16086
913.09	16032
913.204	15960
913.318	16036
913.431	16059
913.545	16181
913.659	16017
913.772	15953
913.886	15854
914	15899
914.113	15903
914.226	15968
914.34	15808
914.453	15629
914.566	15808
914.68	15698
914.793	15728
914.906	15523
915.019	15454
915.132	15336
915.245	15420
915.358	15477
915.47	15416
915.583	15431
915.696	15355
915.809	15622
915.921	15492
916.034	15287
916.146	15317
916.259	15306
916.371	15382
916.483	15374
916.595	15256
916.708	15321
916.82	15294
916.932	15252
917.044	15138
917.156	15176
917.268	15039
917.38	15203
917.491	14990
917.603	15127
917.715	15123
917.826	15203
917.938	15017
918.049	14838
918.161	15017
918.272	15142
918.384	15180
918.495	14948
918.606	14842
918.717	14735
918.828	14754
918.939	14800
919.05	14773
919.161	14739
919.272	14602
919.383	14659
919.494	14788
919.604	15005
919.715	14895
919.826	14727
919.936	14785
920.047	14895
920.157	14788
920.267	14975
920.378	14838
920.488	14788
920.598	14948
920.708	15104
920.818	14823
920.928	14937
921.038	15009
921.148	14967
921.258	14777
921.368	14621
921.477	14556
921.587	14499
921.697	14282
921.806	14461
921.916	14313
922.025	14214
922.134	14187
922.244	14096
922.353	14149
922.462	14046
922.571	13993
922.68	13826
922.789	13753
922.898	13849
923.007	13753
923.116	13799
923.224	13761
923.333	13750
923.442	13700
923.55	13693
923.659	13666
923.767	13636
923.876	13578
923.984	13594
924.092	13502
924.201	13601
924.309	13506
924.417	13571
924.525	13411
924.633	13415
924.741	14385
924.849	13266
924.956	13255
925.064	13240
925.172	13129
925.279	13076
925.387	13209
925.494	13232
925.602	13297
925.709	13240
925.816	13129
925.924	13183
926.031	13198
926.138	13076
926.245	13137
926.352	12954
926.459	13274
926.566	13152
926.673	12943
926.779	12916
926.886	12993
926.993	12776
927.099	12840
927.206	12783
927.312	12665
927.419	12760
927.525	12753
927.631	12798
927.737	12662
927.843	12669
927.95	12536
928.056	12616
928.162	12540
928.267	12646
928.373	13179
928.479	12688
928.585	12437
928.69	12566
928.796	12494
928.901	12494
929.007	12270
929.112	12414
929.218	12399
929.323	12334
929.428	12327
929.533	12471
929.638	12148
929.743	12243
929.848	12380
929.953	12270
930.058	11992
930.163	11969
930.267	12015
930.372	12049
930.477	11996
930.581	12102
930.685	11984
930.79	11885
930.894	11942
930.998	11794
931.103	11973
931.207	11505
931.311	11455
931.415	11429
931.519	11235
931.623	11311
