Data from test_V78500241_893.txt Node
Date: Fri Mar 25 15:47:59 CST 2022
User: usil
Spectrometer: V785-0024
Trigger mode: 0
Integration Time (sec): 4.000000E-1
Scans to average: 1
Nonlinearity correction enabled: false
Boxcar width: 0
Storing dark spectrum: false
XAxis mode: Wavelengths
Number of Pixels in Spectrum: 1024
>>>>>Begin Spectral Data<<<<<
801.071	28421
801.214	28188
801.356	28078
801.499	27956
801.641	27804
801.783	27934
801.926	27884
802.068	27914
802.211	27842
802.353	27762
802.496	27736
802.638	27595
802.78	27530
802.923	27675
803.065	27576
803.208	27507
803.35	27614
803.492	27747
803.635	27823
803.777	27713
803.919	27808
804.061	28120
804.204	27857
804.346	27743
804.488	27625
804.63	27861
804.773	27690
804.915	27800
805.057	27949
805.199	27762
805.341	28040
805.483	27949
805.626	27918
805.768	27880
805.91	27949
806.052	27994
806.194	27903
806.336	28166
806.478	28078
806.62	28063
806.762	28162
806.904	28265
807.046	28531
807.188	28504
807.33	28379
807.472	28504
807.614	28428
807.756	28382
807.898	28348
808.04	28272
808.182	28379
808.324	28306
808.465	28337
808.607	28485
808.749	28641
808.891	28866
809.033	28839
809.174	28683
809.316	28527
809.458	28637
809.6	28519
809.741	28721
809.883	28877
810.025	28980
810.166	28953
810.308	28904
810.45	29083
810.591	28999
810.733	28820
810.875	28710
811.016	28672
811.158	28535
811.299	28713
811.441	28953
811.582	29048
811.724	28755
811.865	28603
812.007	28717
812.148	28759
812.29	28786
812.431	28938
812.573	29018
812.714	29079
812.855	29296
812.997	29356
813.138	29490
813.279	29566
813.421	29326
813.562	29162
813.703	29033
813.845	28987
813.986	28687
814.127	28451
814.268	28295
814.41	28481
814.551	28341
814.692	28382
814.833	28356
814.974	28367
815.115	28379
815.256	28337
815.397	28246
815.539	28265
815.68	28162
815.821	28074
815.962	28169
816.103	28325
816.244	28162
816.385	28070
816.526	27949
816.666	27869
816.807	27599
816.948	27739
817.089	27831
817.23	27679
817.371	27774
817.512	27793
817.653	27713
817.793	27709
817.934	27557
818.075	27682
818.216	27854
818.356	27698
818.497	27583
818.638	27500
818.778	27431
818.919	27511
819.06	27618
819.2	27485
819.341	27736
819.481	27583
819.622	27869
819.762	28105
819.903	27975
820.043	27823
820.184	27793
820.324	27793
820.465	27835
820.605	27888
820.746	27918
820.886	27667
821.026	27892
821.167	27793
821.307	27884
821.447	27762
821.588	27709
821.728	27511
821.868	27340
822.008	27184
822.149	27058
822.289	27154
822.429	26986
822.569	26899
822.709	26804
822.849	26716
822.99	26777
823.13	26636
823.27	26613
823.41	26613
823.55	26446
823.69	26545
823.83	26511
823.97	26446
824.11	26233
824.25	26278
824.389	26358
824.529	26358
824.669	26408
824.809	26492
824.949	26415
825.089	26473
825.228	26450
825.368	26187
825.508	26092
825.648	26210
825.787	26259
825.927	26267
826.067	26240
826.206	26168
826.346	26191
826.485	26453
826.625	26035
826.765	26389
826.904	26195
827.044	26050
827.183	25978
827.323	25841
827.462	25970
827.601	25898
827.741	25921
827.88	26001
828.02	25818
828.159	25917
828.298	25811
828.437	25887
828.577	25875
828.716	26096
828.855	25852
828.994	25719
829.134	25635
829.273	25731
829.412	25487
829.551	25597
829.69	25674
829.829	25693
829.968	25753
830.107	25780
830.246	25674
830.385	25635
830.524	25533
830.663	25457
830.802	25377
830.941	25148
831.08	25194
831.219	25396
831.357	25396
831.496	25381
831.635	25118
831.774	25091
831.913	25179
832.051	25038
832.19	25126
832.329	24886
832.467	24924
832.606	24863
832.744	24882
832.883	24951
833.022	24882
833.16	24935
833.299	24970
833.437	25023
833.576	24985
833.714	24913
833.852	25012
833.991	25023
834.129	24996
834.267	25012
834.406	24996
834.544	25019
834.682	25004
834.821	24958
834.959	25091
835.097	24916
835.235	25019
835.373	25012
835.511	24951
835.65	24677
835.788	24856
835.926	24764
836.064	24639
836.202	24738
836.34	24981
836.478	24928
836.615	24779
836.753	24859
836.891	24833
837.029	24867
837.167	24787
837.305	24703
837.443	24692
837.58	24700
837.718	24719
837.856	24734
837.993	24559
838.131	24642
838.269	24395
838.406	24654
838.544	24452
838.681	24330
838.819	24129
838.956	24194
839.094	24057
839.231	24182
839.369	24319
839.506	24486
839.643	24315
839.781	24091
839.918	24030
840.055	24163
840.193	24057
840.33	24083
840.467	24057
840.604	24133
840.742	24384
840.879	23954
841.016	23961
841.153	24011
841.29	24182
841.427	24114
841.564	24133
841.701	24011
841.838	23912
841.975	23958
842.112	23965
842.249	23897
842.385	23752
842.522	23920
842.659	23798
842.796	23878
842.933	23687
843.069	23634
843.206	23832
843.343	23779
843.479	23775
843.616	23821
843.752	23516
843.889	23661
844.025	23764
844.162	23353
844.298	23627
844.435	23543
844.571	23497
844.708	23577
844.844	23726
844.98	23684
845.117	23672
845.253	23478
845.389	23455
845.525	23379
845.661	23459
845.798	23258
845.934	23265
846.07	23273
846.206	23227
846.342	23509
846.478	23299
846.614	23143
846.75	22961
846.886	22961
847.022	23090
847.158	23014
847.294	23060
847.429	22949
847.565	23048
847.701	23193
847.837	22736
847.972	22660
848.108	22805
848.244	22736
848.379	22683
848.515	22675
848.65	22592
848.786	22637
848.921	22531
849.057	22721
849.192	22740
849.328	22641
849.463	22561
849.598	22618
849.734	22329
849.869	22455
850.004	22470
850.14	22394
850.275	22459
850.41	22185
850.545	22295
850.68	22318
850.815	22470
850.95	22287
851.085	22512
851.22	22504
851.355	22390
851.49	22421
851.625	22398
851.76	22421
851.895	22219
852.03	22314
852.165	22386
852.299	22428
852.434	22394
852.569	22409
852.703	22386
852.838	22382
852.973	22504
853.107	22508
853.242	22337
853.376	22276
853.511	22188
853.645	22147
853.78	22333
853.914	22204
854.048	22124
854.183	22131
854.317	22200
854.451	22341
854.585	22207
854.72	22192
854.854	22185
854.988	22169
855.122	22097
855.256	21991
855.39	22211
855.524	22386
855.658	22173
855.792	22188
855.926	22219
856.06	22090
856.194	22284
856.327	22154
856.461	22051
856.595	22158
856.729	22109
856.862	22314
856.996	22204
857.13	22261
857.263	22219
857.397	22253
857.53	22196
857.664	22207
857.797	22181
857.931	22356
858.064	22181
858.197	22329
858.331	22173
858.464	22105
858.597	22002
858.731	22196
858.864	22177
858.997	22097
859.13	22192
859.263	22078
859.396	22261
859.529	22032
859.662	22131
859.795	22090
859.928	22211
860.061	22299
860.194	22432
860.327	22242
860.46	22185
860.592	22268
860.725	22322
860.858	22333
860.99	22181
861.123	22257
861.256	22196
861.388	22246
861.521	22915
861.653	21987
861.786	21842
861.918	22124
862.05	22010
862.183	22116
862.315	22086
862.447	22139
862.58	22070
862.712	21934
862.844	21865
862.976	21953
863.108	21888
863.24	22226
863.372	21781
863.504	21797
863.636	21854
863.768	22036
863.9	21937
864.032	21812
864.164	21850
864.296	21926
864.428	22036
864.559	21934
864.691	22006
864.823	21838
864.954	21827
865.086	21770
865.217	21835
865.349	21671
865.48	21705
865.612	21804
865.743	21861
865.875	21831
866.006	21709
866.137	21717
866.269	21835
866.4	21743
866.531	21759
866.662	21648
866.793	21675
866.924	21793
867.055	21694
867.186	21743
867.317	21720
867.448	21641
867.579	21732
867.71	21534
867.841	21633
867.972	21610
868.103	21644
868.233	21701
868.364	21663
868.495	21804
868.625	21911
868.756	22101
868.886	21797
869.017	21819
869.147	22002
869.278	22002
869.408	22055
869.539	21930
869.669	22067
869.799	22063
869.929	22067
870.06	22128
870.19	22337
870.32	22276
870.45	22310
870.58	22417
870.71	22550
870.84	22398
870.97	22352
871.1	22390
871.23	22508
871.36	22611
871.489	22379
871.619	22580
871.749	22523
871.879	22516
872.008	22641
872.138	22440
872.267	22641
872.397	22318
872.526	22398
872.656	22344
872.785	22371
872.915	22523
873.044	22535
873.173	22645
873.303	22611
873.432	22489
873.561	22698
873.69	22538
873.819	22512
873.948	22615
874.077	22584
874.206	22580
874.335	22622
874.464	22516
874.593	22812
874.722	22805
874.851	22873
874.979	22744
875.108	22778
875.237	22729
875.365	22660
875.494	22599
875.623	22809
875.751	22744
875.88	22790
876.008	22957
876.136	22889
876.265	23193
876.393	23216
876.521	23242
876.65	23189
876.778	23181
876.906	23071
877.034	23086
877.162	23098
877.29	23071
877.418	23124
877.546	23048
877.674	23140
877.802	23048
877.93	23147
878.058	23136
878.185	22911
878.313	23162
878.441	23132
878.568	22889
878.696	22968
878.824	23041
878.951	23280
879.079	23254
879.206	23315
879.333	23292
879.461	23250
879.588	23235
879.715	23220
879.842	23383
879.97	23105
880.097	23037
880.224	22873
880.351	22942
880.478	23041
880.605	22900
880.732	22862
880.859	23159
880.986	22987
881.112	22953
881.239	22774
881.366	22599
881.493	22550
881.619	22443
881.746	22599
881.872	22561
881.999	22474
882.125	22402
882.252	22656
882.378	22516
882.505	22497
882.631	22375
882.757	22204
882.883	22185
883.01	22223
883.136	22082
883.262	22017
883.388	21888
883.514	22204
883.64	22200
883.766	21926
883.892	21964
884.018	21998
884.143	22086
884.269	22341
884.395	22044
884.52	21747
884.646	21876
884.772	21785
884.897	21717
885.023	21800
885.148	21819
885.274	21918
885.399	21899
885.524	21736
885.65	21778
885.775	21827
885.9	21854
886.025	22002
886.15	21899
886.275	21739
886.4	21759
886.525	21743
886.65	21660
886.775	21656
886.9	21831
887.025	22021
887.149	21736
887.274	21652
887.399	21675
887.523	21538
887.648	21477
887.773	21348
887.897	21644
888.021	21557
888.146	21504
888.27	21633
888.395	21682
888.519	21603
888.643	21542
888.767	21629
888.891	21469
889.015	21389
889.139	21439
889.263	21367
889.387	21496
889.511	21519
889.635	21481
889.759	21462
889.883	21321
890.006	21317
890.13	21405
890.254	21256
890.377	21294
890.501	21142
890.624	21043
890.748	21081
890.871	21001
890.995	20990
891.118	20842
891.241	21032
891.364	20887
891.488	21039
891.611	20979
891.734	20914
891.857	20975
891.98	20880
892.103	20849
892.226	20921
892.349	20902
892.471	20674
892.594	20823
892.717	20902
892.839	20842
892.962	20849
893.085	20857
893.207	20765
893.33	20682
893.452	20792
893.575	20826
893.697	20743
893.819	20994
893.941	21024
894.064	20910
894.186	20697
894.308	20663
894.43	20819
894.552	20948
894.674	20781
894.796	20667
894.918	20735
895.04	20655
895.161	20796
895.283	20872
895.405	20659
895.526	20754
895.648	20758
895.769	20769
895.891	20823
896.012	20925
896.134	20777
896.255	20724
896.376	20716
896.498	20781
896.619	20853
896.74	20876
896.861	20826
896.982	21070
897.103	21287
897.224	21093
897.345	20933
897.466	20937
897.587	21081
897.708	21127
897.828	20941
897.949	21039
898.07	20765
898.19	20960
898.311	21009
898.431	20864
898.552	20849
898.672	21077
898.792	21043
898.913	20994
899.033	20857
899.153	20785
899.273	20716
899.393	20693
899.513	20819
899.633	20678
899.753	20667
899.873	20644
899.993	20632
900.113	20743
900.232	20678
900.352	20644
900.472	20617
900.591	20492
900.711	20492
900.83	20336
900.95	20667
901.069	20522
901.189	20343
901.308	20191
901.427	20126
901.546	20092
901.665	20103
901.784	20111
901.904	19868
902.023	19879
902.141	19662
902.26	19712
902.379	19635
902.498	19525
902.617	19487
902.735	19712
902.854	19552
902.973	19419
903.091	19274
903.21	19236
903.328	19270
903.446	19228
903.565	19023
903.683	19046
903.801	18973
903.919	19050
904.038	18924
904.156	18776
904.274	18897
904.392	18673
904.51	18749
904.627	18844
904.745	18802
904.863	18871
904.981	18582
905.098	18407
905.216	18551
905.334	18498
905.451	18494
905.569	18464
905.686	18486
905.803	18407
905.921	18262
906.038	18281
906.155	18235
906.272	18064
906.389	18121
906.506	17996
906.623	17961
906.74	17999
906.857	17783
906.974	17954
907.091	18072
907.208	18079
907.324	17996
907.441	17874
907.557	17786
907.674	17748
907.79	17752
907.907	17642
908.023	17668
908.139	17649
908.256	17596
908.372	17512
908.488	17630
908.604	17429
908.72	17436
908.836	17459
908.952	17398
909.068	17398
909.184	17528
909.3	17478
909.415	17459
909.531	17452
909.647	17204
909.762	17189
909.878	17029
909.993	17174
910.108	17216
910.224	17067
910.339	17105
910.454	16995
910.57	16927
910.685	16980
910.8	17322
910.915	17143
911.03	16919
911.145	16767
911.259	16710
911.374	16763
911.489	16675
911.604	16561
911.718	16413
911.833	16489
911.947	16310
912.062	16295
912.176	16535
912.291	16489
912.405	16417
912.519	16550
912.633	16634
912.748	16527
912.862	16565
912.976	16348
913.09	16284
913.204	16188
913.318	16390
913.431	16466
913.545	16303
913.659	16367
913.772	16226
913.886	16086
914	16029
914.113	16105
914.226	16249
914.34	16196
914.453	16029
914.566	16147
914.68	15892
914.793	15922
914.906	15781
915.019	15732
915.132	15641
915.245	15663
915.358	15766
915.47	15610
915.583	15667
915.696	15644
915.809	15812
915.921	15907
916.034	15625
916.146	15705
916.259	15526
916.371	15610
916.483	15633
916.595	15443
916.708	15496
916.82	15572
916.932	15454
917.044	15370
917.156	15374
917.268	15332
917.38	15382
917.491	15275
917.603	15336
917.715	15321
917.826	15401
917.938	15230
918.049	15180
918.161	15226
918.272	15393
918.384	15405
918.495	15283
918.606	15146
918.717	14990
918.828	15100
918.939	15241
919.05	15051
919.161	14998
919.272	14823
919.383	14910
919.494	15081
919.604	15218
919.715	15066
919.826	14853
919.936	15043
920.047	15036
920.157	14986
920.267	15199
920.378	15062
920.488	14944
920.598	15138
920.708	15264
920.818	15150
920.928	15039
921.038	15393
921.148	15306
921.258	15036
921.368	14868
921.477	14682
921.587	14674
921.697	14579
921.806	14644
921.916	14621
922.025	14431
922.134	14362
922.244	14320
922.353	14400
922.462	14172
922.571	14176
922.68	14062
922.789	13997
922.898	14073
923.007	13974
923.116	14039
923.224	13913
923.333	13993
923.442	13841
923.55	13746
923.659	13883
923.767	13890
923.876	13731
923.984	13837
924.092	13719
924.201	13746
924.309	13776
924.417	13742
924.525	13689
924.633	13616
924.741	14594
924.849	13495
924.956	13651
925.064	13445
925.172	13308
925.279	13422
925.387	13335
925.494	13381
925.602	13483
925.709	13548
925.816	13270
925.924	13460
926.031	13354
926.138	13339
926.245	13358
926.352	13312
926.459	13411
926.566	13396
926.673	13164
926.779	13171
926.886	13103
926.993	12958
927.099	12989
927.206	12958
927.312	12916
927.419	13034
927.525	13004
927.631	13069
927.737	12806
927.843	12779
927.95	12654
928.056	12802
928.162	12821
928.267	12840
928.373	13365
928.479	12787
928.585	12570
928.69	12738
928.796	12715
928.901	12654
929.007	12483
929.112	12589
929.218	12616
929.323	12509
929.428	12445
929.533	12536
929.638	12403
929.743	12525
929.848	12528
929.953	12464
930.058	12254
930.163	12133
930.267	12224
930.372	12258
930.477	12144
930.581	12304
930.685	12197
930.79	11984
930.894	12163
930.998	12015
931.103	12220
931.207	11805
931.311	11688
931.415	11604
931.519	11455
931.623	11379
