Data from test_V78500241_2593.txt Node
Date: Fri Mar 25 15:59:45 CST 2022
User: usil
Spectrometer: V785-0024
Trigger mode: 0
Integration Time (sec): 4.000000E-1
Scans to average: 1
Nonlinearity correction enabled: false
Boxcar width: 0
Storing dark spectrum: false
XAxis mode: Wavelengths
Number of Pixels in Spectrum: 1024
>>>>>Begin Spectral Data<<<<<
801.071	28588
801.214	28618
801.356	28375
801.499	28478
801.641	28257
801.783	28268
801.926	28379
802.068	28093
802.211	28162
802.353	28074
802.496	28032
802.638	27922
802.78	27873
802.923	27869
803.065	27766
803.208	27850
803.35	27987
803.492	28067
803.635	28166
803.777	27873
803.919	28124
804.061	28508
804.204	28204
804.346	28032
804.488	27972
804.63	28124
804.773	27956
804.915	28280
805.057	28341
805.199	28249
805.341	28318
805.483	28314
805.626	28223
805.768	28078
805.91	28363
806.052	28386
806.194	28215
806.336	28459
806.478	28265
806.62	28299
806.762	28550
806.904	28596
807.046	28835
807.188	28782
807.33	28793
807.472	28637
807.614	28816
807.756	28759
807.898	28694
808.04	28557
808.182	28596
808.324	28546
808.465	28660
808.607	28888
808.749	28961
808.891	28957
809.033	29178
809.174	29098
809.316	28930
809.458	28953
809.6	29025
809.741	28987
809.883	29185
810.025	29231
810.166	29143
810.308	29193
810.45	29242
810.591	29052
810.733	28869
810.875	28949
811.016	28843
811.158	28866
811.299	29018
811.441	29235
811.582	29147
811.724	28938
811.865	28904
812.007	29048
812.148	29025
812.29	29094
812.431	29132
812.573	29387
812.714	29277
812.855	29543
812.997	29680
813.138	29798
813.279	29600
813.421	29524
813.562	29547
813.703	29258
813.845	29273
813.986	28885
814.127	28896
814.268	28729
814.41	28744
814.551	28664
814.692	28736
814.833	28508
814.974	28516
815.115	28778
815.256	28733
815.397	28725
815.539	28512
815.68	28478
815.821	28546
815.962	28504
816.103	28455
816.244	28276
816.385	28379
816.526	28303
816.666	28105
816.807	28131
816.948	28002
817.089	28131
817.23	28032
817.371	27778
817.512	27892
817.653	27987
817.793	27968
817.934	28169
818.075	28032
818.216	27953
818.356	27975
818.497	27857
818.638	27797
818.778	27747
818.919	27736
819.06	27964
819.2	27869
819.341	28101
819.481	27941
819.622	28040
819.762	28314
819.903	28280
820.043	28280
820.184	28211
820.324	28032
820.465	28219
820.605	28162
820.746	28055
820.886	28078
821.026	28169
821.167	27926
821.307	28204
821.447	28055
821.588	27960
821.728	27728
821.868	27644
822.008	27405
822.149	27534
822.289	27477
822.429	27279
822.569	27176
822.709	27195
822.849	27058
822.99	27062
823.13	26921
823.27	27028
823.41	26933
823.55	26727
823.69	26807
823.83	26929
823.97	26693
824.11	26640
824.25	26735
824.389	26621
824.529	26712
824.669	26621
824.809	26731
824.949	26644
825.089	26823
825.228	26682
825.368	26473
825.508	26446
825.648	26522
825.787	26507
825.927	26503
826.067	26366
826.206	26549
826.346	26598
826.485	26537
826.625	26568
826.765	26686
826.904	26606
827.044	26317
827.183	26374
827.323	26328
827.462	26423
827.601	26332
827.741	26206
827.88	26305
828.02	26115
828.159	26252
828.298	26290
828.437	26153
828.577	26024
828.716	26271
828.855	26176
828.994	26005
829.134	25780
829.273	26054
829.412	25913
829.551	25978
829.69	25852
829.829	25917
829.968	26069
830.107	25849
830.246	25887
830.385	25906
830.524	25795
830.663	25689
830.802	25712
830.941	25430
831.08	25441
831.219	25677
831.357	25655
831.496	25639
831.635	25658
831.774	25559
831.913	25460
832.051	25304
832.19	25240
832.329	25434
832.467	25270
832.606	25194
832.744	25228
832.883	25225
833.022	25145
833.16	25164
833.299	25202
833.437	25335
833.576	25304
833.714	25289
833.852	25419
833.991	25388
834.129	25396
834.267	25247
834.406	25324
834.544	25259
834.682	25312
834.821	25209
834.959	25438
835.097	25198
835.235	25324
835.373	25244
835.511	25088
835.65	25145
835.788	25236
835.926	25053
836.064	24905
836.202	24920
836.34	25072
836.478	25331
836.615	25069
836.753	25088
836.891	25133
837.029	25126
837.167	25019
837.305	24962
837.443	24966
837.58	24928
837.718	24928
837.856	24817
837.993	24943
838.131	24878
838.269	24837
838.406	24814
838.544	24738
838.681	24483
838.819	24547
838.956	24395
839.094	24418
839.231	24509
839.369	24608
839.506	24840
839.643	24536
839.781	24391
839.918	24285
840.055	24376
840.193	24194
840.33	24235
840.467	24475
840.604	24311
840.742	24513
840.879	24216
841.016	24239
841.153	24205
841.29	24235
841.427	24311
841.564	24334
841.701	24327
841.838	24235
841.975	24095
842.112	24159
842.249	24205
842.385	24060
842.522	24266
842.659	24273
842.796	23920
842.933	24041
843.069	23935
843.206	23965
843.343	24098
843.479	23996
843.616	24026
843.752	23832
843.889	23923
844.025	23984
844.162	23821
844.298	23863
844.435	23817
844.571	23821
844.708	23737
844.844	24072
844.98	23961
845.117	23988
845.253	23756
845.389	23802
845.525	23638
845.661	23615
845.798	23452
845.934	23570
846.07	23592
846.206	23600
846.342	23592
846.478	23551
846.614	23337
846.75	23193
846.886	23372
847.022	23360
847.158	23410
847.294	23246
847.429	23334
847.565	23185
847.701	23592
847.837	22957
847.972	23041
848.108	23174
848.244	23121
848.379	22854
848.515	22987
848.65	22805
848.786	22919
848.921	22892
849.057	22900
849.192	22961
849.328	22824
849.463	22824
849.598	22873
849.734	22790
849.869	22774
850.004	22622
850.14	22752
850.275	22679
850.41	22478
850.545	22611
850.68	22580
850.815	22679
850.95	22596
851.085	22858
851.22	22736
851.355	22637
851.49	22691
851.625	22489
851.76	22645
851.895	22508
852.03	22546
852.165	22569
852.299	22645
852.434	22637
852.569	22577
852.703	22550
852.838	22656
852.973	22793
853.107	22774
853.242	22645
853.376	22443
853.511	22333
853.645	22352
853.78	22675
853.914	22531
854.048	22466
854.183	22386
854.317	22508
854.451	22668
854.585	22478
854.72	22447
854.854	22561
854.988	22303
855.122	22493
855.256	22284
855.39	22382
855.524	22546
855.658	22527
855.792	22443
855.926	22447
856.06	22516
856.194	22573
856.327	22432
856.461	22424
856.595	22436
856.729	22428
856.862	22512
856.996	22516
857.13	22573
857.263	22478
857.397	22455
857.53	22310
857.664	22428
857.797	22523
857.931	22660
858.064	22569
858.197	22592
858.331	22466
858.464	22474
858.597	22478
858.731	22554
858.864	22402
858.997	22481
859.13	22382
859.263	22405
859.396	22489
859.529	22493
859.662	22493
859.795	22504
859.928	22428
860.061	22584
860.194	22771
860.327	22584
860.46	22455
860.592	22500
860.725	22687
860.858	22580
860.99	22382
861.123	22348
861.256	22348
861.388	22265
861.521	23025
861.653	22200
861.786	22322
861.918	22242
862.05	22390
862.183	22459
862.315	22402
862.447	22508
862.58	22356
862.712	22265
862.844	22215
862.976	22261
863.108	22272
863.24	22577
863.372	22150
863.504	22234
863.636	22173
863.768	22211
863.9	22261
864.032	22055
864.164	22181
864.296	22055
864.428	22390
864.559	22219
864.691	22234
864.823	22268
864.954	22082
865.086	22128
865.217	22135
865.349	21987
865.48	21983
865.612	22048
865.743	22200
865.875	22109
866.006	21956
866.137	22002
866.269	21956
866.4	22139
866.531	22109
866.662	22013
866.793	21854
866.924	22086
867.055	21972
867.186	22086
867.317	21945
867.448	21789
867.579	21903
867.71	21949
867.841	21865
867.972	22048
868.103	21960
868.233	22063
868.364	21964
868.495	22101
868.625	22299
868.756	22318
868.886	22169
869.017	22181
869.147	22303
869.278	22417
869.408	22268
869.539	22181
869.669	22272
869.799	22360
869.929	22322
870.06	22242
870.19	22538
870.32	22413
870.45	22493
870.58	22527
870.71	22630
870.84	22687
870.97	22615
871.1	22569
871.23	22812
871.36	22927
871.489	22752
871.619	22904
871.749	22854
871.879	22885
872.008	22961
872.138	22911
872.267	22778
872.397	22782
872.526	22683
872.656	22664
872.785	22599
872.915	22873
873.044	22942
873.173	22896
873.303	23033
873.432	22881
873.561	23083
873.69	22904
873.819	22923
873.948	22961
874.077	22911
874.206	22725
874.335	22892
874.464	22957
874.593	23060
874.722	22965
874.851	23136
874.979	22919
875.108	22995
875.237	23022
875.365	22908
875.494	23071
875.623	23113
875.751	23003
875.88	22923
876.008	23178
876.136	23303
876.265	23410
876.393	23676
876.521	23531
876.65	23535
876.778	23383
876.906	23452
877.034	23459
877.162	23307
877.29	23315
877.418	23421
877.546	23387
877.674	23471
877.802	23417
877.93	23337
878.058	23490
878.185	23189
878.313	23246
878.441	23368
878.568	23220
878.696	23353
878.824	23467
878.951	23429
879.079	23570
879.206	23649
879.333	23570
879.461	23414
879.588	23421
879.715	23562
879.842	23676
879.97	23474
880.097	23151
880.224	23265
880.351	23299
880.478	23197
880.605	23147
880.732	23269
880.859	23501
880.986	23185
881.112	23223
881.239	23094
881.366	22995
881.493	22801
881.619	22733
881.746	22976
881.872	22664
881.999	22774
882.125	22683
882.252	22862
882.378	22713
882.505	22839
882.631	22664
882.757	22516
882.883	22538
883.01	22516
883.136	22497
883.262	22306
883.388	22421
883.514	22382
883.64	22500
883.766	22443
883.892	22169
884.018	22299
884.143	22447
884.269	22455
884.395	22143
884.52	22093
884.646	21998
884.772	21922
884.897	22006
885.023	22143
885.148	22234
885.274	22188
885.399	22032
885.524	22116
885.65	22109
885.775	22135
885.9	22025
886.025	22329
886.15	22070
886.275	22105
886.4	21972
886.525	22109
886.65	22010
886.775	21968
886.9	22154
887.025	22253
887.149	22051
887.274	21854
887.399	21892
887.523	21804
887.648	21873
887.773	21835
887.897	21953
888.021	21789
888.146	21846
888.27	21911
888.395	21922
888.519	21953
888.643	21937
888.767	21816
888.891	21705
889.015	21625
889.139	21698
889.263	21679
889.387	21759
889.511	21804
889.635	21671
889.759	21766
889.883	21637
890.006	21724
890.13	21709
890.254	21534
890.377	21591
890.501	21279
890.624	21321
890.748	21359
890.871	21157
890.995	21157
891.118	21150
891.241	21211
891.364	21214
891.488	21230
891.611	21161
891.734	21173
891.857	21370
891.98	21131
892.103	21218
892.226	21135
892.349	21024
892.471	20941
892.594	21116
892.717	21237
892.839	21032
892.962	21013
893.085	21108
893.207	21036
893.33	20933
893.452	21051
893.575	21108
893.697	20990
893.819	21245
893.941	21211
894.064	21203
894.186	21066
894.308	20986
894.43	21245
894.552	21214
894.674	21077
894.796	21062
894.918	20994
895.04	20982
895.161	21077
895.283	21100
895.405	21085
895.526	21093
895.648	20944
895.769	21062
895.891	21108
896.012	21203
896.134	21039
896.255	21032
896.376	20963
896.498	21005
896.619	21017
896.74	21020
896.861	21176
896.982	21386
897.103	21504
897.224	21233
897.345	21264
897.466	21173
897.587	21321
897.708	21321
897.828	21291
897.949	21096
898.07	21150
898.19	21268
898.311	21298
898.431	21192
898.552	21184
898.672	21218
898.792	21287
898.913	21287
899.033	21154
899.153	20941
899.273	20971
899.393	20925
899.513	20941
899.633	20960
899.753	20937
899.873	20876
899.993	21047
900.113	20868
900.232	20979
900.352	20872
900.472	20804
900.591	20731
900.711	20826
900.83	20648
900.95	20895
901.069	20708
901.189	20693
901.308	20393
901.427	20377
901.546	20259
901.665	20275
901.784	20358
901.904	20134
902.023	20065
902.141	19944
902.26	19814
902.379	19955
902.498	19879
902.617	19769
902.735	19868
902.854	19753
902.973	19639
903.091	19575
903.21	19506
903.328	19514
903.446	19373
903.565	19392
903.683	19316
903.801	19190
903.919	19304
904.038	19240
904.156	19095
904.274	19110
904.392	19065
904.51	19080
904.627	19065
904.745	18943
904.863	19046
904.981	18871
905.098	18738
905.216	18791
905.334	18745
905.451	18760
905.569	18703
905.686	18734
905.803	18555
905.921	18414
906.038	18570
906.155	18509
906.272	18460
906.389	18350
906.506	18197
906.623	18239
906.74	18186
906.857	18129
906.974	18201
907.091	18224
907.208	18285
907.324	18209
907.441	18098
907.557	17897
907.674	17977
907.79	17939
907.907	17965
908.023	17866
908.139	17855
908.256	18015
908.372	17882
908.488	17783
908.604	17623
908.72	17619
908.836	17767
908.952	17672
909.068	17665
909.184	17661
909.3	17600
909.415	17710
909.531	17619
909.647	17417
909.762	17318
909.878	17353
909.993	17322
910.108	17315
910.224	17273
910.339	17280
910.454	17220
910.57	17155
910.685	17181
910.8	17406
910.915	17307
911.03	17185
911.145	16995
911.259	17041
911.374	16949
911.489	16885
911.604	16805
911.718	16687
911.833	16740
911.947	16580
912.062	16569
912.176	16702
912.291	16717
912.405	16641
912.519	16809
912.633	16850
912.748	16782
912.862	16611
912.976	16478
913.09	16382
913.204	16367
913.318	16523
913.431	16531
913.545	16558
913.659	16569
913.772	16417
913.886	16360
914	16223
914.113	16303
914.226	16443
914.34	16360
914.453	16253
914.566	16348
914.68	16116
914.793	16173
914.906	16044
915.019	15899
915.132	15778
915.245	15819
915.358	15907
915.47	15918
915.583	15819
915.696	15797
915.809	15934
915.921	15968
916.034	15759
916.146	15709
916.259	15717
916.371	15812
916.483	15812
916.595	15709
916.708	15705
916.82	15656
916.932	15534
917.044	15580
917.156	15504
917.268	15458
917.38	15542
917.491	15564
917.603	15538
917.715	15622
917.826	15587
917.938	15367
918.049	15336
918.161	15431
918.272	15519
918.384	15538
918.495	15386
918.606	15268
918.717	15218
918.828	15245
918.939	15363
919.05	15097
919.161	15127
919.272	15043
919.383	15100
919.494	15298
919.604	15283
919.715	15169
919.826	15085
919.936	15119
920.047	15214
920.157	15146
920.267	15378
920.378	15192
920.488	15249
920.598	15344
920.708	15393
920.818	15329
920.928	15382
921.038	15507
921.148	15211
921.258	15055
921.368	15085
921.477	14986
921.587	14887
921.697	14720
921.806	14925
921.916	14731
922.025	14579
922.134	14492
922.244	14450
922.353	14511
922.462	14415
922.571	14301
922.68	14210
922.789	14046
922.898	14111
923.007	14065
923.116	14149
923.224	14092
923.333	14119
923.442	13978
923.55	14008
923.659	13967
923.767	13989
923.876	14027
923.984	13951
924.092	13917
924.201	13898
924.309	14008
924.417	13967
924.525	13830
924.633	13772
924.741	14731
924.849	13719
924.956	13662
925.064	13575
925.172	13571
925.279	13476
925.387	13548
925.494	13624
925.602	13704
925.709	13670
925.816	13316
925.924	13506
926.031	13518
926.138	13434
926.245	13529
926.352	13384
926.459	13476
926.566	13483
926.673	13419
926.779	13251
926.886	13270
926.993	13160
927.099	13065
927.206	12943
927.312	12977
927.419	13126
927.525	13084
927.631	13095
927.737	12943
927.843	12981
927.95	12798
928.056	12848
928.162	12935
928.267	13053
928.373	13464
928.479	12977
928.585	12688
928.69	12859
928.796	12833
928.901	12722
929.007	12635
929.112	12741
929.218	12642
929.323	12593
929.428	12578
929.533	12783
929.638	12532
929.743	12532
929.848	12563
929.953	12452
930.058	12467
930.163	12289
930.267	12239
930.372	12414
930.477	12273
930.581	12441
930.685	12334
930.79	12129
930.894	12144
930.998	12159
931.103	12350
931.207	11923
931.311	11863
931.415	11802
931.519	11448
931.623	11532
