Data from test_V78500241_3149.txt Node
Date: Fri Mar 25 16:03:36 CST 2022
User: usil
Spectrometer: V785-0024
Trigger mode: 0
Integration Time (sec): 4.000000E-1
Scans to average: 1
Nonlinearity correction enabled: false
Boxcar width: 0
Storing dark spectrum: false
XAxis mode: Wavelengths
Number of Pixels in Spectrum: 1024
>>>>>Begin Spectral Data<<<<<
801.071	28280
801.214	28310
801.356	28051
801.499	28059
801.641	27838
801.783	27876
801.926	27903
802.068	27751
802.211	27865
802.353	27755
802.496	27652
802.638	27466
802.78	27553
802.923	27519
803.065	27367
803.208	27393
803.35	27526
803.492	27633
803.635	27812
803.777	27515
803.919	27770
804.061	28093
804.204	27804
804.346	27660
804.488	27751
804.63	27808
804.773	27781
804.915	27732
805.057	27835
805.199	27724
805.341	27774
805.483	27838
805.626	27785
805.768	27808
805.91	27819
806.052	27934
806.194	27846
806.336	28025
806.478	28040
806.62	28006
806.762	28025
806.904	28185
807.046	28390
807.188	28226
807.33	28451
807.472	28379
807.614	28253
807.756	28424
807.898	28112
808.04	28128
808.182	28021
808.324	28234
808.465	28261
808.607	28375
808.749	28584
808.891	28664
809.033	28725
809.174	28630
809.316	28557
809.458	28550
809.6	28478
809.741	28611
809.883	28622
810.025	28885
810.166	28885
810.308	28729
810.45	28885
810.591	28736
810.733	28618
810.875	28542
811.016	28519
811.158	28360
811.299	28888
811.441	28752
811.582	28679
811.724	28630
811.865	28577
812.007	28485
812.148	28493
812.29	28713
812.431	28888
812.573	28984
812.714	28968
812.855	29033
812.997	29155
813.138	29128
813.279	29288
813.421	29094
813.562	29010
813.703	28892
813.845	28698
813.986	28557
814.127	28352
814.268	28234
814.41	28318
814.551	28318
814.692	28177
814.833	28215
814.974	28219
815.115	28276
815.256	28242
815.397	28059
815.539	28226
815.68	28147
815.821	27994
815.962	28063
816.103	28124
816.244	28006
816.385	27983
816.526	27857
816.666	27808
816.807	27652
816.948	27629
817.089	27755
817.23	27633
817.371	27633
817.512	27603
817.653	27614
817.793	27447
817.934	27549
818.075	27572
818.216	27553
818.356	27477
818.497	27420
818.638	27226
818.778	27291
818.919	27374
819.06	27443
819.2	27549
819.341	27568
819.481	27553
819.622	27762
819.762	27907
819.903	27781
820.043	27819
820.184	27698
820.324	27778
820.465	27888
820.605	27587
820.746	27610
820.886	27519
821.026	27800
821.167	27492
821.307	27663
821.447	27534
821.588	27412
821.728	27443
821.868	27306
822.008	27096
822.149	27150
822.289	26990
822.429	26769
822.569	26845
822.709	26743
822.849	26598
822.99	26564
823.13	26511
823.27	26480
823.41	26275
823.55	26355
823.69	26396
823.83	26488
823.97	26351
824.11	26294
824.25	26225
824.389	26202
824.529	26313
824.669	26122
824.809	26244
824.949	26267
825.089	26332
825.228	26256
825.368	26012
825.508	26058
825.648	26081
825.787	26039
825.927	26088
826.067	26100
826.206	26119
826.346	26119
826.485	26180
826.625	26077
826.765	26290
826.904	26077
827.044	25894
827.183	25856
827.323	25738
827.462	25814
827.601	25765
827.741	25868
827.88	25814
828.02	25746
828.159	25708
828.298	25807
828.437	25856
828.577	25704
828.716	26046
828.855	25594
828.994	25586
829.134	25430
829.273	25601
829.412	25491
829.551	25441
829.69	25525
829.829	25647
829.968	25537
830.107	25605
830.246	25434
830.385	25289
830.524	25392
830.663	25251
830.802	25156
830.941	25107
831.08	24985
831.219	25000
831.357	25259
831.496	25255
831.635	25141
831.774	24920
831.913	25072
832.051	24802
832.19	24947
832.329	24791
832.467	24909
832.606	24768
832.744	24715
832.883	24627
833.022	24703
833.16	24814
833.299	24856
833.437	24890
833.576	24711
833.714	24863
833.852	24840
833.991	24909
834.129	24837
834.267	24878
834.406	24791
834.544	24897
834.682	24817
834.821	24730
834.959	24962
835.097	24795
835.235	24951
835.373	24817
835.511	24779
835.65	24741
835.788	24650
835.926	24623
836.064	24437
836.202	24525
836.34	24730
836.478	24776
836.615	24719
836.753	24639
836.891	24654
837.029	24593
837.167	24544
837.305	24525
837.443	24505
837.58	24574
837.718	24612
837.856	24521
837.993	24422
838.131	24426
838.269	24315
838.406	24384
838.544	24407
838.681	24194
838.819	24064
838.956	23912
839.094	23912
839.231	24038
839.369	24133
839.506	24247
839.643	24292
839.781	24011
839.918	23847
840.055	23904
840.193	23855
840.33	23771
840.467	23912
840.604	24041
840.742	24076
840.879	23756
841.016	23828
841.153	23794
841.29	23897
841.427	23748
841.564	23882
841.701	23836
841.838	23863
841.975	23748
842.112	23775
842.249	23691
842.385	23638
842.522	23798
842.659	23661
842.796	23646
842.933	23592
843.069	23665
843.206	23535
843.343	23646
843.479	23611
843.616	23547
843.752	23360
843.889	23376
844.025	23471
844.162	23406
844.298	23421
844.435	23421
844.571	23349
844.708	23326
844.844	23581
844.98	23493
845.117	23608
845.253	23376
845.389	23337
845.525	23307
845.661	23216
845.798	23075
845.934	23151
846.07	23083
846.206	23071
846.342	23341
846.478	23208
846.614	22847
846.75	22858
846.886	22866
847.022	22915
847.158	22850
847.294	22904
847.429	22904
847.565	22820
847.701	23025
847.837	22561
847.972	22744
848.108	22675
848.244	22755
848.379	22459
848.515	22432
848.65	22394
848.786	22516
848.921	22481
849.057	22634
849.192	22421
849.328	22462
849.463	22455
849.598	22440
849.734	22367
849.869	22348
850.004	22192
850.14	22348
850.275	22268
850.41	22169
850.545	22067
850.68	22135
850.815	22219
850.95	22093
851.085	22352
851.22	22295
851.355	22268
851.49	22147
851.625	22120
851.76	22158
851.895	22169
852.03	22112
852.165	22246
852.299	22314
852.434	22322
852.569	22226
852.703	22192
852.838	22204
852.973	22299
853.107	22382
853.242	22242
853.376	22120
853.511	21876
853.645	21934
853.78	22063
853.914	22048
854.048	21968
854.183	22059
854.317	22029
854.451	22162
854.585	22044
854.72	22120
854.854	22074
854.988	21956
855.122	21975
855.256	22013
855.39	22097
855.524	22101
855.658	22029
855.792	22150
855.926	22059
856.06	22070
856.194	22196
856.327	21987
856.461	21998
856.595	21941
856.729	21979
856.862	22185
856.996	22154
857.13	22101
857.263	22093
857.397	22158
857.53	21956
857.664	22101
857.797	22150
857.931	22116
858.064	22139
858.197	22093
858.331	21907
858.464	22010
858.597	21949
858.731	22116
858.864	22025
858.997	21880
859.13	22051
859.263	22036
859.396	22131
859.529	22025
859.662	22006
859.795	21964
859.928	22036
860.061	22120
860.194	22280
860.327	22109
860.46	22040
860.592	22169
860.725	22230
860.858	22204
860.99	22128
861.123	22040
861.256	21964
861.388	21895
861.521	22653
861.653	21918
861.786	21835
861.918	21850
862.05	21979
862.183	22006
862.315	22086
862.447	21987
862.58	21979
862.712	21671
862.844	21827
862.976	21861
863.108	21728
863.24	22093
863.372	21846
863.504	21736
863.636	21789
863.768	21797
863.9	21789
864.032	21709
864.164	21774
864.296	21816
864.428	21835
864.559	21724
864.691	21816
864.823	21873
864.954	21698
865.086	21781
865.217	21622
865.349	21557
865.48	21694
865.612	21675
865.743	21831
865.875	21660
866.006	21534
866.137	21660
866.269	21633
866.4	21534
866.531	21656
866.662	21587
866.793	21652
866.924	21431
867.055	21625
867.186	21523
867.317	21561
867.448	21447
867.579	21526
867.71	21420
867.841	21450
867.972	21568
868.103	21572
868.233	21580
868.364	21553
868.495	21705
868.625	21728
868.756	21892
868.886	21854
869.017	21751
869.147	21850
869.278	21838
869.408	21816
869.539	21857
869.669	21873
869.799	21766
869.929	21907
870.06	21876
870.19	22112
870.32	22093
870.45	22169
870.58	22253
870.71	22428
870.84	22253
870.97	22181
871.1	22238
871.23	22337
871.36	22291
871.489	22386
871.619	22409
871.749	22447
871.879	22542
872.008	22546
872.138	22459
872.267	22398
872.397	22207
872.526	22188
872.656	22291
872.785	22230
872.915	22432
873.044	22447
873.173	22409
873.303	22470
873.432	22474
873.561	22584
873.69	22466
873.819	22417
873.948	22542
874.077	22413
874.206	22352
874.335	22459
874.464	22565
874.593	22702
874.722	22596
874.851	22767
874.979	22634
875.108	22702
875.237	22687
875.365	22459
875.494	22531
875.623	22656
875.751	22664
875.88	22816
876.008	22774
876.136	22744
876.265	23018
876.393	23098
876.521	23075
876.65	23124
876.778	23033
876.906	22911
877.034	22980
877.162	22984
877.29	23018
877.418	23166
877.546	23044
877.674	23037
877.802	23071
877.93	22911
878.058	22965
878.185	22877
878.313	22908
878.441	22957
878.568	22904
878.696	22942
878.824	22923
878.951	23041
879.079	23159
879.206	23181
879.333	23048
879.461	23086
879.588	23033
879.715	23204
879.842	23140
879.97	23044
880.097	22927
880.224	22809
880.351	22839
880.478	22843
880.605	22748
880.732	22733
880.859	23071
880.986	22767
881.112	22839
881.239	22748
881.366	22569
881.493	22379
881.619	22390
881.746	22432
881.872	22417
881.999	22348
882.125	22287
882.252	22379
882.378	22371
882.505	22459
882.631	22230
882.757	22162
882.883	22082
883.01	22207
883.136	21880
883.262	21945
883.388	21789
883.514	22048
883.64	22135
883.766	22021
883.892	21827
884.018	21941
884.143	22139
884.269	22090
884.395	21785
884.52	21770
884.646	21717
884.772	21679
884.897	21568
885.023	21770
885.148	21789
885.274	21865
885.399	21835
885.524	21751
885.65	21709
885.775	21804
885.9	21652
886.025	21614
886.15	21789
886.275	21614
886.4	21644
886.525	21724
886.65	21633
886.775	21637
886.9	21755
887.025	21934
887.149	21625
887.274	21374
887.399	21557
887.523	21469
887.648	21424
887.773	21275
887.897	21473
888.021	21549
888.146	21488
888.27	21679
888.395	21481
888.519	21488
888.643	21416
888.767	21519
888.891	21378
889.015	21283
889.139	21275
889.263	21252
889.387	21367
889.511	21386
889.635	21405
889.759	21226
889.883	21260
890.006	21329
890.13	21355
890.254	21233
890.377	21291
890.501	21066
890.624	21028
890.748	21020
890.871	20937
890.995	20914
891.118	20800
891.241	20853
891.364	20823
891.488	20861
891.611	21001
891.734	20842
891.857	20902
891.98	20899
892.103	20830
892.226	20899
892.349	20655
892.471	20579
892.594	20826
892.717	20883
892.839	20625
892.962	20769
893.085	20823
893.207	20735
893.33	20552
893.452	20594
893.575	20640
893.697	20781
893.819	20868
893.941	20880
894.064	20891
894.186	20678
894.308	20545
894.43	20750
894.552	20868
894.674	20906
894.796	20651
894.918	20606
895.04	20689
895.161	20678
895.283	20834
895.405	20632
895.526	20682
895.648	20659
895.769	20750
895.891	20705
896.012	20705
896.134	20754
896.255	20697
896.376	20560
896.498	20811
896.619	20792
896.74	20731
896.861	20731
896.982	21017
897.103	21161
897.224	21001
897.345	20872
897.466	20842
897.587	20933
897.708	21058
897.828	21043
897.949	20891
898.07	20571
898.19	20834
898.311	20994
898.431	20861
898.552	20948
898.672	20967
898.792	21005
898.913	20944
899.033	20796
899.153	20788
899.273	20568
899.393	20674
899.513	20678
899.633	20705
899.753	20659
899.873	20571
899.993	20731
900.113	20537
900.232	20632
900.352	20503
900.472	20450
900.591	20412
900.711	20423
900.83	20347
900.95	20533
901.069	20438
901.189	20256
901.308	20008
901.427	19967
901.546	20138
901.665	20062
901.784	20111
901.904	19879
902.023	19734
902.141	19495
902.26	19502
902.379	19674
902.498	19571
902.617	19525
902.735	19613
902.854	19381
902.973	19419
903.091	19168
903.21	19236
903.328	19225
903.446	19171
903.565	18882
903.683	18985
903.801	18825
903.919	18867
904.038	18989
904.156	18795
904.274	18837
904.392	18642
904.51	18681
904.627	18631
904.745	18783
904.863	18798
904.981	18544
905.098	18479
905.216	18395
905.334	18448
905.451	18479
905.569	18399
905.686	18460
905.803	18426
905.921	18114
906.038	18327
906.155	18163
906.272	18034
906.389	18076
906.506	17973
906.623	17931
906.74	17874
906.857	17771
906.974	17912
907.091	18034
907.208	17958
907.324	17942
907.441	17824
907.557	17570
907.674	17691
907.79	17562
907.907	17592
908.023	17657
908.139	17573
908.256	17710
908.372	17512
908.488	17391
908.604	17364
908.72	17360
908.836	17387
908.952	17391
909.068	17318
909.184	17402
909.3	17364
909.415	17318
909.531	17223
909.647	17109
909.762	17025
909.878	17018
909.993	17109
910.108	17014
910.224	17102
910.339	17056
910.454	16908
910.57	16786
910.685	16782
910.8	17098
910.915	16980
911.03	16843
911.145	16748
911.259	16637
911.374	16607
911.489	16523
911.604	16546
911.718	16295
911.833	16352
911.947	16344
912.062	16215
912.176	16405
912.291	16352
912.405	16386
912.519	16542
912.633	16611
912.748	16417
912.862	16360
912.976	16166
913.09	16082
913.204	16173
913.318	16226
913.431	16284
913.545	16211
913.659	16287
913.772	16116
913.886	15915
914	16021
914.113	16086
914.226	16059
914.34	16017
914.453	15854
914.566	15968
914.68	15808
914.793	15876
914.906	15564
915.019	15507
915.132	15553
915.245	15648
915.358	15568
915.47	15519
915.583	15519
915.696	15595
915.809	15732
915.921	15679
916.034	15496
916.146	15485
916.259	15462
916.371	15534
916.483	15584
916.595	15439
916.708	15389
916.82	15405
916.932	15332
917.044	15355
917.156	15279
917.268	15218
917.38	15264
917.491	15173
917.603	15199
917.715	15348
917.826	15355
917.938	15093
918.049	15093
918.161	15135
918.272	15237
918.384	15192
918.495	15157
918.606	14967
918.717	14811
918.828	14941
918.939	15089
919.05	14834
919.161	14853
919.272	14823
919.383	14769
919.494	15013
919.604	15150
919.715	14902
919.826	14906
919.936	14895
920.047	14971
920.157	14982
920.267	15043
920.378	14956
920.488	14857
920.598	15001
920.708	15226
920.818	15127
920.928	15058
921.038	15192
921.148	15119
921.258	14906
921.368	14796
921.477	14590
921.587	14583
921.697	14533
921.806	14568
921.916	14590
922.025	14328
922.134	14263
922.244	14237
922.353	14358
922.462	14115
922.571	14191
922.68	14027
922.789	13913
922.898	13967
923.007	13890
923.116	14073
923.224	13944
923.333	13879
923.442	13822
923.55	13765
923.659	13734
923.767	13788
923.876	13643
923.984	13734
924.092	13620
924.201	13723
924.309	13563
924.417	13643
924.525	13552
924.633	13601
924.741	14317
924.849	13358
924.956	13460
925.064	13381
925.172	13244
925.279	13358
925.387	13381
925.494	13297
925.602	13419
925.709	13331
925.816	13240
925.924	13259
926.031	13316
926.138	13217
926.245	13244
926.352	13187
926.459	13152
926.566	13304
926.673	13164
926.779	13137
926.886	13076
926.993	12932
927.099	12863
927.206	12905
927.312	12848
927.419	12958
927.525	12779
927.631	12894
927.737	12711
927.843	12696
927.95	12589
928.056	12730
928.162	12715
928.267	12631
928.373	13346
928.479	12749
928.585	12490
928.69	12582
928.796	12604
928.901	12547
929.007	12426
929.112	12551
929.218	12422
929.323	12395
929.428	12391
929.533	12452
929.638	12262
929.743	12410
929.848	12376
929.953	12380
930.058	12235
930.163	12045
930.267	12117
930.372	12205
930.477	12030
930.581	12216
930.685	12125
930.79	11859
930.894	11908
930.998	11942
931.103	12026
931.207	11809
931.311	11684
931.415	11543
931.519	11326
931.623	11265
