Data from test_V78500241_20.txt Node
Date: Fri Mar 25 15:41:56 CST 2022
User: usil
Spectrometer: V785-0024
Trigger mode: 0
Integration Time (sec): 4.000000E-1
Scans to average: 1
Nonlinearity correction enabled: false
Boxcar width: 0
Storing dark spectrum: false
XAxis mode: Wavelengths
Number of Pixels in Spectrum: 1024
>>>>>Begin Spectral Data<<<<<
801.071	27180
801.214	27081
801.356	26845
801.499	26845
801.641	26530
801.783	26625
801.926	26594
802.068	26484
802.211	26476
802.353	26465
802.496	26027
802.638	26065
802.78	26050
802.923	26100
803.065	25993
803.208	25902
803.35	26122
803.492	26107
803.635	26149
803.777	25879
803.919	26199
804.061	26579
804.204	26046
804.346	25944
804.488	25947
804.63	25940
804.773	25921
804.915	26008
805.057	26164
805.199	26039
805.341	26122
805.483	26225
805.626	26168
805.768	26218
805.91	26187
806.052	26142
806.194	25936
806.336	26275
806.478	26073
806.62	26008
806.762	26267
806.904	26317
807.046	26590
807.188	26453
807.33	26450
807.472	26476
807.614	26256
807.756	26446
807.898	26107
808.04	26206
808.182	26244
808.324	26233
808.465	26183
808.607	26370
808.749	26419
808.891	26549
809.033	26518
809.174	26526
809.316	26541
809.458	26526
809.6	26404
809.741	26389
809.883	26602
810.025	26689
810.166	26636
810.308	26663
810.45	26674
810.591	26659
810.733	26495
810.875	26298
811.016	26298
811.158	26320
811.299	26537
811.441	26514
811.582	26507
811.724	26317
811.865	26343
812.007	26290
812.148	26396
812.29	26328
812.431	26583
812.573	26530
812.714	26906
812.855	26937
812.997	26952
813.138	26975
813.279	27074
813.421	26864
813.562	26868
813.703	26564
813.845	26602
813.986	26161
814.127	25970
814.268	25871
814.41	25936
814.551	25772
814.692	26005
814.833	25837
814.974	25814
815.115	25883
815.256	25757
815.397	25795
815.539	25655
815.68	25578
815.821	25563
815.962	25609
816.103	25521
816.244	25331
816.385	25324
816.526	25194
816.666	25091
816.807	24897
816.948	25072
817.089	25072
817.23	25080
817.371	24852
817.512	24920
817.653	24996
817.793	24837
817.934	24882
818.075	24913
818.216	24890
818.356	24730
818.497	24559
818.638	24574
818.778	24483
818.919	24589
819.06	24642
819.2	24658
819.341	24776
819.481	24753
819.622	24897
819.762	25038
819.903	25004
820.043	24844
820.184	24928
820.324	24913
820.465	24814
820.605	24909
820.746	24825
820.886	24783
821.026	24764
821.167	24738
821.307	24863
821.447	24783
821.588	24661
821.728	24536
821.868	24429
822.008	24220
822.149	24155
822.289	24197
822.429	23950
822.569	23783
822.709	23802
822.849	23642
822.99	23642
823.13	23570
823.27	23600
823.41	23459
823.55	23395
823.69	23486
823.83	23444
823.97	23341
824.11	23181
824.25	23117
824.389	23151
824.529	23311
824.669	23212
824.809	23151
824.949	23288
825.089	23303
825.228	23140
825.368	23033
825.508	22942
825.648	22999
825.787	23022
825.927	22987
826.067	22953
826.206	22995
826.346	22946
826.485	22999
826.625	22938
826.765	23105
826.904	22934
827.044	22706
827.183	22565
827.323	22584
827.462	22637
827.601	22466
827.741	22668
827.88	22580
828.02	22516
828.159	22504
828.298	22611
828.437	22481
828.577	22557
828.716	22554
828.855	22516
828.994	22360
829.134	22303
829.273	22398
829.412	22276
829.551	22284
829.69	22325
829.829	22291
829.968	22413
830.107	22268
830.246	22272
830.385	22276
830.524	22188
830.663	22169
830.802	21934
830.941	21899
831.08	21808
831.219	21956
831.357	21785
831.496	21949
831.635	21831
831.774	21629
831.913	21755
832.051	21557
832.19	21595
832.329	21637
832.467	21458
832.606	21420
832.744	21435
832.883	21454
833.022	21431
833.16	21458
833.299	21576
833.437	21443
833.576	21488
833.714	21481
833.852	21523
833.991	21473
834.129	21576
834.267	21511
834.406	21416
834.544	21515
834.682	21488
834.821	21454
834.959	21466
835.097	21382
835.235	21538
835.373	21458
835.511	21355
835.65	21173
835.788	21306
835.926	21142
836.064	21123
836.202	21161
836.34	21325
836.478	21416
836.615	21233
836.753	21317
836.891	21389
837.029	21180
837.167	21256
837.305	21203
837.443	21089
837.58	21028
837.718	21329
837.856	21051
837.993	21146
838.131	21081
838.269	21123
838.406	20956
838.544	20876
838.681	20800
838.819	20663
838.956	20530
839.094	20549
839.231	20674
839.369	20689
839.506	20872
839.643	20800
839.781	20670
839.918	20560
840.055	20568
840.193	20625
840.33	20415
840.467	20590
840.604	20526
840.742	20640
840.879	20389
841.016	20469
841.153	20332
841.29	20549
841.427	20438
841.564	20385
841.701	20511
841.838	20370
841.975	20351
842.112	20336
842.249	20271
842.385	20263
842.522	20461
842.659	20317
842.796	20153
842.933	20172
843.069	20145
843.206	20077
843.343	20164
843.479	20065
843.616	20183
843.752	19974
843.889	19875
844.025	19932
844.162	19814
844.298	19989
844.435	19921
844.571	19830
844.708	19871
844.844	20092
844.98	20050
845.117	19902
845.253	19635
845.389	19750
845.525	19696
845.661	19715
845.798	19597
845.934	19681
846.07	19571
846.206	19700
846.342	19780
846.478	19620
846.614	19487
846.75	19247
846.886	19293
847.022	19472
847.158	19384
847.294	19388
847.429	19403
847.565	19244
847.701	19609
847.837	19122
847.972	19019
848.108	19129
848.244	19160
848.379	18970
848.515	18894
848.65	18848
848.786	18939
848.921	18802
849.057	19012
849.192	18981
849.328	18867
849.463	18916
849.598	18890
849.734	18867
849.869	18760
850.004	18677
850.14	18673
850.275	18639
850.41	18642
850.545	18589
850.68	18597
850.815	18681
850.95	18490
851.085	18719
851.22	18768
851.355	18631
851.49	18452
851.625	18635
851.76	18612
851.895	18551
852.03	18441
852.165	18677
852.299	18639
852.434	18692
852.569	18677
852.703	18517
852.838	18646
852.973	18639
853.107	18719
853.242	18544
853.376	18486
853.511	18258
853.645	18334
853.78	18490
853.914	18471
854.048	18429
854.183	18437
854.317	18452
854.451	18544
854.585	18422
854.72	18380
854.854	18513
854.988	18395
855.122	18319
855.256	18251
855.39	18536
855.524	18536
855.658	18422
855.792	18445
855.926	18517
856.06	18483
856.194	18502
856.327	18410
856.461	18418
856.595	18319
856.729	18289
856.862	18494
856.996	18422
857.13	18475
857.263	18418
857.397	18547
857.53	18460
857.664	18456
857.797	18517
857.931	18498
858.064	18441
858.197	18566
858.331	18372
858.464	18266
858.597	18247
858.731	18289
858.864	18296
858.997	18270
859.13	18350
859.263	18372
859.396	18410
859.529	18338
859.662	18216
859.795	18330
859.928	18388
860.061	18407
860.194	18528
860.327	18460
860.46	18289
860.592	18369
860.725	18479
860.858	18437
860.99	18327
861.123	18216
861.256	18243
861.388	18365
861.521	18844
861.653	18163
861.786	18144
861.918	18235
862.05	18251
862.183	18319
862.315	18494
862.447	18407
862.58	18376
862.712	18079
862.844	18091
862.976	18194
863.108	18117
863.24	18471
863.372	17973
863.504	17999
863.636	18053
863.768	18247
863.9	18079
864.032	17996
864.164	17992
864.296	18136
864.428	18182
864.559	18083
864.691	18110
864.823	18076
864.954	17977
865.086	18057
865.217	17977
865.349	17889
865.48	17893
865.612	17980
865.743	18072
865.875	17980
866.006	17980
866.137	18030
866.269	18030
866.4	18011
866.531	17897
866.662	17965
866.793	17927
866.924	18060
867.055	17988
867.186	17901
867.317	17931
867.448	17855
867.579	17863
867.71	17889
867.841	17767
867.972	17939
868.103	17923
868.233	17897
868.364	17832
868.495	18049
868.625	18053
868.756	18311
868.886	18019
869.017	18102
869.147	18174
869.278	18304
869.408	18171
869.539	18190
869.669	18228
869.799	18216
869.929	18266
870.06	18254
870.19	18342
870.32	18365
870.45	18635
870.58	18703
870.71	18559
870.84	18722
870.97	18555
871.1	18525
871.23	18707
871.36	18711
871.489	18650
871.619	18658
871.749	18821
871.879	18867
872.008	18837
872.138	18844
872.267	18749
872.397	18741
872.526	18703
872.656	18635
872.785	18635
872.915	18688
873.044	18867
873.173	18817
873.303	18730
873.432	18814
873.561	18947
873.69	18741
873.819	18916
873.948	18837
874.077	18779
874.206	18722
874.335	18833
874.464	18954
874.593	19050
874.722	18977
874.851	19080
874.979	19069
875.108	19190
875.237	19008
875.365	18958
875.494	19072
875.623	19057
875.751	19053
875.88	19129
876.008	19339
876.136	19365
876.265	19540
876.393	19613
876.521	19571
876.65	19510
876.778	19476
876.906	19373
877.034	19381
877.162	19510
877.29	19365
877.418	19445
877.546	19460
877.674	19400
877.802	19419
877.93	19362
878.058	19460
878.185	19384
878.313	19422
878.441	19533
878.568	19289
878.696	19525
878.824	19487
878.951	19502
879.079	19632
879.206	19860
879.333	19647
879.461	19358
879.588	19559
879.715	19639
879.842	19788
879.97	19571
880.097	19202
880.224	19339
880.351	19331
880.478	19453
880.605	19244
880.732	19304
880.859	19700
880.986	19377
881.112	19244
881.239	19213
881.366	19084
881.493	18989
881.619	18894
881.746	18939
881.872	18913
881.999	19069
882.125	18894
882.252	18943
882.378	19069
882.505	19015
882.631	18798
882.757	18734
882.883	18711
883.01	18658
883.136	18627
883.262	18665
883.388	18559
883.514	18837
883.64	18772
883.766	18730
883.892	18403
884.018	18620
884.143	18711
884.269	18620
884.395	18483
884.52	18388
884.646	18361
884.772	18289
884.897	18277
885.023	18357
885.148	18452
885.274	18627
885.399	18437
885.524	18388
885.65	18319
885.775	18391
885.9	18395
886.025	18399
886.15	18475
886.275	18330
886.4	18296
886.525	18407
886.65	18281
886.775	18251
886.9	18506
887.025	18525
887.149	18350
887.274	18182
887.399	18190
887.523	18038
887.648	17999
887.773	18049
887.897	18106
888.021	18129
888.146	18076
888.27	18197
888.395	18254
888.519	18167
888.643	18110
888.767	18247
888.891	18125
889.015	17866
889.139	17965
889.263	17958
889.387	18064
889.511	18178
889.635	18057
889.759	17942
889.883	17950
890.006	17863
890.13	18098
890.254	17859
890.377	17923
890.501	17619
890.624	17646
890.748	17764
890.871	17562
890.995	17505
891.118	17570
891.241	17497
891.364	17627
891.488	17718
891.611	17577
891.734	17509
891.857	17665
891.98	17547
892.103	17615
892.226	17497
892.349	17558
892.471	17425
892.594	17337
892.717	17558
892.839	17505
892.962	17467
893.085	17680
893.207	17490
893.33	17341
893.452	17459
893.575	17581
893.697	17509
893.819	17615
893.941	17684
894.064	17665
894.186	17414
894.308	17433
894.43	17672
894.552	17642
894.674	17608
894.796	17482
894.918	17516
895.04	17471
895.161	17547
895.283	17570
895.405	17551
895.526	17516
895.648	17493
895.769	17577
895.891	17646
896.012	17668
896.134	17608
896.255	17623
896.376	17493
896.498	17585
896.619	17642
896.74	17691
896.861	17741
896.982	18011
897.103	18205
897.224	17946
897.345	17977
897.466	17798
897.587	17855
897.708	17988
897.828	17931
897.949	17741
898.07	17676
898.19	17779
898.311	17847
898.431	17821
898.552	17931
898.672	17866
898.792	17977
898.913	17821
899.033	17699
899.153	17653
899.273	17566
899.393	17653
899.513	17661
899.633	17592
899.753	17627
899.873	17440
899.993	17665
900.113	17604
900.232	17592
900.352	17554
900.472	17455
900.591	17471
900.711	17524
900.83	17360
900.95	17501
901.069	17554
901.189	17406
901.308	17197
901.427	17056
901.546	17170
901.665	17064
901.784	17075
901.904	16877
902.023	16801
902.141	16740
902.26	16626
902.379	16679
902.498	16668
902.617	16603
902.735	16611
902.854	16481
902.973	16455
903.091	16219
903.21	16139
903.328	16295
903.446	16200
903.565	16093
903.683	16154
903.801	16032
903.919	16002
904.038	16074
904.156	15846
904.274	15941
904.392	15911
904.51	15816
904.627	15911
904.745	15926
904.863	15876
904.981	15694
905.098	15549
905.216	15530
905.334	15644
905.451	15526
905.569	15481
905.686	15603
905.803	15572
905.921	15294
906.038	15507
906.155	15348
906.272	15222
906.389	15272
906.506	15116
906.623	15047
906.74	15077
906.857	14960
906.974	14967
907.091	15173
907.208	15180
907.324	15123
907.441	15013
907.557	14785
907.674	14796
907.79	14716
907.907	14823
908.023	14796
908.139	14769
908.256	14655
908.372	14682
908.488	14606
908.604	14590
908.72	14461
908.836	14427
908.952	14393
909.068	14526
909.184	14530
909.3	14427
909.415	14594
909.531	14488
909.647	14237
909.762	14206
909.878	14221
909.993	14153
910.108	14145
910.224	14195
910.339	14126
910.454	14073
910.57	13967
910.685	14031
910.8	14202
910.915	14225
911.03	14039
911.145	13780
911.259	13849
911.374	13822
911.489	13765
911.604	13712
911.718	13616
911.833	13639
911.947	13609
912.062	13430
912.176	13548
912.291	13613
912.405	13578
912.519	13852
912.633	13772
912.748	13655
912.862	13449
912.976	13365
913.09	13198
913.204	13381
913.318	13415
913.431	13544
913.545	13419
913.659	13499
913.772	13392
913.886	13350
914	13232
914.113	13255
914.226	13316
914.34	13396
914.453	13187
914.566	13301
914.68	13236
914.793	13164
914.906	12901
915.019	12901
915.132	12901
915.245	12951
915.358	12962
915.47	12916
915.583	13019
915.696	13019
915.809	13057
915.921	13046
916.034	12821
916.146	12821
916.259	12848
916.371	12939
916.483	12966
916.595	12787
916.708	12787
916.82	12757
916.932	12802
917.044	12779
917.156	12783
917.268	12654
917.38	12677
917.491	12631
917.603	12612
917.715	12730
917.826	12867
917.938	12578
918.049	12517
918.161	12673
918.272	12684
918.384	12783
918.495	12563
918.606	12452
918.717	12433
918.828	12452
918.939	12528
919.05	12391
919.161	12410
919.272	12251
919.383	12292
919.494	12391
919.604	12722
919.715	12395
919.826	12391
919.936	12437
920.047	12486
920.157	12426
920.267	12513
920.378	12460
920.488	12467
920.598	12650
920.708	12757
920.818	12665
920.928	12608
921.038	12757
921.148	12688
921.258	12429
921.368	12308
921.477	12213
921.587	12171
921.697	12129
921.806	12258
921.916	12136
922.025	11977
922.134	11893
922.244	11832
922.353	11927
922.462	11779
922.571	11684
922.68	11604
922.789	11562
922.898	11539
923.007	11532
923.116	11558
923.224	11638
923.333	11493
923.442	11482
923.55	11376
923.659	11482
923.767	11528
923.876	11444
923.984	11528
924.092	11288
924.201	11360
924.309	11376
924.417	11395
924.525	11166
924.633	11326
924.741	12228
924.849	11113
924.956	11345
925.064	11086
925.172	11052
925.279	11113
925.387	11109
925.494	11189
925.602	11201
925.709	11178
925.816	10999
925.924	11151
926.031	11162
926.138	11117
926.245	11140
926.352	10915
926.459	11102
926.566	11143
926.673	11033
926.779	10885
926.886	10873
926.993	10733
927.099	10786
927.206	10637
927.312	10637
927.419	10809
927.525	10782
927.631	10790
927.737	10611
927.843	10596
927.95	10523
928.056	10558
928.162	10580
928.267	10645
928.373	11284
928.479	10675
928.585	10489
928.69	10546
928.796	10569
928.901	10440
929.007	10325
929.112	10500
929.218	10405
929.323	10394
929.428	10322
929.533	10478
929.638	10306
929.743	10318
929.848	10382
929.953	10257
930.058	10246
930.163	10101
930.267	10105
930.372	10135
930.477	10051
930.581	10291
930.685	10196
930.79	10032
930.894	9987
930.998	9949
931.103	10051
931.207	9770
931.311	9614
931.415	9622
931.519	9458
931.623	9393
