Data from test_V78500241_913.txt Node
Date: Fri Mar 25 15:48:07 CST 2022
User: usil
Spectrometer: V785-0024
Trigger mode: 0
Integration Time (sec): 4.000000E-1
Scans to average: 1
Nonlinearity correction enabled: false
Boxcar width: 0
Storing dark spectrum: false
XAxis mode: Wavelengths
Number of Pixels in Spectrum: 1024
>>>>>Begin Spectral Data<<<<<
801.071	27953
801.214	28162
801.356	27823
801.499	27603
801.641	27633
801.783	27610
801.926	27671
802.068	27698
802.211	27603
802.353	27431
802.496	27382
802.638	27264
802.78	27214
802.923	27291
803.065	27169
803.208	27218
803.35	27161
803.492	27439
803.635	27401
803.777	27336
803.919	27458
804.061	27835
804.204	27557
804.346	27435
804.488	27317
804.63	27427
804.773	27351
804.915	27561
805.057	27637
805.199	27534
805.341	27580
805.483	27614
805.626	27641
805.768	27568
805.91	27515
806.052	27641
806.194	27595
806.336	27701
806.478	27595
806.62	27690
806.762	27736
806.904	27926
807.046	28097
807.188	27991
807.33	28219
807.472	28162
807.614	27941
807.756	28029
807.898	27865
808.04	27846
808.182	27888
808.324	27911
808.465	27949
808.607	28200
808.749	28192
808.891	28398
809.033	28428
809.174	28371
809.316	28215
809.458	28238
809.6	28253
809.741	28356
809.883	28443
810.025	28592
810.166	28538
810.308	28603
810.45	28504
810.591	28489
810.733	28371
810.875	28181
811.016	28318
811.158	28314
811.299	28440
811.441	28523
811.582	28409
811.724	28295
811.865	28443
812.007	28352
812.148	28226
812.29	28295
812.431	28557
812.573	28637
812.714	28725
812.855	28873
812.997	28888
813.138	29041
813.279	28972
813.421	28976
813.562	28828
813.703	28603
813.845	28557
813.986	28211
814.127	28185
814.268	27979
814.41	27953
814.551	27934
814.692	27934
814.833	28055
814.974	27956
815.115	28185
815.256	27781
815.397	27934
815.539	27690
815.68	27793
815.821	27671
815.962	27793
816.103	27759
816.244	27724
816.385	27663
816.526	27530
816.666	27450
816.807	27306
816.948	27359
817.089	27416
817.23	27321
817.371	27237
817.512	27344
817.653	27245
817.793	27294
817.934	27336
818.075	27340
818.216	27405
818.356	27161
818.497	27047
818.638	27051
818.778	27005
818.919	27081
819.06	27150
819.2	27207
819.341	27264
819.481	27230
819.622	27367
819.762	27523
819.903	27477
820.043	27504
820.184	27416
820.324	27477
820.465	27401
820.605	27359
820.746	27272
820.886	27329
821.026	27264
821.167	27298
821.307	27515
821.447	27184
821.588	27165
821.728	27169
821.868	26918
822.008	26864
822.149	26796
822.289	26746
822.429	26492
822.569	26457
822.709	26514
822.849	26233
822.99	26294
823.13	26355
823.27	26145
823.41	26157
823.55	25974
823.69	26073
823.83	26050
823.97	26134
824.11	25970
824.25	25909
824.389	25841
824.529	25989
824.669	26043
824.809	26100
824.949	26001
825.089	26119
825.228	26016
825.368	25769
825.508	25719
825.648	25879
825.787	25746
825.927	25978
826.067	25795
826.206	25826
826.346	25826
826.485	25868
826.625	25871
826.765	25997
826.904	25883
827.044	25540
827.183	25499
827.323	25502
827.462	25616
827.601	25457
827.741	25445
827.88	25468
828.02	25495
828.159	25620
828.298	25525
828.437	25662
828.577	25453
828.716	25731
828.855	25491
828.994	25228
829.134	25141
829.273	25244
829.412	25141
829.551	25168
829.69	25091
829.829	25236
829.968	25266
830.107	25407
830.246	25164
830.385	25050
830.524	25072
830.663	25027
830.802	24970
830.941	24871
831.08	24791
831.219	24859
831.357	24859
831.496	25027
831.635	24833
831.774	24707
831.913	24700
832.051	24669
832.19	24741
832.329	24658
832.467	24380
832.606	24532
832.744	24483
832.883	24532
833.022	24494
833.16	24509
833.299	24570
833.437	24654
833.576	24509
833.714	24570
833.852	24642
833.991	24620
834.129	24658
834.267	24570
834.406	24616
834.544	24593
834.682	24658
834.821	24563
834.959	24741
835.097	24517
835.235	24597
835.373	24407
835.511	24540
835.65	24380
835.788	24403
835.926	24292
836.064	24091
836.202	24224
836.34	24334
836.478	24517
836.615	24365
836.753	24338
836.891	24445
837.029	24429
837.167	24350
837.305	24254
837.443	24296
837.58	24243
837.718	24365
837.856	24209
837.993	24083
838.131	24235
838.269	24110
838.406	24152
838.544	24057
838.681	23901
838.819	23794
838.956	23604
839.094	23703
839.231	23722
839.369	23847
839.506	24110
839.643	23984
839.781	23665
839.918	23680
840.055	23630
840.193	23668
840.33	23596
840.467	23604
840.604	23630
840.742	23786
840.879	23467
841.016	23596
841.153	23452
841.29	23707
841.427	23676
841.564	23684
841.701	23490
841.838	23531
841.975	23448
842.112	23429
842.249	23406
842.385	23467
842.522	23562
842.659	23421
842.796	23280
842.933	23307
843.069	23189
843.206	23398
843.343	23379
843.479	23349
843.616	23315
843.752	23083
843.889	23090
844.025	23223
844.162	23128
844.298	23185
844.435	23083
844.571	23117
844.708	23159
844.844	23239
844.98	23315
845.117	23166
845.253	23143
845.389	23064
845.525	23189
845.661	23018
845.798	22809
845.934	22892
846.07	22877
846.206	22771
846.342	22908
846.478	22740
846.614	22561
846.75	22512
846.886	22622
847.022	22626
847.158	22611
847.294	22580
847.429	22634
847.565	22519
847.701	22831
847.837	22284
847.972	22261
848.108	22424
848.244	22443
848.379	22421
848.515	22261
848.65	22166
848.786	22150
848.921	22128
849.057	22299
849.192	22249
849.328	22147
849.463	22158
849.598	22196
849.734	22112
849.869	21979
850.004	21918
850.14	22048
850.275	21968
850.41	21895
850.545	21911
850.68	21816
850.815	21983
850.95	21964
851.085	21953
851.22	21975
851.355	22090
851.49	21945
851.625	21991
851.76	21857
851.895	21823
852.03	21934
852.165	21998
852.299	21846
852.434	22025
852.569	21968
852.703	22040
852.838	22025
852.973	22025
853.107	22086
853.242	21884
853.376	21831
853.511	21713
853.645	21698
853.78	21789
853.914	21800
854.048	21660
854.183	21720
854.317	21774
854.451	21922
854.585	21698
854.72	21629
854.854	21774
854.988	21774
855.122	21770
855.256	21660
855.39	21709
855.524	21800
855.658	21705
855.792	21743
855.926	21781
856.06	21857
856.194	21873
856.327	21720
856.461	21637
856.595	21785
856.729	21747
856.862	21922
856.996	21781
857.13	21857
857.263	21838
857.397	21865
857.53	21819
857.664	21728
857.797	21892
857.931	21838
858.064	21854
858.197	21880
858.331	21846
858.464	21690
858.597	21515
858.731	21713
858.864	21808
858.997	21675
859.13	21732
859.263	21797
859.396	21907
859.529	21641
859.662	21675
859.795	21576
859.928	21766
860.061	21873
860.194	21937
860.327	21812
860.46	21751
860.592	21759
860.725	21983
860.858	21816
860.99	21759
861.123	21835
861.256	21774
861.388	21732
861.521	22527
861.653	21637
861.786	21614
861.918	21656
862.05	21747
862.183	21781
862.315	21728
862.447	21717
862.58	21610
862.712	21481
862.844	21454
862.976	21599
863.108	21561
863.24	21751
863.372	21386
863.504	21458
863.636	21408
863.768	21435
863.9	21439
864.032	21424
864.164	21523
864.296	21515
864.428	21629
864.559	21515
864.691	21507
864.823	21401
864.954	21473
865.086	21469
865.217	21313
865.349	21264
865.48	21378
865.612	21420
865.743	21469
865.875	21355
866.006	21325
866.137	21298
866.269	21359
866.4	21329
866.531	21397
866.662	21241
866.793	21272
866.924	21313
867.055	21378
867.186	21199
867.317	21275
867.448	21226
867.579	21199
867.71	21264
867.841	21188
867.972	21317
868.103	21306
868.233	21264
868.364	21169
868.495	21458
868.625	21519
868.756	21629
868.886	21462
869.017	21526
869.147	21568
869.278	21580
869.408	21568
869.539	21561
869.669	21637
869.799	21694
869.929	21713
870.06	21720
870.19	21846
870.32	21778
870.45	21861
870.58	21937
870.71	21949
870.84	22093
870.97	21918
871.1	21956
871.23	22074
871.36	22093
871.489	22010
871.619	22063
871.749	22139
871.879	22040
872.008	22363
872.138	22116
872.267	22074
872.397	21941
872.526	21956
872.656	21949
872.785	22029
872.915	22234
873.044	22211
873.173	22215
873.303	22128
873.432	22147
873.561	22173
873.69	22109
873.819	22162
873.948	22322
874.077	22284
874.206	22051
874.335	22204
874.464	22253
874.593	22440
874.722	22280
874.851	22310
874.979	22424
875.108	22333
875.237	22409
875.365	22276
875.494	22413
875.623	22367
875.751	22344
875.88	22371
876.008	22424
876.136	22550
876.265	22850
876.393	22908
876.521	22892
876.65	22843
876.778	22668
876.906	22683
877.034	22706
877.162	22702
877.29	22557
877.418	22717
877.546	22835
877.674	22634
877.802	22744
877.93	22649
878.058	22683
878.185	22542
878.313	22649
878.441	22599
878.568	22459
878.696	22683
878.824	22725
878.951	22752
879.079	22862
879.206	23044
879.333	22797
879.461	22831
879.588	22847
879.715	22763
879.842	22980
879.97	22809
880.097	22527
880.224	22413
880.351	22675
880.478	22569
880.605	22421
880.732	22584
880.859	22755
880.986	22561
881.112	22649
881.239	22432
881.366	22253
881.493	22207
881.619	22219
881.746	22090
881.872	22040
881.999	22055
882.125	22074
882.252	22120
882.378	22002
882.505	22143
882.631	21945
882.757	21720
882.883	21876
883.01	21690
883.136	21747
883.262	21705
883.388	21557
883.514	21728
883.64	21819
883.766	21671
883.892	21542
884.018	21572
884.143	21804
884.269	21880
884.395	21469
884.52	21389
884.646	21454
884.772	21336
884.897	21367
885.023	21473
885.148	21416
885.274	21507
885.399	21523
885.524	21447
885.65	21481
885.775	21424
885.9	21355
886.025	21439
886.15	21511
886.275	21431
886.4	21256
886.525	21523
886.65	21378
886.775	21416
886.9	21587
887.025	21690
887.149	21412
887.274	21222
887.399	21131
887.523	21252
887.648	21203
887.773	21085
887.897	21325
888.021	21119
888.146	21184
888.27	21317
888.395	21351
888.519	21306
888.643	21180
888.767	21104
888.891	21074
889.015	21001
889.139	20910
889.263	20990
889.387	21058
889.511	21252
889.635	21055
889.759	21024
889.883	20933
890.006	20857
890.13	21028
890.254	20906
890.377	20944
890.501	20754
890.624	20663
890.748	20830
890.871	20659
890.995	20629
891.118	20427
891.241	20621
891.364	20575
891.488	20667
891.611	20556
891.734	20667
891.857	20530
891.98	20503
892.103	20568
892.226	20598
892.349	20537
892.471	20317
892.594	20480
892.717	20324
892.839	20412
892.962	20507
893.085	20492
893.207	20427
893.33	20355
893.452	20385
893.575	20457
893.697	20461
893.819	20655
893.941	20651
894.064	20617
894.186	20412
894.308	20434
894.43	20560
894.552	20587
894.674	20473
894.796	20370
894.918	20377
895.04	20446
895.161	20415
895.283	20518
895.405	20465
895.526	20427
895.648	20396
895.769	20571
895.891	20450
896.012	20621
896.134	20495
896.255	20442
896.376	20309
896.498	20423
896.619	20503
896.74	20423
896.861	20507
896.982	20765
897.103	20864
897.224	20781
897.345	20648
897.466	20609
897.587	20724
897.708	20796
897.828	20720
897.949	20651
898.07	20488
898.19	20579
898.311	20705
898.431	20602
898.552	20686
898.672	20697
898.792	20697
898.913	20632
899.033	20526
899.153	20438
899.273	20507
899.393	20457
899.513	20503
899.633	20396
899.753	20450
899.873	20377
899.993	20259
900.113	20362
900.232	20370
900.352	20404
900.472	20248
900.591	20271
900.711	20233
900.83	20134
900.95	20278
901.069	20324
901.189	19955
901.308	19932
901.427	19624
901.546	19833
901.665	19723
901.784	19742
901.904	19658
902.023	19499
902.141	19274
902.26	19236
902.379	19365
902.498	19282
902.617	19175
902.735	19244
902.854	19236
902.973	19179
903.091	18966
903.21	18878
903.328	19065
903.446	18840
903.565	18673
903.683	18719
903.801	18707
903.919	18741
904.038	18772
904.156	18452
904.274	18536
904.392	18513
904.51	18479
904.627	18479
904.745	18521
904.863	18532
904.981	18220
905.098	18057
905.216	18076
905.334	18232
905.451	18171
905.569	18087
905.686	18174
905.803	18235
905.921	17950
906.038	18068
906.155	18060
906.272	17775
906.389	17870
906.506	17718
906.623	17657
906.74	17646
906.857	17539
906.974	17539
907.091	17783
907.208	17840
907.324	17779
907.441	17691
907.557	17455
907.674	17433
907.79	17391
907.907	17216
908.023	17425
908.139	17452
908.256	17296
908.372	17284
908.488	17299
908.604	17208
908.72	17094
908.836	17128
908.952	17105
909.068	17170
909.184	17159
909.3	17052
909.415	17258
909.531	17090
909.647	16778
909.762	16790
909.878	16854
909.993	16801
910.108	16843
910.224	16824
910.339	16740
910.454	16645
910.57	16561
910.685	16432
910.8	16797
910.915	16763
911.03	16622
911.145	16455
911.259	16421
911.374	16424
911.489	16318
911.604	16272
911.718	16265
911.833	16158
911.947	16090
912.062	16040
912.176	16063
912.291	16135
912.405	16306
912.519	16398
912.633	16379
912.748	16192
912.862	16173
912.976	16002
913.09	15880
913.204	15899
913.318	15987
913.431	16196
913.545	15994
913.659	16082
913.772	15926
913.886	15831
914	15720
914.113	15816
914.226	15831
914.34	15842
914.453	15610
914.566	15778
914.68	15701
914.793	15545
914.906	15416
915.019	15454
915.132	15260
915.245	15424
915.358	15378
915.47	15317
915.583	15389
915.696	15454
915.809	15447
915.921	15454
916.034	15268
916.146	15321
916.259	15233
916.371	15336
916.483	15332
916.595	15233
916.708	15233
916.82	15154
916.932	15032
917.044	15188
917.156	15047
917.268	15001
917.38	14994
917.491	14952
917.603	14975
917.715	15108
917.826	15100
917.938	14906
918.049	14811
918.161	14944
918.272	15116
918.384	15077
918.495	14910
918.606	14830
918.717	14758
918.828	14769
918.939	14758
919.05	14651
919.161	14743
919.272	14583
919.383	14606
919.494	14872
919.604	14990
919.715	14750
919.826	14697
919.936	14758
920.047	14758
920.157	14758
920.267	14929
920.378	14781
920.488	14765
920.598	14891
920.708	15070
920.818	14925
920.928	14804
921.038	14948
921.148	14994
921.258	14571
921.368	14644
921.477	14465
921.587	14492
921.697	14305
921.806	14419
921.916	14309
922.025	14183
922.134	14130
922.244	14012
922.353	14035
922.462	13963
922.571	13868
922.68	13799
922.789	13788
922.898	13799
923.007	13639
923.116	13780
923.224	13712
923.333	13738
923.442	13571
923.55	13586
923.659	13533
923.767	13628
923.876	13491
923.984	13567
924.092	13502
924.201	13525
924.309	13434
924.417	13369
924.525	13453
924.633	13400
924.741	14298
924.849	13263
924.956	13400
925.064	13343
925.172	13168
925.279	13145
925.387	13149
925.494	13137
925.602	13259
925.709	13194
925.816	13080
925.924	13122
926.031	13240
926.138	13129
926.245	13095
926.352	13008
926.459	13118
926.566	13152
926.673	13027
926.779	12821
926.886	12802
926.993	12795
927.099	12707
927.206	12673
927.312	12574
927.419	12741
927.525	12703
927.631	12745
927.737	12582
927.843	12597
927.95	12452
928.056	12498
928.162	12517
928.267	12494
928.373	13065
928.479	12582
928.585	12414
928.69	12475
928.796	12506
928.901	12403
929.007	12262
929.112	12342
929.218	12330
929.323	12323
929.428	12315
929.533	12376
929.638	12254
929.743	12216
929.848	12209
929.953	12178
930.058	12038
930.163	11912
930.267	11893
930.372	12076
930.477	11889
930.581	12087
930.685	11958
930.79	11832
930.894	11794
930.998	11805
931.103	11939
931.207	11501
931.311	11570
931.415	11349
931.519	11204
931.623	11235
