Data from test_V78500241_2933.txt Node
Date: Fri Mar 25 16:02:07 CST 2022
User: usil
Spectrometer: V785-0024
Trigger mode: 0
Integration Time (sec): 4.000000E-1
Scans to average: 1
Nonlinearity correction enabled: false
Boxcar width: 0
Storing dark spectrum: false
XAxis mode: Wavelengths
Number of Pixels in Spectrum: 1024
>>>>>Begin Spectral Data<<<<<
801.071	28634
801.214	28691
801.356	28337
801.499	28242
801.641	28242
801.783	28192
801.926	28280
802.068	28257
802.211	28249
802.353	28131
802.496	27964
802.638	27983
802.78	27899
802.923	27846
803.065	27831
803.208	27892
803.35	27941
803.492	28105
803.635	27991
803.777	28017
803.919	28063
804.061	28382
804.204	28158
804.346	28090
804.488	28036
804.63	28173
804.773	27960
804.915	28246
805.057	28280
805.199	28105
805.341	28226
805.483	28257
805.626	28303
805.768	28219
805.91	28367
806.052	28337
806.194	28230
806.336	28451
806.478	28299
806.62	28398
806.762	28546
806.904	28554
807.046	28801
807.188	28656
807.33	28725
807.472	28812
807.614	28470
807.756	28729
807.898	28489
808.04	28535
808.182	28485
808.324	28462
808.465	28675
808.607	28790
808.749	28949
808.891	29124
809.033	29132
809.174	29064
809.316	28938
809.458	28980
809.6	28961
809.741	29056
809.883	29159
810.025	29261
810.166	29311
810.308	29231
810.45	29303
810.591	29140
810.733	29041
810.875	28938
811.016	28934
811.158	28972
811.299	29083
811.441	29155
811.582	29086
811.724	29128
811.865	28968
812.007	28869
812.148	29060
812.29	28972
812.431	29056
812.573	29360
812.714	29322
812.855	29459
812.997	29649
813.138	29608
813.279	29627
813.421	29558
813.562	29330
813.703	29124
813.845	29079
813.986	28972
814.127	28809
814.268	28622
814.41	28767
814.551	28580
814.692	28782
814.833	28694
814.974	28546
815.115	28664
815.256	28504
815.397	28691
815.539	28557
815.68	28428
815.821	28440
815.962	28436
816.103	28440
816.244	28306
816.385	28413
816.526	28253
816.666	28051
816.807	27941
816.948	28116
817.089	27956
817.23	28025
817.371	28010
817.512	27892
817.653	27953
817.793	27812
817.934	27979
818.075	28025
818.216	27926
818.356	27895
818.497	27842
818.638	27823
818.778	27781
818.919	27781
819.06	27876
819.2	27934
819.341	27850
819.481	28158
819.622	28120
819.762	28223
819.903	28306
820.043	28124
820.184	28097
820.324	28192
820.465	28242
820.605	28143
820.746	27979
820.886	28090
821.026	28147
821.167	28116
821.307	28177
821.447	28105
821.588	27850
821.728	27800
821.868	27557
822.008	27462
822.149	27374
822.289	27450
822.429	27218
822.569	27199
822.709	27161
822.849	26925
822.99	26975
823.13	26940
823.27	26861
823.41	26842
823.55	26746
823.69	26826
823.83	26845
823.97	26712
824.11	26629
824.25	26655
824.389	26594
824.529	26750
824.669	26697
824.809	26674
824.949	26583
825.089	26655
825.228	26648
825.368	26552
825.508	26526
825.648	26511
825.787	26579
825.927	26606
826.067	26469
826.206	26564
826.346	26514
826.485	26568
826.625	26400
826.765	26552
826.904	26590
827.044	26389
827.183	26320
827.323	26267
827.462	26271
827.601	26164
827.741	26252
827.88	26134
828.02	26138
828.159	26138
828.298	26168
828.437	26358
828.577	26332
828.716	26244
828.855	26130
828.994	25860
829.134	25894
829.273	26012
829.412	25890
829.551	25712
829.69	25913
829.829	26031
829.968	25944
830.107	25913
830.246	25826
830.385	25769
830.524	25833
830.663	25750
830.802	25658
830.941	25578
831.08	25502
831.219	25533
831.357	25590
831.496	25689
831.635	25434
831.774	25586
831.913	25468
832.051	25244
832.19	25316
832.329	25301
832.467	25297
832.606	25126
832.744	25053
832.883	25244
833.022	25160
833.16	25171
833.299	25129
833.437	25118
833.576	25209
833.714	25175
833.852	25225
833.991	25297
834.129	25392
834.267	25301
834.406	25209
834.544	25194
834.682	25285
834.821	25244
834.959	25411
835.097	25118
835.235	25255
835.373	25202
835.511	25148
835.65	25110
835.788	25110
835.926	24894
836.064	24924
836.202	24920
836.34	25080
836.478	25118
836.615	25004
836.753	24985
836.891	25190
837.029	25164
837.167	25000
837.305	25084
837.443	24859
837.58	24909
837.718	24852
837.856	24886
837.993	24764
838.131	24783
838.269	24814
838.406	24776
838.544	24753
838.681	24639
838.819	24445
838.956	24327
839.094	24292
839.231	24426
839.369	24631
839.506	24745
839.643	24665
839.781	24308
839.918	24391
840.055	24285
840.193	24384
840.33	24235
840.467	24186
840.604	24266
840.742	24547
840.879	24064
841.016	24228
841.153	24197
841.29	24353
841.427	24232
841.564	24277
841.701	24247
841.838	24209
841.975	24273
842.112	24148
842.249	24041
842.385	24041
842.522	24148
842.659	24205
842.796	23931
842.933	24079
843.069	24125
843.206	23992
843.343	24030
843.479	24053
843.616	24125
843.752	23767
843.889	23889
844.025	23927
844.162	23733
844.298	23847
844.435	23771
844.571	23794
844.708	23745
844.844	23992
844.98	23893
845.117	23935
845.253	23798
845.389	23627
845.525	23699
845.661	23509
845.798	23433
845.934	23619
846.07	23448
846.206	23596
846.342	23619
846.478	23604
846.614	23353
846.75	23197
846.886	23284
847.022	23383
847.158	23303
847.294	23303
847.429	23395
847.565	23250
847.701	23501
847.837	23010
847.972	22900
848.108	23098
848.244	23124
848.379	22801
848.515	22839
848.65	22793
848.786	22820
848.921	22881
849.057	22854
849.192	22866
849.328	22809
849.463	22805
849.598	22904
849.734	22736
849.869	22630
850.004	22710
850.14	22611
850.275	22512
850.41	22474
850.545	22584
850.68	22611
850.815	22535
850.95	22497
851.085	22908
851.22	22725
851.355	22577
851.49	22637
851.625	22577
851.76	22679
851.895	22557
852.03	22554
852.165	22748
852.299	22500
852.434	22645
852.569	22672
852.703	22687
852.838	22664
852.973	22801
853.107	22660
853.242	22557
853.376	22398
853.511	22310
853.645	22459
853.78	22531
853.914	22436
854.048	22428
854.183	22436
854.317	22428
854.451	22569
854.585	22440
854.72	22497
854.854	22485
854.988	22276
855.122	22554
855.256	22325
855.39	22409
855.524	22402
855.658	22554
855.792	22405
855.926	22398
856.06	22443
856.194	22497
856.327	22375
856.461	22390
856.595	22234
856.729	22379
856.862	22550
856.996	22519
857.13	22428
857.263	22478
857.397	22660
857.53	22325
857.664	22356
857.797	22584
857.931	22497
858.064	22504
858.197	22577
858.331	22535
858.464	22329
858.597	22299
858.731	22459
858.864	22428
858.997	22329
859.13	22436
859.263	22382
859.396	22603
859.529	22382
859.662	22360
859.795	22428
859.928	22462
860.061	22523
860.194	22653
860.327	22512
860.46	22402
860.592	22664
860.725	22493
860.858	22683
860.99	22367
861.123	22363
861.256	22306
861.388	22375
861.521	23033
861.653	22299
861.786	22249
861.918	22299
862.05	22356
862.183	22344
862.315	22402
862.447	22398
862.58	22348
862.712	22177
862.844	22006
862.976	22303
863.108	22253
863.24	22725
863.372	22101
863.504	22097
863.636	22116
863.768	22265
863.9	22131
864.032	22074
864.164	22086
864.296	22173
864.428	22295
864.559	22306
864.691	22280
864.823	22223
864.954	22105
865.086	22070
865.217	22013
865.349	21850
865.48	21956
865.612	22017
865.743	22185
865.875	22181
866.006	21998
866.137	22013
866.269	22048
866.4	21911
866.531	21956
866.662	21968
866.793	21911
866.924	21949
867.055	21972
867.186	22036
867.317	21800
867.448	21755
867.579	21838
867.71	21846
867.841	21861
867.972	21941
868.103	21953
868.233	22105
868.364	21930
868.495	22090
868.625	22295
868.756	22128
868.886	22128
869.017	22200
869.147	22306
869.278	22284
869.408	22234
869.539	22147
869.669	22299
869.799	22291
869.929	22356
870.06	22337
870.19	22588
870.32	22371
870.45	22497
870.58	22580
870.71	22759
870.84	22683
870.97	22592
871.1	22519
871.23	22797
871.36	22664
871.489	22493
871.619	22733
871.749	22733
871.879	22725
872.008	22835
872.138	22748
872.267	22782
872.397	22599
872.526	22577
872.656	22557
872.785	22531
872.915	22713
873.044	22949
873.173	22797
873.303	22847
873.432	22835
873.561	22835
873.69	22847
873.819	22691
873.948	22839
874.077	22797
874.206	22729
874.335	22919
874.464	22850
874.593	22881
874.722	22927
874.851	23117
874.979	22984
875.108	23044
875.237	22927
875.365	22946
875.494	22915
875.623	23071
875.751	22949
875.88	23121
876.008	23048
876.136	23117
876.265	23398
876.393	23520
876.521	23421
876.65	23471
876.778	23425
876.906	23398
877.034	23414
877.162	23341
877.29	23383
877.418	23440
877.546	23277
877.674	23387
877.802	23379
877.93	23471
878.058	23292
878.185	23185
878.313	23410
878.441	23341
878.568	23140
878.696	23239
878.824	23330
878.951	23486
879.079	23524
879.206	23687
879.333	23505
879.461	23330
879.588	23486
879.715	23493
879.842	23699
879.97	23387
880.097	23136
880.224	23239
880.351	23372
880.478	23151
880.605	23071
880.732	23208
880.859	23376
880.986	23277
881.112	23193
881.239	23022
881.366	22786
881.493	22778
881.619	22744
881.746	22763
881.872	22843
881.999	22656
882.125	22717
882.252	22831
882.378	22694
882.505	22839
882.631	22603
882.757	22386
882.883	22428
883.01	22436
883.136	22280
883.262	22207
883.388	22166
883.514	22417
883.64	22394
883.766	22367
883.892	22082
884.018	22246
884.143	22417
884.269	22409
884.395	22265
884.52	22082
884.646	22090
884.772	21983
884.897	21949
885.023	22147
885.148	22078
885.274	22147
885.399	22177
885.524	22086
885.65	22055
885.775	22101
885.9	22040
886.025	22181
886.15	22086
886.275	22032
886.4	21949
886.525	22006
886.65	21869
886.775	22002
886.9	22200
887.025	22211
887.149	22044
887.274	21831
887.399	21873
887.523	21953
887.648	21838
887.773	21743
887.897	21998
888.021	21854
888.146	21770
888.27	21857
888.395	21956
888.519	21838
888.643	21915
888.767	21869
888.891	21701
889.015	21603
889.139	21614
889.263	21648
889.387	21755
889.511	21720
889.635	21679
889.759	21492
889.883	21610
890.006	21572
890.13	21618
890.254	21473
890.377	21462
890.501	21382
890.624	21359
890.748	21374
890.871	21321
890.995	21184
891.118	21176
891.241	21184
891.364	21249
891.488	21306
891.611	21093
891.734	21013
891.857	21104
891.98	21135
892.103	21249
892.226	21230
892.349	21180
892.471	21009
892.594	21070
892.717	21131
892.839	21001
892.962	21055
893.085	21108
893.207	21013
893.33	20952
893.452	21032
893.575	21017
893.697	21146
893.819	21070
893.941	21233
894.064	21138
894.186	20918
894.308	20975
894.43	21089
894.552	21188
894.674	21123
894.796	20975
894.918	20895
895.04	21039
895.161	21070
895.283	21119
895.405	20990
895.526	21047
895.648	21062
895.769	20975
895.891	20998
896.012	20921
896.134	21089
896.255	21005
896.376	21096
896.498	20994
896.619	21089
896.74	20967
896.861	21047
896.982	21359
897.103	21405
897.224	21359
897.345	21291
897.466	21085
897.587	21237
897.708	21382
897.828	21173
897.949	21074
898.07	21119
898.19	21203
898.311	21291
898.431	21211
898.552	21192
898.672	21264
898.792	21329
898.913	21272
899.033	21157
899.153	21017
899.273	20910
899.393	20880
899.513	20887
899.633	20952
899.753	20823
899.873	20914
899.993	20876
900.113	20838
900.232	20880
900.352	20754
900.472	20887
900.591	20697
900.711	20754
900.83	20746
900.95	20697
901.069	20762
901.189	20537
901.308	20309
901.427	20339
901.546	20267
901.665	20370
901.784	20362
901.904	20130
902.023	20092
902.141	19833
902.26	19826
902.379	19860
902.498	19788
902.617	19917
902.735	19944
902.854	19731
902.973	19662
903.091	19400
903.21	19445
903.328	19506
903.446	19453
903.565	19297
903.683	19206
903.801	19126
903.919	19244
904.038	19133
904.156	19046
904.274	19114
904.392	18996
904.51	18996
904.627	18935
904.745	19027
904.863	19118
904.981	18916
905.098	18677
905.216	18574
905.334	18707
905.451	18681
905.569	18631
905.686	18707
905.803	18677
905.921	18467
906.038	18509
906.155	18471
906.272	18380
906.389	18357
906.506	18258
906.623	18232
906.74	18171
906.857	18117
906.974	18106
907.091	18178
907.208	18251
907.324	18258
907.441	18144
907.557	17977
907.674	17939
907.79	17889
907.907	17863
908.023	17828
908.139	17866
908.256	17847
908.372	17794
908.488	17798
908.604	17486
908.72	17592
908.836	17611
908.952	17642
909.068	17608
909.184	17748
909.3	17684
909.415	17615
909.531	17668
909.647	17345
909.762	17292
909.878	17299
909.993	17349
910.108	17174
910.224	17387
910.339	17265
910.454	17239
910.57	17083
910.685	17064
910.8	17292
910.915	17242
911.03	17124
911.145	17022
911.259	16904
911.374	16915
911.489	16805
911.604	16774
911.718	16626
911.833	16584
911.947	16588
912.062	16535
912.176	16630
912.291	16592
912.405	16687
912.519	16755
912.633	16767
912.748	16675
912.862	16584
912.976	16443
913.09	16337
913.204	16428
913.318	16523
913.431	16470
913.545	16497
913.659	16611
913.772	16310
913.886	16303
914	16135
914.113	16318
914.226	16382
914.34	16257
914.453	16185
914.566	16116
914.68	16173
914.793	16166
914.906	15884
915.019	15800
915.132	15884
915.245	15774
915.358	15743
915.47	15869
915.583	15892
915.696	15846
915.809	15922
915.921	15953
916.034	15747
916.146	15732
916.259	15667
916.371	15736
916.483	15789
916.595	15641
916.708	15618
916.82	15717
916.932	15587
917.044	15675
917.156	15511
917.268	15462
917.38	15515
917.491	15492
917.603	15500
917.715	15591
917.826	15610
917.938	15386
918.049	15435
918.161	15469
918.272	15500
918.384	15549
918.495	15428
918.606	15256
918.717	15222
918.828	15218
918.939	15283
919.05	15169
919.161	15188
919.272	14960
919.383	15077
919.494	15222
919.604	15359
919.715	15188
919.826	15131
919.936	15157
920.047	15173
920.157	15165
920.267	15393
920.378	15275
920.488	15222
920.598	15355
920.708	15477
920.818	15370
920.928	15287
921.038	15466
921.148	15431
921.258	15138
921.368	15104
921.477	14876
921.587	14781
921.697	14830
921.806	15001
921.916	14716
922.025	14507
922.134	14564
922.244	14549
922.353	14632
922.462	14366
922.571	14328
922.68	14172
922.789	14206
922.898	14210
923.007	14142
923.116	14256
923.224	14130
923.333	14164
923.442	13993
923.55	13997
923.659	14073
923.767	14084
923.876	14001
923.984	14020
924.092	13856
924.201	13845
924.309	13955
924.417	13860
924.525	13849
924.633	13841
924.741	14815
924.849	13658
924.956	13799
925.064	13586
925.172	13540
925.279	13613
925.387	13712
925.494	13620
925.602	13616
925.709	13544
925.816	13453
925.924	13586
926.031	13514
926.138	13468
926.245	13552
926.352	13331
926.459	13487
926.566	13521
926.673	13495
926.779	13293
926.886	13259
926.993	13171
927.099	13084
927.206	13084
927.312	13065
927.419	13126
927.525	13061
927.631	13103
927.737	13038
927.843	12954
927.95	12795
928.056	12935
928.162	12905
928.267	12951
928.373	13594
928.479	13084
928.585	12726
928.69	12814
928.796	12897
928.901	12741
929.007	12589
929.112	12798
929.218	12715
929.323	12623
929.428	12566
929.533	12783
929.638	12597
929.743	12635
929.848	12681
929.953	12563
930.058	12486
930.163	12277
930.267	12289
930.372	12418
930.477	12285
930.581	12559
930.685	12319
930.79	12133
930.894	12155
930.998	12110
931.103	12346
931.207	11878
931.311	11840
931.415	11760
931.519	11566
931.623	11562
