Data from test_V78500241_3209.txt Node
Date: Fri Mar 25 16:04:01 CST 2022
User: usil
Spectrometer: V785-0024
Trigger mode: 0
Integration Time (sec): 4.000000E-1
Scans to average: 1
Nonlinearity correction enabled: false
Boxcar width: 0
Storing dark spectrum: false
XAxis mode: Wavelengths
Number of Pixels in Spectrum: 1024
>>>>>Begin Spectral Data<<<<<
801.071	28577
801.214	28618
801.356	28455
801.499	28329
801.641	28143
801.783	28200
801.926	28242
802.068	28135
802.211	28238
802.353	28158
802.496	28090
802.638	28067
802.78	27880
802.923	27835
803.065	27747
803.208	27941
803.35	27937
803.492	28150
803.635	28044
803.777	28051
803.919	28299
804.061	28569
804.204	28261
804.346	28135
804.488	28124
804.63	28192
804.773	28139
804.915	28215
805.057	28306
805.199	28432
805.341	28291
805.483	28447
805.626	28325
805.768	28310
805.91	28257
806.052	28280
806.194	28367
806.336	28516
806.478	28348
806.62	28306
806.762	28398
806.904	28687
807.046	28866
807.188	28763
807.33	28843
807.472	28736
807.614	28805
807.756	28672
807.898	28622
808.04	28577
808.182	28618
808.324	28683
808.465	28736
808.607	28824
808.749	29159
808.891	29166
809.033	29109
809.174	29010
809.316	28968
809.458	29124
809.6	28999
809.741	29064
809.883	29113
810.025	29288
810.166	29307
810.308	29250
810.45	29143
810.591	29239
810.733	29041
810.875	29128
811.016	28995
811.158	28923
811.299	29231
811.441	29280
811.582	29265
811.724	29098
811.865	29200
812.007	29170
812.148	29033
812.29	29132
812.431	29356
812.573	29425
812.714	29402
812.855	29528
812.997	29638
813.138	29874
813.279	29729
813.421	29531
813.562	29501
813.703	29402
813.845	29315
813.986	29029
814.127	28831
814.268	28866
814.41	28698
814.551	28911
814.692	28900
814.833	28713
814.974	28508
815.115	28771
815.256	28634
815.397	28668
815.539	28687
815.68	28717
815.821	28462
815.962	28679
816.103	28622
816.244	28344
816.385	28417
816.526	28375
816.666	28112
816.807	27926
816.948	28105
817.089	28238
817.23	28249
817.371	28021
817.512	28112
817.653	27949
817.793	27899
817.934	28055
818.075	28185
818.216	28109
818.356	28055
818.497	27956
818.638	27914
818.778	27838
818.919	27854
819.06	28036
819.2	28074
819.341	28032
819.481	28109
819.622	28268
819.762	28386
819.903	28367
820.043	28268
820.184	28181
820.324	28230
820.465	28291
820.605	28207
820.746	28051
820.886	27998
821.026	28158
821.167	28147
821.307	28246
821.447	28067
821.588	27968
821.728	27911
821.868	27774
822.008	27587
822.149	27660
822.289	27553
822.429	27241
822.569	27260
822.709	27325
822.849	27146
822.99	27119
823.13	26982
823.27	27070
823.41	26933
823.55	26765
823.69	26838
823.83	26857
823.97	26899
824.11	26629
824.25	26514
824.389	26663
824.529	26804
824.669	26693
824.809	26815
824.949	26842
825.089	26727
825.228	26785
825.368	26511
825.508	26609
825.648	26667
825.787	26667
825.927	26815
826.067	26640
826.206	26670
826.346	26579
826.485	26781
826.625	26678
826.765	26629
826.904	26701
827.044	26328
827.183	26332
827.323	26199
827.462	26396
827.601	26419
827.741	26362
827.88	26442
828.02	26180
828.159	26138
828.298	26339
828.437	26446
828.577	26229
828.716	26313
828.855	26115
828.994	26001
829.134	26027
829.273	26050
829.412	26065
829.551	25917
829.69	26020
829.829	25993
829.968	26130
830.107	26122
830.246	26062
830.385	25978
830.524	25894
830.663	25712
830.802	25852
830.941	25666
831.08	25670
831.219	25613
831.357	25681
831.496	25769
831.635	25635
831.774	25582
831.913	25537
832.051	25422
832.19	25407
832.329	25499
832.467	25369
832.606	25206
832.744	25221
832.883	25285
833.022	25343
833.16	25297
833.299	25282
833.437	25373
833.576	25373
833.714	25510
833.852	25525
833.991	25559
834.129	25350
834.267	25419
834.406	25339
834.544	25362
834.682	25339
834.821	25274
834.959	25430
835.097	25274
835.235	25381
835.373	25285
835.511	25335
835.65	25156
835.788	25110
835.926	25145
836.064	25004
836.202	24977
836.34	25179
836.478	25259
836.615	25122
836.753	25107
836.891	25301
837.029	25137
837.167	25145
837.305	25080
837.443	25034
837.58	24973
837.718	25183
837.856	24985
837.993	24996
838.131	24973
838.269	24962
838.406	24943
838.544	24768
838.681	24616
838.819	24681
838.956	24445
839.094	24323
839.231	24490
839.369	24688
839.506	24863
839.643	24684
839.781	24410
839.918	24433
840.055	24452
840.193	24452
840.33	24384
840.467	24391
840.604	24380
840.742	24589
840.879	24224
841.016	24228
841.153	24380
841.29	24456
841.427	24445
841.564	24464
841.701	24323
841.838	24285
841.975	24289
842.112	24220
842.249	24136
842.385	24129
842.522	24327
842.659	24270
842.796	24266
842.933	24148
843.069	24174
843.206	24083
843.343	24254
843.479	24266
843.616	24239
843.752	24007
843.889	24106
844.025	23942
844.162	23775
844.298	24038
844.435	23958
844.571	23870
844.708	24015
844.844	24148
844.98	24129
845.117	23988
845.253	23828
845.389	23745
845.525	23680
845.661	23786
845.798	23642
845.934	23748
846.07	23649
846.206	23676
846.342	23832
846.478	23684
846.614	23406
846.75	23383
846.886	23311
847.022	23383
847.158	23398
847.294	23356
847.429	23512
847.565	23345
847.701	23528
847.837	23098
847.972	23083
848.108	23121
848.244	23155
848.379	22987
848.515	22987
848.65	22847
848.786	23014
848.921	23014
849.057	23029
849.192	23025
849.328	22972
849.463	22904
849.598	22930
849.734	22828
849.869	22809
850.004	22744
850.14	22752
850.275	22691
850.41	22656
850.545	22828
850.68	22736
850.815	22778
850.95	22721
851.085	22850
851.22	22866
851.355	22710
851.49	22725
851.625	22706
851.76	22782
851.895	22694
852.03	22573
852.165	22774
852.299	22630
852.434	22664
852.569	22615
852.703	22729
852.838	22668
852.973	22885
853.107	22961
853.242	22645
853.376	22459
853.511	22466
853.645	22493
853.78	22660
853.914	22481
854.048	22512
854.183	22508
854.317	22489
854.451	22687
854.585	22451
854.72	22592
854.854	22592
854.988	22493
855.122	22542
855.256	22390
855.39	22554
855.524	22531
855.658	22550
855.792	22546
855.926	22550
856.06	22535
856.194	22641
856.327	22603
856.461	22645
856.595	22474
856.729	22497
856.862	22641
856.996	22565
857.13	22637
857.263	22664
857.397	22546
857.53	22493
857.664	22611
857.797	22660
857.931	22645
858.064	22542
858.197	22668
858.331	22535
858.464	22546
858.597	22367
858.731	22519
858.864	22538
858.997	22592
859.13	22531
859.263	22523
859.396	22603
859.529	22489
859.662	22622
859.795	22615
859.928	22561
860.061	22618
860.194	22809
860.327	22497
860.46	22500
860.592	22675
860.725	22668
860.858	22634
860.99	22546
861.123	22436
861.256	22436
861.388	22569
861.521	23200
861.653	22394
861.786	22386
861.918	22242
862.05	22432
862.183	22493
862.315	22470
862.447	22474
862.58	22432
862.712	22246
862.844	22143
862.976	22299
863.108	22367
863.24	22649
863.372	22192
863.504	22295
863.636	22265
863.768	22299
863.9	22291
864.032	22143
864.164	22261
864.296	22249
864.428	22363
864.559	22318
864.691	22337
864.823	22226
864.954	22329
865.086	22268
865.217	22223
865.349	22070
865.48	22173
865.612	22097
865.743	22341
865.875	22090
866.006	22040
866.137	22158
866.269	22078
866.4	22082
866.531	22143
866.662	21983
866.793	22055
866.924	22147
867.055	21975
867.186	22112
867.317	21850
867.448	22036
867.579	22036
867.71	21972
867.841	22021
867.972	22097
868.103	21888
868.233	21983
868.364	22090
868.495	22036
868.625	22177
868.756	22356
868.886	22162
869.017	22310
869.147	22409
869.278	22360
869.408	22344
869.539	22322
869.669	22375
869.799	22261
869.929	22451
870.06	22287
870.19	22569
870.32	22527
870.45	22706
870.58	22683
870.71	22702
870.84	22866
870.97	22634
871.1	22763
871.23	22896
871.36	22854
871.489	22820
871.619	22816
871.749	22900
871.879	22892
872.008	23121
872.138	22961
872.267	22892
872.397	22904
872.526	22782
872.656	22801
872.785	22850
872.915	22862
873.044	23014
873.173	23056
873.303	22911
873.432	23029
873.561	22984
873.69	22938
873.819	22911
873.948	22900
874.077	23041
874.206	22896
874.335	22866
874.464	23003
874.593	23151
874.722	23200
874.851	23174
874.979	23159
875.108	23052
875.237	23014
875.365	23037
875.494	23143
875.623	23193
875.751	23064
875.88	23166
876.008	23239
876.136	23326
876.265	23630
876.393	23577
876.521	23505
876.65	23577
876.778	23467
876.906	23474
877.034	23520
877.162	23501
877.29	23516
877.418	23330
877.546	23410
877.674	23402
877.802	23459
877.93	23520
878.058	23353
878.185	23246
878.313	23486
878.441	23455
878.568	23311
878.696	23349
878.824	23562
878.951	23634
879.079	23668
879.206	23760
879.333	23558
879.461	23448
879.588	23630
879.715	23684
879.842	23707
879.97	23490
880.097	23288
880.224	23254
880.351	23341
880.478	23212
880.605	23235
880.732	23223
880.859	23497
880.986	23303
881.112	23292
881.239	23102
881.366	23056
881.493	22831
881.619	22839
881.746	22850
881.872	22828
881.999	22801
882.125	22740
882.252	22904
882.378	22767
882.505	22915
882.631	22805
882.757	22561
882.883	22596
883.01	22577
883.136	22493
883.262	22436
883.388	22322
883.514	22512
883.64	22512
883.766	22318
883.892	22299
884.018	22310
884.143	22466
884.269	22519
884.395	22128
884.52	22188
884.646	22158
884.772	22158
884.897	22029
885.023	22246
885.148	22204
885.274	22204
885.399	22257
885.524	22120
885.65	22090
885.775	22166
885.9	22112
886.025	22143
886.15	22265
886.275	22090
886.4	22036
886.525	22002
886.65	22048
886.775	22021
886.9	22090
887.025	22375
887.149	22051
887.274	21945
887.399	21892
887.523	21915
887.648	21926
887.773	21717
887.897	21987
888.021	21899
888.146	21819
888.27	22128
888.395	21968
888.519	21911
888.643	21987
888.767	21865
888.891	21804
889.015	21747
889.139	21759
889.263	21625
889.387	21732
889.511	21937
889.635	21827
889.759	21682
889.883	21587
890.006	21861
890.13	21724
890.254	21610
890.377	21701
890.501	21519
890.624	21405
890.748	21492
890.871	21397
890.995	21199
891.118	21161
891.241	21321
891.364	21279
891.488	21416
891.611	21283
891.734	21260
891.857	21249
891.98	21291
892.103	21226
892.226	21252
892.349	21260
892.471	21062
892.594	21157
892.717	21211
892.839	21001
892.962	21123
893.085	21142
893.207	21104
893.33	21039
893.452	21116
893.575	21173
893.697	21077
893.819	21230
893.941	21310
894.064	21329
894.186	21226
894.308	21032
894.43	21230
894.552	21294
894.674	21249
894.796	21096
894.918	21195
895.04	21066
895.161	21176
895.283	21096
895.405	20952
895.526	21184
895.648	21032
895.769	21081
895.891	21032
896.012	21230
896.134	21180
896.255	21146
896.376	20994
896.498	21119
896.619	21093
896.74	21039
896.861	21150
896.982	21462
897.103	21568
897.224	21378
897.345	21329
897.466	21131
897.587	21298
897.708	21408
897.828	21306
897.949	21214
898.07	21306
898.19	21317
898.311	21237
898.431	21165
898.552	21233
898.672	21313
898.792	21386
898.913	21336
899.033	21264
899.153	21104
899.273	21017
899.393	20982
899.513	21074
899.633	21100
899.753	20975
899.873	21009
899.993	21070
900.113	20982
900.232	20933
900.352	21005
900.472	20781
900.591	20758
900.711	20815
900.83	20609
900.95	20910
901.069	20849
901.189	20758
901.308	20442
901.427	20431
901.546	20332
901.665	20461
901.784	20465
901.904	20248
902.023	20180
902.141	19917
902.26	19765
902.379	19951
902.498	19883
902.617	19788
902.735	20031
902.854	19856
902.973	19856
903.091	19540
903.21	19521
903.328	19518
903.446	19472
903.565	19362
903.683	19369
903.801	19244
903.919	19419
904.038	19274
904.156	19168
904.274	19183
904.392	19091
904.51	19095
904.627	19046
904.745	19114
904.863	19053
904.981	18783
905.098	18829
905.216	18772
905.334	18848
905.451	18768
905.569	18681
905.686	18825
905.803	18692
905.921	18612
906.038	18669
906.155	18536
906.272	18384
906.389	18445
906.506	18258
906.623	18350
906.74	18350
906.857	18117
906.974	18300
907.091	18300
907.208	18308
907.324	18262
907.441	18182
907.557	18034
907.674	18083
907.79	17874
907.907	17927
908.023	17992
908.139	18019
908.256	18011
908.372	17824
908.488	17901
908.604	17798
908.72	17710
908.836	17722
908.952	17592
909.068	17707
909.184	17741
909.3	17642
909.415	17657
909.531	17695
909.647	17368
909.762	17414
909.878	17402
909.993	17554
910.108	17391
910.224	17330
910.339	17436
910.454	17246
910.57	17212
910.685	17102
910.8	17360
910.915	17296
911.03	17159
911.145	17029
911.259	16999
911.374	17014
911.489	16847
911.604	16820
911.718	16683
911.833	16797
911.947	16736
912.062	16561
912.176	16706
912.291	16752
912.405	16850
912.519	16946
912.633	16831
912.748	16797
912.862	16664
912.976	16573
913.09	16402
913.204	16512
913.318	16645
913.431	16607
913.545	16561
913.659	16637
913.772	16607
913.886	16436
914	16367
914.113	16371
914.226	16360
914.34	16447
914.453	16268
914.566	16310
914.68	16143
914.793	16166
914.906	16002
915.019	15934
915.132	15804
915.245	15861
915.358	15888
915.47	15922
915.583	15884
915.696	15949
915.809	16036
915.921	15911
916.034	15819
916.146	15812
916.259	15736
916.371	15842
916.483	15876
916.595	15660
916.708	15690
916.82	15713
916.932	15656
917.044	15675
917.156	15667
917.268	15572
917.38	15576
917.491	15530
917.603	15595
917.715	15576
917.826	15553
917.938	15519
918.049	15275
918.161	15412
918.272	15526
918.384	15519
918.495	15374
918.606	15370
918.717	15226
918.828	15272
918.939	15332
919.05	15142
919.161	15195
919.272	15123
919.383	15024
919.494	15306
919.604	15420
919.715	15199
919.826	15150
919.936	15176
920.047	15302
920.157	15116
920.267	15412
920.378	15222
920.488	15188
920.598	15428
920.708	15466
920.818	15466
920.928	15302
921.038	15557
921.148	15519
921.258	15287
921.368	15024
921.477	14891
921.587	14891
921.697	14743
921.806	14956
921.916	14731
922.025	14636
922.134	14659
922.244	14457
922.353	14621
922.462	14450
922.571	14434
922.68	14259
922.789	14138
922.898	14183
923.007	14145
923.116	14214
923.224	14130
923.333	14126
923.442	14073
923.55	14111
923.659	13993
923.767	14039
923.876	13947
923.984	14088
924.092	13841
924.201	13963
924.309	13902
924.417	13978
924.525	13776
924.633	13852
924.741	14625
924.849	13689
924.956	13719
925.064	13734
925.172	13578
925.279	13575
925.387	13632
925.494	13567
925.602	13670
925.709	13514
925.816	13430
925.924	13548
926.031	13605
926.138	13460
926.245	13556
926.352	13350
926.459	13540
926.566	13453
926.673	13445
926.779	13354
926.886	13202
926.993	13156
927.099	13118
927.206	13103
927.312	13069
927.419	13179
927.525	13175
927.631	13149
927.737	13000
927.843	13046
927.95	12878
928.056	12977
928.162	12943
928.267	12928
928.373	13472
928.479	13000
928.585	12878
928.69	12897
928.796	12886
928.901	12791
929.007	12582
929.112	12749
929.218	12711
929.323	12631
929.428	12616
929.533	12741
929.638	12589
929.743	12601
929.848	12696
929.953	12502
930.058	12479
930.163	12380
930.267	12277
930.372	12490
930.477	12285
930.581	12536
930.685	12388
930.79	12163
930.894	12194
930.998	12155
931.103	12296
931.207	12045
931.311	11855
931.415	11779
931.519	11596
931.623	11672
