Data from test_V78500241_1170.txt Node
Date: Fri Mar 25 15:49:54 CST 2022
User: usil
Spectrometer: V785-0024
Trigger mode: 0
Integration Time (sec): 4.000000E-1
Scans to average: 1
Nonlinearity correction enabled: false
Boxcar width: 0
Storing dark spectrum: false
XAxis mode: Wavelengths
Number of Pixels in Spectrum: 1024
>>>>>Begin Spectral Data<<<<<
801.071	28428
801.214	28215
801.356	28010
801.499	27918
801.641	27865
801.783	27861
801.926	27930
802.068	27808
802.211	27873
802.353	27747
802.496	27515
802.638	27587
802.78	27561
802.923	27424
803.065	27435
803.208	27507
803.35	27526
803.492	27610
803.635	27865
803.777	27644
803.919	27869
804.061	28226
804.204	27816
804.346	27595
804.488	27519
804.63	27682
804.773	27671
804.915	27709
805.057	27899
805.199	27675
805.341	27797
805.483	27899
805.626	27797
805.768	27705
805.91	27732
806.052	27876
806.194	27918
806.336	28040
806.478	27979
806.62	27903
806.762	28070
806.904	28162
807.046	28432
807.188	28268
807.33	28265
807.472	28329
807.614	28257
807.756	28394
807.898	28242
808.04	28158
808.182	28196
808.324	28158
808.465	28367
808.607	28474
808.749	28421
808.891	28721
809.033	28774
809.174	28675
809.316	28554
809.458	28538
809.6	28462
809.741	28755
809.883	28725
810.025	28919
810.166	28801
810.308	28934
810.45	28927
810.591	28839
810.733	28664
810.875	28790
811.016	28447
811.158	28478
811.299	28615
811.441	28938
811.582	28763
811.724	28755
811.865	28577
812.007	28607
812.148	28637
812.29	28702
812.431	28778
812.573	28900
812.714	29033
812.855	29067
812.997	29223
813.138	29334
813.279	29162
813.421	29204
813.562	29079
813.703	28938
813.845	28752
813.986	28504
814.127	28367
814.268	28261
814.41	28360
814.551	28333
814.692	28440
814.833	28325
814.974	28272
815.115	28268
815.256	28192
815.397	28131
815.539	28185
815.68	28261
815.821	28097
815.962	28063
816.103	28036
816.244	27956
816.385	28006
816.526	27835
816.666	27694
816.807	27629
816.948	27644
817.089	27656
817.23	27561
817.371	27587
817.512	27553
817.653	27618
817.793	27671
817.934	27545
818.075	27618
818.216	27538
818.356	27511
818.497	27420
818.638	27230
818.778	27325
818.919	27192
819.06	27374
819.2	27397
819.341	27515
819.481	27576
819.622	27850
819.762	27774
819.903	28070
820.043	27934
820.184	27819
820.324	27694
820.465	27743
820.605	27713
820.746	27759
820.886	27644
821.026	27682
821.167	27625
821.307	27736
821.447	27682
821.588	27450
821.728	27450
821.868	27287
822.008	27180
822.149	27005
822.289	27135
822.429	26891
822.569	26800
822.709	26826
822.849	26682
822.99	26590
823.13	26450
823.27	26461
823.41	26408
823.55	26271
823.69	26495
823.83	26575
823.97	26389
824.11	26180
824.25	26237
824.389	26229
824.529	26298
824.669	26240
824.809	26370
824.949	26339
825.089	26336
825.228	26248
825.368	26096
825.508	26168
825.648	26058
825.787	26035
825.927	26180
826.067	26027
826.206	26187
826.346	26256
826.485	26157
826.625	26103
826.765	26172
826.904	26164
827.044	25830
827.183	25814
827.323	25860
827.462	25963
827.601	25856
827.741	25833
827.88	25761
828.02	25715
828.159	25769
828.298	25955
828.437	26012
828.577	25674
828.716	25989
828.855	25655
828.994	25548
829.134	25540
829.273	25548
829.412	25548
829.551	25422
829.69	25639
829.829	25529
829.968	25639
830.107	25677
830.246	25487
830.385	25419
830.524	25403
830.663	25324
830.802	25206
830.941	25217
831.08	24992
831.219	25152
831.357	25160
831.496	25377
831.635	25053
831.774	25012
831.913	24901
832.051	24962
832.19	25015
832.329	24867
832.467	24920
832.606	24597
832.744	24821
832.883	24848
833.022	24707
833.16	24909
833.299	24882
833.437	24901
833.576	24943
833.714	24935
833.852	25008
833.991	24871
834.129	24852
834.267	24958
834.406	24772
834.544	24909
834.682	24810
834.821	24772
834.959	24970
835.097	24798
835.235	24833
835.373	24837
835.511	24745
835.65	24661
835.788	24825
835.926	24627
836.064	24540
836.202	24433
836.34	24779
836.478	24661
836.615	24582
836.753	24574
836.891	24806
837.029	24650
837.167	24715
837.305	24616
837.443	24498
837.58	24540
837.718	24578
837.856	24597
837.993	24403
838.131	24559
838.269	24323
838.406	24357
838.544	24224
838.681	24133
838.819	24095
838.956	23939
839.094	23950
839.231	24102
839.369	24239
839.506	24380
839.643	24346
839.781	23984
839.918	24015
840.055	24114
840.193	23927
840.33	23950
840.467	23893
840.604	23916
840.742	24171
840.879	23901
841.016	23767
841.153	23649
841.29	24102
841.427	23931
841.564	23923
841.701	23946
841.838	23828
841.975	23817
842.112	23859
842.249	23726
842.385	23805
842.522	23973
842.659	23611
842.796	23733
842.933	23653
843.069	23581
843.206	23695
843.343	23680
843.479	23695
843.616	23661
843.752	23330
843.889	23322
844.025	23653
844.162	23421
844.298	23505
844.435	23452
844.571	23273
844.708	23444
844.844	23505
844.98	23516
845.117	23600
845.253	23341
845.389	23315
845.525	23250
845.661	23147
845.798	23151
845.934	23170
846.07	23105
846.206	23170
846.342	23254
846.478	23121
846.614	22915
846.75	22797
846.886	22995
847.022	22957
847.158	23014
847.294	22869
847.429	22889
847.565	22927
847.701	23162
847.837	22611
847.972	22546
848.108	22782
848.244	22786
848.379	22607
848.515	22413
848.65	22603
848.786	22516
848.921	22478
849.057	22500
849.192	22561
849.328	22447
849.463	22645
849.598	22455
849.734	22356
849.869	22268
850.004	22226
850.14	22295
850.275	22261
850.41	22226
850.545	22128
850.68	22139
850.815	22329
850.95	22234
851.085	22371
851.22	22443
851.355	22261
851.49	22310
851.625	22158
851.76	22059
851.895	22192
852.03	22185
852.165	22230
852.299	22226
852.434	22500
852.569	22188
852.703	22272
852.838	22303
852.973	22242
853.107	22337
853.242	22219
853.376	21983
853.511	21998
853.645	21994
853.78	22173
853.914	22158
854.048	21972
854.183	22059
854.317	22055
854.451	22276
854.585	22101
854.72	22025
854.854	22181
854.988	22105
855.122	22032
855.256	21865
855.39	22044
855.524	22036
855.658	22109
855.792	22135
855.926	22036
856.06	22162
856.194	22284
856.327	21861
856.461	21987
856.595	22029
856.729	22105
856.862	22135
856.996	22059
857.13	22120
857.263	22166
857.397	22135
857.53	22070
857.664	22188
857.797	22207
857.931	22124
858.064	22116
858.197	22207
858.331	22063
858.464	22067
858.597	21922
858.731	22063
858.864	22040
858.997	21994
859.13	22048
859.263	22078
859.396	22124
859.529	22025
859.662	22002
859.795	22006
859.928	22093
860.061	22181
860.194	22223
860.327	22207
860.46	22131
860.592	22181
860.725	22185
860.858	22154
860.99	21994
861.123	22006
861.256	21968
861.388	22074
861.521	22740
861.653	21937
861.786	21865
861.918	21884
862.05	21918
862.183	22021
862.315	21983
862.447	22013
862.58	21861
862.712	21793
862.844	21766
862.976	21800
863.108	21861
863.24	22257
863.372	21644
863.504	21766
863.636	21827
863.768	21816
863.9	21682
864.032	21709
864.164	21614
864.296	21736
864.428	21720
864.559	21903
864.691	21732
864.823	21774
864.954	21838
865.086	21652
865.217	21698
865.349	21587
865.48	21568
865.612	21618
865.743	21793
865.875	21629
866.006	21580
866.137	21686
866.269	21557
866.4	21545
866.531	21564
866.662	21538
866.793	21641
866.924	21538
867.055	21458
867.186	21614
867.317	21583
867.448	21538
867.579	21477
867.71	21462
867.841	21564
867.972	21694
868.103	21485
868.233	21576
868.364	21549
868.495	21686
868.625	21755
868.756	21934
868.886	21785
869.017	21850
869.147	21945
869.278	21911
869.408	21876
869.539	21793
869.669	21892
869.799	21915
869.929	21994
870.06	21949
870.19	22044
870.32	22070
870.45	22097
870.58	22211
870.71	22306
870.84	22356
870.97	22291
871.1	22253
871.23	22440
871.36	22409
871.489	22276
871.619	22276
871.749	22375
871.879	22382
872.008	22500
872.138	22322
872.267	22474
872.397	22386
872.526	22318
872.656	22188
872.785	22291
872.915	22390
873.044	22550
873.173	22436
873.303	22432
873.432	22542
873.561	22535
873.69	22462
873.819	22508
873.948	22531
874.077	22542
874.206	22348
874.335	22474
874.464	22546
874.593	22679
874.722	22611
874.851	22584
874.979	22645
875.108	22691
875.237	22493
875.365	22615
875.494	22645
875.623	22782
875.751	22607
875.88	22702
876.008	22873
876.136	22843
876.265	23143
876.393	23162
876.521	22984
876.65	23064
876.778	23060
876.906	23014
877.034	22915
877.162	23060
877.29	22980
877.418	22991
877.546	23048
877.674	22877
877.802	23006
877.93	22976
878.058	22923
878.185	22767
878.313	22980
878.441	22930
878.568	22790
878.696	23018
878.824	23022
878.951	23044
879.079	23075
879.206	23200
879.333	23090
879.461	23052
879.588	23155
879.715	23143
879.842	23311
879.97	23140
880.097	22835
880.224	22889
880.351	22911
880.478	22820
880.605	22892
880.732	22763
880.859	23121
880.986	22786
881.112	22801
881.239	22596
881.366	22500
881.493	22497
881.619	22371
881.746	22455
881.872	22413
881.999	22371
882.125	22238
882.252	22516
882.378	22356
882.505	22421
882.631	22166
882.757	22116
882.883	22036
883.01	22101
883.136	21884
883.262	22006
883.388	21857
883.514	22044
883.64	22048
883.766	21960
883.892	21781
884.018	22032
884.143	21911
884.269	22116
884.395	21728
884.52	21641
884.646	21690
884.772	21587
884.897	21599
885.023	21717
885.148	21797
885.274	21736
885.399	21713
885.524	21755
885.65	21755
885.775	21732
885.9	21701
886.025	21789
886.15	21766
886.275	21568
886.4	21644
886.525	21690
886.65	21595
886.775	21576
886.9	21812
887.025	21979
887.149	21705
887.274	21416
887.399	21428
887.523	21382
887.648	21424
887.773	21310
887.897	21507
888.021	21618
888.146	21401
888.27	21507
888.395	21485
888.519	21428
888.643	21519
888.767	21515
888.891	21291
889.015	21207
889.139	21340
889.263	21203
889.387	21450
889.511	21488
889.635	21370
889.759	21192
889.883	21268
890.006	21207
890.13	21306
890.254	21184
890.377	21180
890.501	20967
890.624	20921
890.748	21077
890.871	20811
890.995	20777
891.118	20785
891.241	20819
891.364	20788
891.488	20952
891.611	20735
891.734	20777
891.857	20906
891.98	20830
892.103	20838
892.226	20891
892.349	20861
892.471	20594
892.594	20765
892.717	20667
892.839	20606
892.962	20663
893.085	20712
893.207	20693
893.33	20621
893.452	20625
893.575	20754
893.697	20708
893.819	20925
893.941	20857
894.064	20853
894.186	20602
894.308	20621
894.43	20857
894.552	20857
894.674	20826
894.796	20640
894.918	20629
895.04	20552
895.161	20659
895.283	20724
895.405	20651
895.526	20739
895.648	20693
895.769	20705
895.891	20621
896.012	20781
896.134	20689
896.255	20746
896.376	20644
896.498	20720
896.619	20648
896.74	20648
896.861	20655
896.982	20975
897.103	21089
897.224	20864
897.345	20861
897.466	20826
897.587	20895
897.708	21028
897.828	20948
897.949	20883
898.07	20880
898.19	20796
898.311	20944
898.431	20887
898.552	20948
898.672	20925
898.792	20982
898.913	20842
899.033	20811
899.153	20708
899.273	20564
899.393	20655
899.513	20632
899.633	20708
899.753	20648
899.873	20701
899.993	20716
900.113	20484
900.232	20476
900.352	20587
900.472	20552
900.591	20514
900.711	20389
900.83	20298
900.95	20415
901.069	20438
901.189	20244
901.308	20073
901.427	19947
901.546	20016
901.665	20050
901.784	20138
901.904	19784
902.023	19765
902.141	19533
902.26	19655
902.379	19639
902.498	19392
902.617	19350
902.735	19422
902.854	19400
902.973	19445
903.091	19168
903.21	19129
903.328	19099
903.446	19042
903.565	18947
903.683	18996
903.801	18863
903.919	18886
904.038	18863
904.156	18749
904.274	18779
904.392	18738
904.51	18673
904.627	18681
904.745	18684
904.863	18764
904.981	18490
905.098	18338
905.216	18330
905.334	18410
905.451	18448
905.569	18467
905.686	18346
905.803	18407
905.921	18171
906.038	18273
906.155	18213
906.272	18133
906.389	18182
906.506	17889
906.623	17996
906.74	17965
906.857	17817
906.974	17840
907.091	18045
907.208	18026
907.324	17847
907.441	17866
907.557	17687
907.674	17627
907.79	17497
907.907	17532
908.023	17638
908.139	17665
908.256	17501
908.372	17486
908.488	17547
908.604	17414
908.72	17345
908.836	17261
908.952	17277
909.068	17467
909.184	17493
909.3	17368
909.415	17372
909.531	17410
909.647	17227
909.762	16900
909.878	16980
909.993	17041
910.108	16900
910.224	16911
910.339	16908
910.454	17022
910.57	16847
910.685	16820
910.8	17041
910.915	16980
911.03	16774
911.145	16801
911.259	16653
911.374	16561
911.489	16561
911.604	16569
911.718	16314
911.833	16413
911.947	16322
912.062	16242
912.176	16295
912.291	16455
912.405	16371
912.519	16512
912.633	16558
912.748	16447
912.862	16325
912.976	16181
913.09	16078
913.204	16105
913.318	16158
913.431	16154
913.545	16230
913.659	16246
913.772	16249
913.886	16025
914	15926
914.113	16071
914.226	16109
914.34	15895
914.453	15869
914.566	15960
914.68	15831
914.793	15854
914.906	15606
915.019	15568
915.132	15618
915.245	15515
915.358	15587
915.47	15572
915.583	15549
915.696	15648
915.809	15641
915.921	15698
916.034	15515
916.146	15507
916.259	15378
916.371	15553
916.483	15428
916.595	15420
916.708	15416
916.82	15310
916.932	15336
917.044	15268
917.156	15264
917.268	15146
917.38	15207
917.491	15275
917.603	15268
917.715	15237
917.826	15268
917.938	15195
918.049	15039
918.161	15169
918.272	15321
918.384	15245
918.495	15074
918.606	14921
918.717	14902
918.828	14952
918.939	14929
919.05	14872
919.161	14864
919.272	14762
919.383	14838
919.494	15039
919.604	15184
919.715	14910
919.826	14845
919.936	14956
920.047	15032
920.157	14921
920.267	15131
920.378	14971
920.488	14937
920.598	15085
920.708	15199
920.818	14937
920.928	15070
921.038	15100
921.148	15123
921.258	14800
921.368	14712
921.477	14659
921.587	14640
921.697	14457
921.806	14644
921.916	14461
922.025	14419
922.134	14332
922.244	14168
922.353	14343
922.462	14191
922.571	14111
922.68	13959
922.789	13902
922.898	13967
923.007	13784
923.116	13833
923.224	13944
923.333	13917
923.442	13750
923.55	13677
923.659	13788
923.767	13826
923.876	13753
923.984	13780
924.092	13609
924.201	13700
924.309	13662
924.417	13624
924.525	13556
924.633	13544
924.741	14301
924.849	13369
924.956	13582
925.064	13362
925.172	13213
925.279	13324
925.387	13266
925.494	13228
925.602	13415
925.709	13270
925.816	13114
925.924	13247
926.031	13331
926.138	13247
926.245	13206
926.352	13149
926.459	13247
926.566	13324
926.673	13137
926.779	13034
926.886	13061
926.993	12932
927.099	12825
927.206	12833
927.312	12905
927.419	12924
927.525	12852
927.631	12901
927.737	12783
927.843	12745
927.95	12650
928.056	12616
928.162	12764
928.267	12673
928.373	13255
928.479	12734
928.585	12506
928.69	12631
928.796	12669
928.901	12502
929.007	12422
929.112	12555
929.218	12521
929.323	12479
929.428	12357
929.533	12540
929.638	12289
929.743	12270
929.848	12346
929.953	12346
930.058	12213
930.163	12041
930.267	12057
930.372	12247
930.477	12136
930.581	12262
930.685	12079
930.79	11946
930.894	11923
930.998	11923
931.103	12068
931.207	11805
931.311	11623
931.415	11459
931.519	11406
931.623	11223
