Data from test_V78500241_1775.txt Node
Date: Fri Mar 25 15:54:05 CST 2022
User: usil
Spectrometer: V785-0024
Trigger mode: 0
Integration Time (sec): 4.000000E-1
Scans to average: 1
Nonlinearity correction enabled: false
Boxcar width: 0
Storing dark spectrum: false
XAxis mode: Wavelengths
Number of Pixels in Spectrum: 1024
>>>>>Begin Spectral Data<<<<<
801.071	28725
801.214	28447
801.356	28230
801.499	28249
801.641	28192
801.783	28158
801.926	28109
802.068	28078
802.211	28032
802.353	27953
802.496	27922
802.638	27759
802.78	27793
802.923	27580
803.065	27583
803.208	27819
803.35	27812
803.492	28032
803.635	27994
803.777	27808
803.919	27854
804.061	28390
804.204	28051
804.346	27911
804.488	27987
804.63	27949
804.773	27808
804.915	28025
805.057	28029
805.199	27934
805.341	28070
805.483	28223
805.626	28128
805.768	28063
805.91	28044
806.052	28116
806.194	27983
806.336	28295
806.478	28169
806.62	28135
806.762	28371
806.904	28470
807.046	28778
807.188	28664
807.33	28542
807.472	28767
807.614	28573
807.756	28459
807.898	28474
808.04	28459
808.182	28432
808.324	28512
808.465	28615
808.607	28736
808.749	28908
808.891	28801
809.033	29052
809.174	28976
809.316	28831
809.458	28930
809.6	28637
809.741	28946
809.883	29075
810.025	29029
810.166	29060
810.308	29132
810.45	28968
810.591	29018
810.733	28934
810.875	28759
811.016	28729
811.158	28847
811.299	28869
811.441	29014
811.582	29052
811.724	28866
811.865	28854
812.007	28858
812.148	28797
812.29	28786
812.431	28934
812.573	29242
812.714	29197
812.855	29444
812.997	29459
813.138	29600
813.279	29326
813.421	29326
813.562	29292
813.703	29170
813.845	29067
813.986	28786
814.127	28546
814.268	28497
814.41	28672
814.551	28630
814.692	28653
814.833	28493
814.974	28535
815.115	28641
815.256	28398
815.397	28398
815.539	28531
815.68	28322
815.821	28310
815.962	28314
816.103	28322
816.244	28204
816.385	28131
816.526	28166
816.666	28032
816.807	27827
816.948	27876
817.089	27918
817.23	27979
817.371	27861
817.512	27869
817.653	27785
817.793	27728
817.934	27838
818.075	27842
818.216	27884
818.356	27838
818.497	27641
818.638	27568
818.778	27663
818.919	27606
819.06	27671
819.2	27759
819.341	27800
819.481	27827
819.622	28109
819.762	28215
819.903	28048
820.043	28021
820.184	27968
820.324	27911
820.465	27975
820.605	27960
820.746	27998
820.886	27804
821.026	28025
821.167	27861
821.307	28021
821.447	27987
821.588	27770
821.728	27766
821.868	27389
822.008	27378
822.149	27370
822.289	27230
822.429	26979
822.569	27028
822.709	26975
822.849	26902
822.99	26880
823.13	26883
823.27	26826
823.41	26674
823.55	26533
823.69	26788
823.83	26693
823.97	26545
824.11	26465
824.25	26396
824.389	26560
824.529	26689
824.669	26336
824.809	26636
824.949	26598
825.089	26484
825.228	26583
825.368	26404
825.508	26244
825.648	26347
825.787	26442
825.927	26514
826.067	26431
826.206	26298
826.346	26457
826.485	26400
826.625	26282
826.765	26511
826.904	26453
827.044	26107
827.183	26183
827.323	26096
827.462	26134
827.601	26096
827.741	26077
827.88	26172
828.02	25997
828.159	26077
828.298	25959
828.437	26088
828.577	25997
828.716	26240
828.855	26035
828.994	25651
829.134	25643
829.273	25795
829.412	25742
829.551	25791
829.69	25715
829.829	25734
829.968	25875
830.107	25727
830.246	25795
830.385	25769
830.524	25742
830.663	25506
830.802	25563
830.941	25324
831.08	25327
831.219	25403
831.357	25468
831.496	25544
831.635	25365
831.774	25396
831.913	25244
832.051	25331
832.19	25168
832.329	25110
832.467	25008
832.606	25099
832.744	24977
832.883	25065
833.022	25088
833.16	25179
833.299	25031
833.437	25015
833.576	25072
833.714	25126
833.852	25175
833.991	25179
834.129	25217
834.267	25126
834.406	25190
834.544	25278
834.682	25244
834.821	25114
834.959	25232
835.097	25183
835.235	25190
835.373	25187
835.511	25114
835.65	25000
835.788	24996
835.926	24947
836.064	24821
836.202	24890
836.34	24840
836.478	25114
836.615	24932
836.753	25000
836.891	25015
837.029	25027
837.167	24943
837.305	24795
837.443	24859
837.58	24749
837.718	24856
837.856	24856
837.993	24734
838.131	24817
838.269	24665
838.406	24707
838.544	24642
838.681	24407
838.819	24452
838.956	24239
839.094	24311
839.231	24254
839.369	24479
839.506	24646
839.643	24559
839.781	24315
839.918	24235
840.055	24243
840.193	24285
840.33	24110
840.467	24159
840.604	24266
840.742	24407
840.879	24045
841.016	24167
841.153	24041
841.29	24391
841.427	24098
841.564	24232
841.701	24129
841.838	24106
841.975	24087
842.112	24133
842.249	24030
842.385	23942
842.522	24121
842.659	23992
842.796	24018
842.933	23904
843.069	23832
843.206	23790
843.343	23988
843.479	23901
843.616	23916
843.752	23729
843.889	23623
844.025	23923
844.162	23699
844.298	23779
844.435	23699
844.571	23566
844.708	23764
844.844	23802
844.98	23832
845.117	23840
845.253	23668
845.389	23585
845.525	23592
845.661	23520
845.798	23436
845.934	23547
846.07	23345
846.206	23383
846.342	23528
846.478	23379
846.614	23128
846.75	23067
846.886	22991
847.022	23178
847.158	23341
847.294	23193
847.429	23140
847.565	23071
847.701	23414
847.837	22942
847.972	22778
848.108	22961
848.244	22927
848.379	22778
848.515	22763
848.65	22748
848.786	22740
848.921	22717
849.057	22858
849.192	22786
849.328	22645
849.463	22744
849.598	22607
849.734	22569
849.869	22569
850.004	22497
850.14	22580
850.275	22447
850.41	22424
850.545	22421
850.68	22390
850.815	22519
850.95	22459
851.085	22675
851.22	22622
851.355	22481
851.49	22459
851.625	22432
851.76	22493
851.895	22386
852.03	22417
852.165	22512
852.299	22546
852.434	22641
852.569	22599
852.703	22382
852.838	22637
852.973	22569
853.107	22618
853.242	22500
853.376	22379
853.511	22143
853.645	22261
853.78	22481
853.914	22436
854.048	22230
854.183	22344
854.317	22409
854.451	22436
854.585	22207
854.72	22447
854.854	22337
854.988	22265
855.122	22421
855.256	22226
855.39	22268
855.524	22470
855.658	22306
855.792	22261
855.926	22303
856.06	22440
856.194	22455
856.327	22287
856.461	22230
856.595	22158
856.729	22371
856.862	22451
856.996	22253
857.13	22352
857.263	22371
857.397	22417
857.53	22352
857.664	22306
857.797	22447
857.931	22375
858.064	22295
858.197	22481
858.331	22276
858.464	22207
858.597	22238
858.731	22219
858.864	22219
858.997	22333
859.13	22261
859.263	22303
859.396	22375
859.529	22329
859.662	22352
859.795	22249
859.928	22204
860.061	22398
860.194	22474
860.327	22310
860.46	22234
860.592	22276
860.725	22462
860.858	22440
860.99	22344
861.123	22276
861.256	22265
861.388	22409
861.521	22965
861.653	22150
861.786	22025
861.918	22223
862.05	22226
862.183	22196
862.315	22162
862.447	22284
862.58	22238
862.712	21941
862.844	22002
862.976	22021
863.108	22055
863.24	22284
863.372	21911
863.504	22078
863.636	22055
863.768	21968
863.9	22044
864.032	22029
864.164	21972
864.296	22070
864.428	22181
864.559	22044
864.691	22013
864.823	22105
864.954	21907
865.086	21987
865.217	21926
865.349	21926
865.48	21918
865.612	21873
865.743	22040
865.875	21922
866.006	21720
866.137	22002
866.269	21926
866.4	21831
866.531	21835
866.662	21766
866.793	21835
866.924	21698
867.055	21800
867.186	21975
867.317	21842
867.448	21667
867.579	21686
867.71	21743
867.841	21781
867.972	21793
868.103	21827
868.233	21926
868.364	21797
868.495	21945
868.625	22051
868.756	22074
868.886	22070
869.017	22158
869.147	22162
869.278	22257
869.408	22128
869.539	22048
869.669	22185
869.799	22032
869.929	22124
870.06	22124
870.19	22265
870.32	22348
870.45	22432
870.58	22405
870.71	22459
870.84	22470
870.97	22531
871.1	22436
871.23	22588
871.36	22664
871.489	22500
871.619	22611
871.749	22687
871.879	22641
872.008	22790
872.138	22634
872.267	22653
872.397	22535
872.526	22531
872.656	22580
872.785	22398
872.915	22660
873.044	22721
873.173	22580
873.303	22774
873.432	22717
873.561	22702
873.69	22557
873.819	22694
873.948	22679
874.077	22691
874.206	22687
874.335	22626
874.464	22809
874.593	22968
874.722	22896
874.851	22984
874.979	22927
875.108	22908
875.237	22900
875.365	22801
875.494	22847
875.623	22805
875.751	22774
875.88	22858
876.008	23044
876.136	23117
876.265	23277
876.393	23448
876.521	23337
876.65	23353
876.778	23288
876.906	23227
877.034	23277
877.162	23239
877.29	23155
877.418	23246
877.546	23220
877.674	23311
877.802	23189
877.93	23231
878.058	23250
878.185	23147
878.313	23181
878.441	23227
878.568	22976
878.696	23128
878.824	23212
878.951	23334
879.079	23436
879.206	23547
879.333	23406
879.461	23296
879.588	23425
879.715	23402
879.842	23490
879.97	23277
880.097	23052
880.224	23083
880.351	23071
880.478	23143
880.605	23018
880.732	23083
880.859	23288
880.986	23064
881.112	22919
881.239	22877
881.366	22790
881.493	22755
881.619	22599
881.746	22683
881.872	22691
881.999	22592
882.125	22565
882.252	22694
882.378	22588
882.505	22664
882.631	22405
882.757	22322
882.883	22348
883.01	22287
883.136	22348
883.262	22169
883.388	22295
883.514	22303
883.64	22489
883.766	22314
883.892	21998
884.018	21972
884.143	22230
884.269	22405
884.395	21994
884.52	21873
884.646	21975
884.772	21987
884.897	21915
885.023	21903
885.148	21994
885.274	22025
885.399	22006
885.524	21797
885.65	22006
885.775	21861
885.9	21991
886.025	22013
886.15	22048
886.275	21797
886.4	21941
886.525	21964
886.65	21823
886.775	21793
886.9	22082
887.025	22040
887.149	21827
887.274	21679
887.399	21660
887.523	21701
887.648	21599
887.773	21606
887.897	21812
888.021	21743
888.146	21652
888.27	21846
888.395	21781
888.519	21637
888.643	21717
888.767	21747
888.891	21625
889.015	21469
889.139	21580
889.263	21424
889.387	21526
889.511	21572
889.635	21572
889.759	21447
889.883	21561
890.006	21504
890.13	21469
890.254	21420
890.377	21443
890.501	21142
890.624	21192
890.748	21306
890.871	21020
890.995	21062
891.118	21005
891.241	20952
891.364	21001
891.488	21096
891.611	21085
891.734	20937
891.857	21013
891.98	21036
892.103	21058
892.226	21047
892.349	21017
892.471	20845
892.594	20800
892.717	20906
892.839	20876
892.962	21039
893.085	21081
893.207	20891
893.33	20727
893.452	20899
893.575	20910
893.697	21005
893.819	21009
893.941	21123
894.064	21077
894.186	20845
894.308	20842
894.43	21043
894.552	20971
894.674	20872
894.796	20845
894.918	20929
895.04	20815
895.161	21005
895.283	20925
895.405	20883
895.526	20902
895.648	20929
895.769	20914
895.891	20906
896.012	20937
896.134	20883
896.255	20952
896.376	20921
896.498	20880
896.619	20941
896.74	20952
896.861	20960
896.982	21325
897.103	21260
897.224	21127
897.345	21104
897.466	21055
897.587	21142
897.708	21226
897.828	21135
897.949	21055
898.07	20914
898.19	20975
898.311	21249
898.431	21047
898.552	21119
898.672	21180
898.792	21154
898.913	21161
899.033	21036
899.153	20883
899.273	20823
899.393	20849
899.513	20979
899.633	20857
899.753	20845
899.873	20785
899.993	20769
900.113	20785
900.232	20807
900.352	20773
900.472	20651
900.591	20621
900.711	20625
900.83	20636
900.95	20712
901.069	20720
901.189	20507
901.308	20244
901.427	20058
901.546	20180
901.665	20142
901.784	20084
901.904	20081
902.023	19917
902.141	19826
902.26	19651
902.379	19753
902.498	19788
902.617	19635
902.735	19708
902.854	19803
902.973	19605
903.091	19339
903.21	19392
903.328	19457
903.446	19297
903.565	19088
903.683	19194
903.801	19091
903.919	19114
904.038	19133
904.156	18935
904.274	18905
904.392	18882
904.51	18867
904.627	18848
904.745	18916
904.863	18825
904.981	18734
905.098	18608
905.216	18563
905.334	18627
905.451	18593
905.569	18601
905.686	18536
905.803	18601
905.921	18388
906.038	18422
906.155	18388
906.272	18311
906.389	18247
906.506	18152
906.623	18136
906.74	18117
906.857	17923
906.974	18034
907.091	18095
907.208	18300
907.324	18167
907.441	17961
907.557	17897
907.674	17946
907.79	17752
907.907	17889
908.023	17805
908.139	17874
908.256	17585
908.372	17699
908.488	17657
908.604	17471
908.72	17474
908.836	17512
908.952	17543
909.068	17444
909.184	17634
909.3	17539
909.415	17455
909.531	17497
909.647	17273
909.762	17189
909.878	17220
909.993	17105
910.108	17121
910.224	17155
910.339	17227
910.454	17132
910.57	17037
910.685	16919
910.8	17326
910.915	17140
911.03	17136
911.145	16736
911.259	16812
911.374	16850
911.489	16752
911.604	16653
911.718	16481
911.833	16531
911.947	16417
912.062	16455
912.176	16443
912.291	16599
912.405	16558
912.519	16748
912.633	16812
912.748	16584
912.862	16428
912.976	16436
913.09	16333
913.204	16390
913.318	16303
913.431	16462
913.545	16398
913.659	16527
913.772	16318
913.886	16242
914	16025
914.113	16158
914.226	16192
914.34	16128
914.453	16021
914.566	16135
914.68	16044
914.793	15979
914.906	15865
915.019	15762
915.132	15705
915.245	15751
915.358	15705
915.47	15656
915.583	15564
915.696	15812
915.809	15926
915.921	15854
916.034	15713
916.146	15698
916.259	15504
916.371	15686
916.483	15629
916.595	15488
916.708	15580
916.82	15557
916.932	15378
917.044	15580
917.156	15458
917.268	15370
917.38	15405
917.491	15306
917.603	15408
917.715	15466
917.826	15321
917.938	15310
918.049	15230
918.161	15382
918.272	15428
918.384	15302
918.495	15264
918.606	15135
918.717	15055
918.828	15161
918.939	15123
919.05	14952
919.161	15062
919.272	14842
919.383	14921
919.494	15100
919.604	15283
919.715	15081
919.826	15009
919.936	15028
920.047	15085
920.157	15001
920.267	15268
920.378	15020
920.488	15058
920.598	15154
920.708	15431
920.818	15184
920.928	15161
921.038	15313
921.148	15203
921.258	15036
921.368	14963
921.477	14785
921.587	14731
921.697	14663
921.806	14720
921.916	14587
922.025	14522
922.134	14389
922.244	14320
922.353	14419
922.462	14339
922.571	14290
922.68	14035
922.789	14107
922.898	14016
923.007	14027
923.116	14096
923.224	14031
923.333	14065
923.442	13852
923.55	13864
923.659	13864
923.767	13951
923.876	13830
923.984	13860
924.092	13746
924.201	13818
924.309	13738
924.417	13814
924.525	13700
924.633	13655
924.741	14507
924.849	13464
924.956	13582
925.064	13381
925.172	13396
925.279	13419
925.387	13556
925.494	13476
925.602	13605
925.709	13521
925.816	13335
925.924	13335
926.031	13441
926.138	13419
926.245	13362
926.352	13362
926.459	13411
926.566	13499
926.673	13209
926.779	13129
926.886	13118
926.993	12985
927.099	13042
927.206	12951
927.312	12837
927.419	12943
927.525	12993
927.631	12954
927.737	12848
927.843	12848
927.95	12753
928.056	12722
928.162	12856
928.267	12833
928.373	13567
928.479	12962
928.585	12646
928.69	12696
928.796	12753
928.901	12623
929.007	12597
929.112	12616
929.218	12608
929.323	12578
929.428	12464
929.533	12700
929.638	12418
929.743	12479
929.848	12410
929.953	12388
930.058	12353
930.163	12163
930.267	12243
930.372	12277
930.477	12106
930.581	12330
930.685	12251
930.79	12171
930.894	12175
930.998	12060
931.103	12178
931.207	11805
931.311	11767
931.415	11623
931.519	11509
931.623	11452
