Data from test_V78500241_441.txt Node
Date: Fri Mar 25 15:44:51 CST 2022
User: usil
Spectrometer: V785-0024
Trigger mode: 0
Integration Time (sec): 4.000000E-1
Scans to average: 1
Nonlinearity correction enabled: false
Boxcar width: 0
Storing dark spectrum: false
XAxis mode: Wavelengths
Number of Pixels in Spectrum: 1024
>>>>>Begin Spectral Data<<<<<
801.071	28946
801.214	28892
801.356	28588
801.499	28542
801.641	28504
801.783	28401
801.926	28516
802.068	28451
802.211	28356
802.353	28318
802.496	28257
802.638	28215
802.78	28242
802.923	28116
803.065	28169
803.208	28002
803.35	28021
803.492	28169
803.635	28230
803.777	28116
803.919	28101
804.061	28557
804.204	28401
804.346	28215
804.488	28131
804.63	28284
804.773	28055
804.915	28226
805.057	28489
805.199	28249
805.341	28379
805.483	28443
805.626	28401
805.768	28443
805.91	28432
806.052	28447
806.194	28333
806.336	28664
806.478	28531
806.62	28443
806.762	28588
806.904	28755
807.046	28900
807.188	28809
807.33	28949
807.472	28930
807.614	28831
807.756	28790
807.898	28721
808.04	28622
808.182	28653
808.324	28740
808.465	28664
808.607	28858
808.749	28961
808.891	29025
809.033	29223
809.174	29197
809.316	29124
809.458	29231
809.6	29090
809.741	29098
809.883	29330
810.025	29315
810.166	29166
810.308	29402
810.45	29356
810.591	29269
810.733	28934
810.875	29109
811.016	28949
811.158	28896
811.299	29041
811.441	29151
811.582	29235
811.724	29029
811.865	29132
812.007	28946
812.148	29014
812.29	28934
812.431	29193
812.573	29334
812.714	29414
812.855	29634
812.997	29657
813.138	29901
813.279	29783
813.421	29653
813.562	29577
813.703	29375
813.845	29307
813.986	28915
814.127	28866
814.268	28603
814.41	28805
814.551	28748
814.692	28592
814.833	28774
814.974	28527
815.115	28698
815.256	28557
815.397	28557
815.539	28683
815.68	28535
815.821	28417
815.962	28474
816.103	28508
816.244	28405
816.385	28428
816.526	28017
816.666	28029
816.807	28059
816.948	27956
817.089	28051
817.23	27994
817.371	28051
817.512	28010
817.653	28036
817.793	27903
817.934	28040
818.075	27903
818.216	27972
818.356	27926
818.497	27705
818.638	27576
818.778	27755
818.919	27732
819.06	27774
819.2	27819
819.341	27937
819.481	27903
819.622	28010
819.762	28268
819.903	28181
820.043	28051
820.184	27975
820.324	28017
820.465	28078
820.605	28139
820.746	28040
820.886	27964
821.026	27835
821.167	28006
821.307	28036
821.447	27838
821.588	27865
821.728	27766
821.868	27511
822.008	27420
822.149	27507
822.289	27447
822.429	27131
822.569	27150
822.709	27062
822.849	26944
822.99	26940
823.13	26773
823.27	26807
823.41	26731
823.55	26590
823.69	26735
823.83	26583
823.97	26731
824.11	26412
824.25	26541
824.389	26556
824.529	26674
824.669	26514
824.809	26518
824.949	26632
825.089	26602
825.228	26606
825.368	26355
825.508	26278
825.648	26343
825.787	26427
825.927	26476
826.067	26374
826.206	26248
826.346	26393
826.485	26358
826.625	26419
826.765	26377
826.904	26336
827.044	26062
827.183	26088
827.323	26050
827.462	26115
827.601	26077
827.741	26016
827.88	26073
828.02	25795
828.159	26046
828.298	25921
828.437	26088
828.577	26103
828.716	26039
828.855	25989
828.994	25811
829.134	25731
829.273	25906
829.412	25658
829.551	25780
829.69	25693
829.829	25769
829.968	25803
830.107	25761
830.246	25826
830.385	25658
830.524	25776
830.663	25510
830.802	25502
830.941	25327
831.08	25339
831.219	25381
831.357	25392
831.496	25525
831.635	25365
831.774	25282
831.913	25274
832.051	25175
832.19	24996
832.329	25255
832.467	25057
832.606	24966
832.744	24913
832.883	24970
833.022	25015
833.16	24916
833.299	25103
833.437	24958
833.576	25069
833.714	24977
833.852	25217
833.991	24954
834.129	25118
834.267	25126
834.406	25107
834.544	24966
834.682	25046
834.821	24958
834.959	25244
835.097	24901
835.235	24996
835.373	24954
835.511	25015
835.65	24935
835.788	24745
835.926	24631
836.064	24646
836.202	24692
836.34	24768
836.478	24939
836.615	24783
836.753	24856
836.891	24859
837.029	24901
837.167	24954
837.305	24623
837.443	24623
837.58	24502
837.718	24612
837.856	24673
837.993	24669
838.131	24559
838.269	24547
838.406	24570
838.544	24429
838.681	24205
838.819	24372
838.956	24136
839.094	24003
839.231	24277
839.369	24190
839.506	24452
839.643	24403
839.781	24106
839.918	23969
840.055	24041
840.193	24072
840.33	24057
840.467	24034
840.604	23999
840.742	24296
840.879	23897
841.016	23969
841.153	23977
841.29	24030
841.427	23946
841.564	24106
841.701	23958
841.838	23874
841.975	23916
842.112	23904
842.249	23821
842.385	23680
842.522	23969
842.659	23843
842.796	23551
842.933	23687
843.069	23672
843.206	23733
843.343	23764
843.479	23604
843.616	23665
843.752	23562
843.889	23566
844.025	23722
844.162	23425
844.298	23531
844.435	23463
844.571	23395
844.708	23440
844.844	23596
844.98	23554
845.117	23604
845.253	23379
845.389	23402
845.525	23368
845.661	23436
845.798	23208
845.934	23181
846.07	23212
846.206	23147
846.342	23368
846.478	23235
846.614	22911
846.75	22885
846.886	22968
847.022	23083
847.158	23041
847.294	22915
847.429	22980
847.565	22930
847.701	22999
847.837	22660
847.972	22630
848.108	22748
848.244	22622
848.379	22550
848.515	22451
848.65	22485
848.786	22466
848.921	22637
849.057	22577
849.192	22607
849.328	22516
849.463	22440
849.598	22424
849.734	22276
849.869	22204
850.004	22181
850.14	22287
850.275	22112
850.41	22204
850.545	22219
850.68	22223
850.815	22310
850.95	22204
851.085	22493
851.22	22299
851.355	22246
851.49	22223
851.625	22112
851.76	22303
851.895	22109
852.03	22223
852.165	22413
852.299	22291
852.434	22261
852.569	22257
852.703	22158
852.838	22135
852.973	22306
853.107	22318
853.242	22006
853.376	21953
853.511	21846
853.645	22025
853.78	22158
853.914	22101
854.048	21960
854.183	22017
854.317	21945
854.451	22272
854.585	22090
854.72	22048
854.854	22105
854.988	22006
855.122	22002
855.256	21880
855.39	22048
855.524	22112
855.658	22074
855.792	22006
855.926	22036
856.06	21937
856.194	22200
856.327	21972
856.461	21865
856.595	21960
856.729	21960
856.862	22040
856.996	21987
857.13	22074
857.263	22150
857.397	22135
857.53	22029
857.664	22029
857.797	22086
857.931	22124
858.064	22036
858.197	22109
858.331	22006
858.464	21884
858.597	21861
858.731	21865
858.864	22055
858.997	22017
859.13	21975
859.263	22063
859.396	22139
859.529	21876
859.662	21937
859.795	21880
859.928	22006
860.061	22181
860.194	22150
860.327	22112
860.46	22063
860.592	22105
860.725	21983
860.858	22158
860.99	22086
861.123	22010
861.256	21876
861.388	22063
861.521	22489
861.653	21888
861.786	21842
861.918	21804
862.05	21930
862.183	21918
862.315	21972
862.447	22002
862.58	21975
862.712	21660
862.844	21755
862.976	21739
863.108	21709
863.24	22143
863.372	21572
863.504	21720
863.636	21724
863.768	21831
863.9	21747
864.032	21603
864.164	21679
864.296	21713
864.428	21739
864.559	21812
864.691	21766
864.823	21648
864.954	21679
865.086	21660
865.217	21572
865.349	21473
865.48	21519
865.612	21561
865.743	21812
865.875	21641
866.006	21542
866.137	21557
866.269	21667
866.4	21705
866.531	21431
866.662	21382
866.793	21671
866.924	21557
867.055	21439
867.186	21477
867.317	21511
867.448	21382
867.579	21504
867.71	21542
867.841	21496
867.972	21454
868.103	21431
868.233	21580
868.364	21420
868.495	21572
868.625	21804
868.756	21789
868.886	21622
869.017	21808
869.147	21789
869.278	21865
869.408	21728
869.539	21747
869.669	21709
869.799	21808
869.929	21812
870.06	21842
870.19	21953
870.32	22116
870.45	22086
870.58	22169
870.71	22226
870.84	22215
870.97	22120
871.1	22044
871.23	22318
871.36	22322
871.489	22314
871.619	22367
871.749	22337
871.879	22367
872.008	22413
872.138	22257
872.267	22344
872.397	22265
872.526	22181
872.656	22169
872.785	22207
872.915	22295
873.044	22402
873.173	22291
873.303	22303
873.432	22428
873.561	22489
873.69	22405
873.819	22280
873.948	22428
874.077	22451
874.206	22333
874.335	22371
874.464	22432
874.593	22615
874.722	22573
874.851	22679
874.979	22577
875.108	22691
875.237	22478
875.365	22447
875.494	22519
875.623	22656
875.751	22603
875.88	22577
876.008	22679
876.136	22801
876.265	22987
876.393	22999
876.521	23052
876.65	22999
876.778	22904
876.906	22873
877.034	22858
877.162	22976
877.29	22919
877.418	22923
877.546	22900
877.674	23006
877.802	22862
877.93	22835
878.058	22820
878.185	22869
878.313	22946
878.441	22850
878.568	22835
878.696	22790
878.824	23006
878.951	23003
879.079	23128
879.206	23288
879.333	23022
879.461	22953
879.588	23086
879.715	23155
879.842	23121
879.97	22984
880.097	22748
880.224	22729
880.351	22831
880.478	22854
880.605	22538
880.732	22740
880.859	22949
880.986	22706
881.112	22702
881.239	22599
881.366	22348
881.493	22322
881.619	22318
881.746	22348
881.872	22284
881.999	22265
882.125	22337
882.252	22417
882.378	22337
882.505	22428
882.631	22150
882.757	22116
882.883	22128
883.01	21918
883.136	21941
883.262	21907
883.388	21892
883.514	22036
883.64	22074
883.766	21934
883.892	21793
884.018	21637
884.143	21880
884.269	22048
884.395	21736
884.52	21599
884.646	21667
884.772	21648
884.897	21557
885.023	21675
885.148	21663
885.274	21804
885.399	21739
885.524	21701
885.65	21736
885.775	21709
885.9	21667
886.025	21663
886.15	21682
886.275	21538
886.4	21500
886.525	21488
886.65	21386
886.775	21599
886.9	21675
887.025	21793
887.149	21591
887.274	21492
887.399	21294
887.523	21488
887.648	21264
887.773	21245
887.897	21481
888.021	21401
888.146	21500
888.27	21660
888.395	21481
888.519	21458
888.643	21408
888.767	21370
888.891	21252
889.015	21230
889.139	21192
889.263	21108
889.387	21131
889.511	21412
889.635	21359
889.759	21173
889.883	21252
890.006	21150
890.13	21127
890.254	21089
890.377	21062
890.501	21077
890.624	20937
890.748	21024
890.871	20872
890.995	20807
891.118	20701
891.241	20743
891.364	20754
891.488	20998
891.611	20762
891.734	20746
891.857	20788
891.98	20712
892.103	20670
892.226	20735
892.349	20670
892.471	20575
892.594	20746
892.717	20716
892.839	20617
892.962	20769
893.085	20682
893.207	20549
893.33	20503
893.452	20579
893.575	20667
893.697	20640
893.819	20701
893.941	20773
894.064	20724
894.186	20640
894.308	20530
894.43	20724
894.552	20815
894.674	20716
894.796	20507
894.918	20518
895.04	20613
895.161	20735
895.283	20606
895.405	20419
895.526	20594
895.648	20598
895.769	20602
895.891	20724
896.012	20640
896.134	20670
896.255	20606
896.376	20590
896.498	20644
896.619	20743
896.74	20765
896.861	20621
896.982	20887
897.103	21077
897.224	20838
897.345	20781
897.466	20693
897.587	20895
897.708	20982
897.828	20929
897.949	20807
898.07	20632
898.19	20777
898.311	20914
898.431	20807
898.552	20868
898.672	20731
898.792	20941
898.913	20902
899.033	20682
899.153	20678
899.273	20484
899.393	20480
899.513	20522
899.633	20659
899.753	20556
899.873	20499
899.993	20606
900.113	20473
900.232	20446
900.352	20503
900.472	20473
900.591	20275
900.711	20343
900.83	20252
900.95	20400
901.069	20400
901.189	20301
901.308	20031
901.427	19894
901.546	19803
901.665	20001
901.784	19951
901.904	19734
902.023	19750
902.141	19597
902.26	19438
902.379	19571
902.498	19453
902.617	19411
902.735	19533
902.854	19430
902.973	19384
903.091	19031
903.21	19194
903.328	19012
903.446	19015
903.565	18814
903.683	19008
903.801	18840
903.919	18833
904.038	18802
904.156	18787
904.274	18730
904.392	18654
904.51	18585
904.627	18582
904.745	18779
904.863	18779
904.981	18490
905.098	18357
905.216	18361
905.334	18456
905.451	18342
905.569	18281
905.686	18410
905.803	18296
905.921	18117
906.038	18292
906.155	18129
906.272	17988
906.389	18057
906.506	17958
906.623	17980
906.74	17851
906.857	17779
906.974	17745
907.091	17946
907.208	17916
907.324	17851
907.441	17672
907.557	17459
907.674	17577
907.79	17440
907.907	17592
908.023	17615
908.139	17539
908.256	17497
908.372	17490
908.488	17372
908.604	17349
908.72	17151
908.836	17189
908.952	17200
909.068	17239
909.184	17273
909.3	17155
909.415	17311
909.531	17212
909.647	17014
909.762	16999
909.878	16889
909.993	16946
910.108	16889
910.224	16946
910.339	16919
910.454	16850
910.57	16793
910.685	16611
910.8	16972
910.915	16831
911.03	16744
911.145	16542
911.259	16656
911.374	16508
911.489	16436
911.604	16432
911.718	16234
911.833	16303
911.947	16238
912.062	16150
912.176	16234
912.291	16402
912.405	16265
912.519	16508
912.633	16322
912.748	16348
912.862	16204
912.976	16051
913.09	16006
913.204	16010
913.318	16074
913.431	16055
913.545	16124
913.659	16097
913.772	16036
913.886	15941
914	15915
914.113	16090
914.226	15960
914.34	16063
914.453	15667
914.566	15880
914.68	15789
914.793	15781
914.906	15576
915.019	15504
915.132	15386
915.245	15523
915.358	15595
915.47	15428
915.583	15466
915.696	15443
915.809	15572
915.921	15603
916.034	15412
916.146	15363
916.259	15355
916.371	15477
916.483	15481
916.595	15382
916.708	15233
916.82	15291
916.932	15264
917.044	15264
917.156	15218
917.268	15077
917.38	15192
917.491	15070
917.603	15169
917.715	15211
917.826	15085
917.938	15077
918.049	14967
918.161	14990
918.272	15119
918.384	15142
918.495	15116
918.606	14963
918.717	14792
918.828	14891
918.939	14929
919.05	14758
919.161	14792
919.272	14667
919.383	14670
919.494	14826
919.604	14986
919.715	14868
919.826	14777
919.936	14762
920.047	14826
920.157	14887
920.267	14902
920.378	14880
920.488	14720
920.598	15070
920.708	15188
920.818	14952
920.928	14929
921.038	15066
921.148	15013
921.258	14815
921.368	14579
921.477	14579
921.587	14476
921.697	14438
921.806	14549
921.916	14317
922.025	14240
922.134	14115
922.244	14142
922.353	14248
922.462	14058
922.571	14035
922.68	13902
922.789	13799
922.898	13826
923.007	13738
923.116	13795
923.224	13788
923.333	13689
923.442	13643
923.55	13639
923.659	13674
923.767	13662
923.876	13575
923.984	13643
924.092	13491
924.201	13556
924.309	13518
924.417	13567
924.525	13529
924.633	13441
924.741	14221
924.849	13304
924.956	13335
925.064	13266
925.172	13202
925.279	13232
925.387	13225
925.494	13198
925.602	13384
925.709	13244
925.816	13110
925.924	13213
926.031	13228
926.138	13076
926.245	13152
926.352	13095
926.459	13217
926.566	13206
926.673	12970
926.779	13038
926.886	12943
926.993	12772
927.099	12764
927.206	12726
927.312	12730
927.419	12806
927.525	12749
927.631	12814
927.737	12627
927.843	12604
927.95	12445
928.056	12528
928.162	12623
928.267	12654
928.373	13202
928.479	12700
928.585	12433
928.69	12532
928.796	12616
928.901	12429
929.007	12342
929.112	12433
929.218	12361
929.323	12319
929.428	12319
929.533	12418
929.638	12216
929.743	12232
929.848	12292
929.953	12254
930.058	12125
930.163	11969
930.267	11942
930.372	12209
930.477	11897
930.581	12163
930.685	11977
930.79	11946
930.894	11908
930.998	11855
931.103	11901
931.207	11497
931.311	11528
931.415	11387
931.519	11143
931.623	11261
