Data from test_V78500241_3559.txt Node
Date: Fri Mar 25 16:06:27 CST 2022
User: usil
Spectrometer: V785-0024
Trigger mode: 0
Integration Time (sec): 4.000000E-1
Scans to average: 1
Nonlinearity correction enabled: false
Boxcar width: 0
Storing dark spectrum: false
XAxis mode: Wavelengths
Number of Pixels in Spectrum: 1024
>>>>>Begin Spectral Data<<<<<
801.071	28984
801.214	28869
801.356	28664
801.499	28550
801.641	28466
801.783	28474
801.926	28546
802.068	28436
802.211	28394
802.353	28200
802.496	28230
802.638	28124
802.78	28196
802.923	28173
803.065	28055
803.208	28021
803.35	28025
803.492	28401
803.635	28390
803.777	28409
803.919	28360
804.061	28755
804.204	28295
804.346	28223
804.488	28230
804.63	28352
804.773	28230
804.915	28413
805.057	28554
805.199	28565
805.341	28542
805.483	28672
805.626	28550
805.768	28466
805.91	28440
806.052	28497
806.194	28417
806.336	28733
806.478	28599
806.62	28538
806.762	28687
806.904	28904
807.046	29079
807.188	29010
807.33	29181
807.472	29083
807.614	28965
807.756	28999
807.898	28911
808.04	28965
808.182	28873
808.324	28888
808.465	29022
808.607	29151
808.749	29410
808.891	29474
809.033	29398
809.174	29322
809.316	29227
809.458	29284
809.6	29189
809.741	29299
809.883	29524
810.025	29478
810.166	29638
810.308	29585
810.45	29482
810.591	29429
810.733	29292
810.875	29170
811.016	29197
811.158	29083
811.299	29341
811.441	29505
811.582	29528
811.724	29250
811.865	29220
812.007	29277
812.148	29341
812.29	29383
812.431	29326
812.573	29531
812.714	29752
812.855	29752
812.997	29802
813.138	29977
813.279	29939
813.421	29779
813.562	29756
813.703	29539
813.845	29573
813.986	29235
814.127	29060
814.268	29003
814.41	29014
814.551	28984
814.692	29128
814.833	28953
814.974	28923
815.115	29067
815.256	28873
815.397	28949
815.539	28949
815.68	28805
815.821	28748
815.962	28801
816.103	28797
816.244	28626
816.385	28599
816.526	28584
816.666	28394
816.807	28162
816.948	28470
817.089	28371
817.23	28363
817.371	28230
817.512	28421
817.653	28379
817.793	28265
817.934	28249
818.075	28295
818.216	28333
818.356	28242
818.497	28234
818.638	27888
818.778	28097
818.919	28135
819.06	28070
819.2	28074
819.341	28424
819.481	28344
819.622	28546
819.762	28725
819.903	28599
820.043	28577
820.184	28409
820.324	28436
820.465	28466
820.605	28481
820.746	28451
820.886	28257
821.026	28428
821.167	28375
821.307	28573
821.447	28280
821.588	28200
821.728	28097
821.868	27968
822.008	27903
822.149	27850
822.289	27880
822.429	27549
822.569	27526
822.709	27572
822.849	27405
822.99	27511
823.13	27329
823.27	27222
823.41	27176
823.55	26986
823.69	27127
823.83	27157
823.97	27127
824.11	26929
824.25	27039
824.389	27047
824.529	27112
824.669	26960
824.809	27173
824.949	27001
825.089	27104
825.228	26967
825.368	26895
825.508	26918
825.648	26811
825.787	26952
825.927	26975
826.067	26910
826.206	26887
826.346	26925
826.485	26940
826.625	26925
826.765	26937
826.904	26899
827.044	26708
827.183	26788
827.323	26712
827.462	26750
827.601	26594
827.741	26648
827.88	26613
828.02	26514
828.159	26568
828.298	26495
828.437	26629
828.577	26503
828.716	26746
828.855	26583
828.994	26377
829.134	26202
829.273	26358
829.412	26092
829.551	26168
829.69	26164
829.829	26294
829.968	26473
830.107	26343
830.246	26202
830.385	26320
830.524	26130
830.663	26130
830.802	25947
830.941	25917
831.08	25761
831.219	25944
831.357	26073
831.496	26134
831.635	25974
831.774	25693
831.913	25795
832.051	25750
832.19	25624
832.329	25662
832.467	25510
832.606	25559
832.744	25518
832.883	25628
833.022	25540
833.16	25529
833.299	25635
833.437	25605
833.576	25651
833.714	25533
833.852	25620
833.991	25712
834.129	25643
834.267	25647
834.406	25647
834.544	25655
834.682	25559
834.821	25624
834.959	25803
835.097	25647
835.235	25575
835.373	25590
835.511	25487
835.65	25422
835.788	25339
835.926	25335
836.064	25198
836.202	25190
836.34	25441
836.478	25441
836.615	25388
836.753	25556
836.891	25422
837.029	25472
837.167	25354
837.305	25339
837.443	25400
837.58	25247
837.718	25339
837.856	25335
837.993	25206
838.131	25217
838.269	25164
838.406	25133
838.544	25053
838.681	25050
838.819	24977
838.956	24787
839.094	24639
839.231	24962
839.369	24833
839.506	24992
839.643	24901
839.781	24859
839.918	24631
840.055	24852
840.193	24711
840.33	24677
840.467	24658
840.604	24734
840.742	25008
840.879	24433
841.016	24521
841.153	24505
841.29	24738
841.427	24544
841.564	24646
841.701	24563
841.838	24582
841.975	24551
842.112	24582
842.249	24521
842.385	24441
842.522	24509
842.659	24601
842.796	24254
842.933	24422
843.069	24292
843.206	24353
843.343	24509
843.479	24334
843.616	24353
843.752	24167
843.889	24220
844.025	24338
844.162	24144
844.298	24220
844.435	24038
844.571	24163
844.708	24194
844.844	24254
844.98	24407
845.117	24296
845.253	23935
845.389	24072
845.525	24003
845.661	23980
845.798	23950
845.934	23889
846.07	23840
846.206	23889
846.342	23977
846.478	23863
846.614	23714
846.75	23710
846.886	23745
847.022	23653
847.158	23573
847.294	23634
847.429	23642
847.565	23551
847.701	23935
847.837	23326
847.972	23353
848.108	23482
848.244	23345
848.379	23250
848.515	23102
848.65	23170
848.786	23200
848.921	23159
849.057	23322
849.192	23296
849.328	23204
849.463	23143
849.598	23155
849.734	23151
849.869	22999
850.004	22854
850.14	23048
850.275	22965
850.41	22915
850.545	22972
850.68	22930
850.815	23162
850.95	22961
851.085	23140
851.22	23143
851.355	23014
851.49	23018
851.625	22908
851.76	23083
851.895	22786
852.03	22949
852.165	23064
852.299	23113
852.434	23109
852.569	23033
852.703	22942
852.838	23075
852.973	22953
853.107	23067
853.242	22984
853.376	22953
853.511	22573
853.645	22759
853.78	22896
853.914	22729
854.048	22698
854.183	22801
854.317	22866
854.451	22850
854.585	22908
854.72	22828
854.854	22892
854.988	22812
855.122	22869
855.256	22771
855.39	22763
855.524	22892
855.658	22767
855.792	22816
855.926	22797
856.06	22706
856.194	22885
856.327	22725
856.461	22854
856.595	22694
856.729	22812
856.862	22877
856.996	22892
857.13	22889
857.263	22915
857.397	22824
857.53	22710
857.664	22828
857.797	22885
857.931	22896
858.064	22850
858.197	22938
858.331	22797
858.464	22763
858.597	22649
858.731	22729
858.864	22778
858.997	22801
859.13	22694
859.263	22866
859.396	22885
859.529	22771
859.662	22774
859.795	22721
859.928	22782
860.061	22987
860.194	23037
860.327	22729
860.46	22858
860.592	22900
860.725	22892
860.858	22862
860.99	22881
861.123	22687
861.256	22721
861.388	22797
861.521	23581
861.653	22664
861.786	22618
861.918	22603
862.05	22683
862.183	22653
862.315	22736
862.447	22782
862.58	22710
862.712	22493
862.844	22455
862.976	22679
863.108	22546
863.24	23064
863.372	22409
863.504	22440
863.636	22500
863.768	22421
863.9	22405
864.032	22466
864.164	22440
864.296	22474
864.428	22546
864.559	22561
864.691	22424
864.823	22409
864.954	22641
865.086	22497
865.217	22428
865.349	22371
865.48	22356
865.612	22367
865.743	22443
865.875	22341
866.006	22375
866.137	22306
866.269	22398
866.4	22226
866.531	22314
866.662	22265
866.793	22310
866.924	22303
867.055	22314
867.186	22192
867.317	22287
867.448	22192
867.579	22177
867.71	22139
867.841	22070
867.972	22226
868.103	22356
868.233	22341
868.364	22253
868.495	22379
868.625	22599
868.756	22516
868.886	22462
869.017	22508
869.147	22611
869.278	22637
869.408	22577
869.539	22436
869.669	22611
869.799	22607
869.929	22542
870.06	22622
870.19	22786
870.32	22835
870.45	22957
870.58	22915
870.71	22923
870.84	23014
870.97	22972
871.1	23048
871.23	23048
871.36	23193
871.489	23079
871.619	23025
871.749	23132
871.879	23261
872.008	23261
872.138	23079
872.267	23083
872.397	22930
872.526	22976
872.656	22930
872.785	22930
872.915	23155
873.044	23265
873.173	23117
873.303	23166
873.432	23223
873.561	23181
873.69	23185
873.819	23117
873.948	23121
874.077	23143
874.206	23075
874.335	23124
874.464	23212
874.593	23277
874.722	23307
874.851	23376
874.979	23360
875.108	23383
875.237	23414
875.365	23269
875.494	23395
875.623	23455
875.751	23258
875.88	23463
876.008	23452
876.136	23505
876.265	23752
876.393	23855
876.521	23851
876.65	23882
876.778	23832
876.906	23741
877.034	23665
877.162	23676
877.29	23684
877.418	23695
877.546	23726
877.674	23653
877.802	23672
877.93	23695
878.058	23646
878.185	23547
878.313	23638
878.441	23638
878.568	23516
878.696	23695
878.824	23840
878.951	23790
879.079	23863
879.206	24049
879.333	23908
879.461	23745
879.588	23813
879.715	23840
879.842	24026
879.97	23668
880.097	23619
880.224	23562
880.351	23493
880.478	23524
880.605	23448
880.732	23638
880.859	23847
880.986	23562
881.112	23611
881.239	23261
881.366	23227
881.493	23159
881.619	23006
881.746	23044
881.872	23117
881.999	23003
882.125	23014
882.252	23109
882.378	23109
882.505	23170
882.631	22889
882.757	22824
882.883	22797
883.01	22733
883.136	22793
883.262	22554
883.388	22554
883.514	22706
883.64	22752
883.766	22668
883.892	22508
884.018	22443
884.143	22790
884.269	22694
884.395	22569
884.52	22367
884.646	22291
884.772	22173
884.897	22284
885.023	22413
885.148	22466
885.274	22535
885.399	22622
885.524	22360
885.65	22360
885.775	22390
885.9	22375
886.025	22459
886.15	22489
886.275	22272
886.4	22322
886.525	22341
886.65	22306
886.775	22223
886.9	22504
887.025	22557
887.149	22382
887.274	22169
887.399	22188
887.523	22211
887.648	22067
887.773	21937
887.897	22139
888.021	22246
888.146	22097
888.27	22185
888.395	22158
888.519	22211
888.643	22074
888.767	22116
888.891	22032
889.015	21876
889.139	22010
889.263	21949
889.387	22101
889.511	22109
889.635	22067
889.759	21861
889.883	21808
890.006	21846
890.13	21953
890.254	21975
890.377	21850
890.501	21701
890.624	21606
890.748	21644
890.871	21549
890.995	21534
891.118	21538
891.241	21397
891.364	21412
891.488	21553
891.611	21568
891.734	21545
891.857	21534
891.98	21439
892.103	21504
892.226	21386
892.349	21291
892.471	21222
892.594	21325
892.717	21538
892.839	21294
892.962	21245
893.085	21450
893.207	21370
893.33	21161
893.452	21287
893.575	21374
893.697	21298
893.819	21473
893.941	21424
894.064	21382
894.186	21317
894.308	21237
894.43	21450
894.552	21435
894.674	21367
894.796	21188
894.918	21397
895.04	21222
895.161	21378
895.283	21344
895.405	21256
895.526	21348
895.648	21241
895.769	21450
895.891	21332
896.012	21462
896.134	21389
896.255	21363
896.376	21222
896.498	21336
896.619	21420
896.74	21329
896.861	21420
896.982	21698
897.103	21671
897.224	21633
897.345	21519
897.466	21386
897.587	21462
897.708	21667
897.828	21431
897.949	21443
898.07	21211
898.19	21443
898.311	21682
898.431	21420
898.552	21580
898.672	21591
898.792	21523
898.913	21580
899.033	21420
899.153	21302
899.273	21211
899.393	21199
899.513	21195
899.633	21226
899.753	21275
899.873	21180
899.993	21279
900.113	21104
900.232	21184
900.352	21116
900.472	21013
900.591	21009
900.711	20971
900.83	20826
900.95	21028
901.069	21043
901.189	20902
901.308	20621
901.427	20575
901.546	20533
901.665	20609
901.784	20507
901.904	20473
902.023	20256
902.141	20096
902.26	20088
902.379	20218
902.498	20111
902.617	20073
902.735	20153
902.854	20027
902.973	20054
903.091	19689
903.21	19723
903.328	19769
903.446	19616
903.565	19518
903.683	19575
903.801	19384
903.919	19514
904.038	19487
904.156	19365
904.274	19350
904.392	19183
904.51	19164
904.627	19133
904.745	19438
904.863	19327
904.981	19031
905.098	19031
905.216	18962
905.334	19034
905.451	18958
905.569	18867
905.686	18981
905.803	18939
905.921	18745
906.038	18745
906.155	18696
906.272	18661
906.389	18703
906.506	18467
906.623	18494
906.74	18376
906.857	18376
906.974	18422
907.091	18540
907.208	18536
907.324	18380
907.441	18525
907.557	18174
907.674	18140
907.79	18159
907.907	18007
908.023	18148
908.139	18186
908.256	18060
908.372	18041
908.488	18007
908.604	17999
908.72	17969
908.836	17878
908.952	17847
909.068	17992
909.184	18003
909.3	17756
909.415	17901
909.531	17878
909.647	17619
909.762	17608
909.878	17676
909.993	17570
910.108	17634
910.224	17554
910.339	17543
910.454	17516
910.57	17364
910.685	17356
910.8	17596
910.915	17535
911.03	17379
911.145	17189
911.259	17128
911.374	17212
911.489	17105
911.604	17071
911.718	16896
911.833	16831
911.947	16831
912.062	16752
912.176	16839
912.291	16889
912.405	16889
912.519	16957
912.633	17041
912.748	16930
912.862	16778
912.976	16694
913.09	16603
913.204	16698
913.318	16729
913.431	16778
913.545	16782
913.659	16763
913.772	16637
913.886	16504
914	16466
914.113	16641
914.226	16622
914.34	16561
914.453	16341
914.566	16462
914.68	16329
914.793	16310
914.906	16200
915.019	16101
915.132	16086
915.245	16059
915.358	16086
915.47	16082
915.583	15983
915.696	16177
915.809	16101
915.921	16226
916.034	16055
916.146	15869
916.259	15945
916.371	15975
916.483	15918
916.595	15899
916.708	15915
916.82	15793
916.932	15789
917.044	15808
917.156	15793
917.268	15686
917.38	15694
917.491	15797
917.603	15671
917.715	15736
917.826	15682
917.938	15576
918.049	15511
918.161	15698
918.272	15675
918.384	15679
918.495	15641
918.606	15389
918.717	15336
918.828	15481
918.939	15443
919.05	15279
919.161	15355
919.272	15230
919.383	15184
919.494	15401
919.604	15618
919.715	15412
919.826	15336
919.936	15306
920.047	15393
920.157	15321
920.267	15500
920.378	15317
920.488	15359
920.598	15477
920.708	15633
920.818	15477
920.928	15519
921.038	15610
921.148	15633
921.258	15241
921.368	15222
921.477	15062
921.587	15066
921.697	15017
921.806	15028
921.916	14941
922.025	14800
922.134	14727
922.244	14606
922.353	14765
922.462	14602
922.571	14571
922.68	14412
922.789	14473
922.898	14431
923.007	14343
923.116	14389
923.224	14328
923.333	14298
923.442	14290
923.55	14221
923.659	14111
923.767	14336
923.876	14065
923.984	14191
924.092	14111
924.201	14134
924.309	14073
924.417	14065
924.525	13974
924.633	13993
924.741	14887
924.849	13742
924.956	13879
925.064	13761
925.172	13636
925.279	13757
925.387	13765
925.494	13727
925.602	13822
925.709	13700
925.816	13563
925.924	13693
926.031	13875
926.138	13594
926.245	13719
926.352	13662
926.459	13776
926.566	13750
926.673	13597
926.779	13518
926.886	13502
926.993	13190
927.099	13285
927.206	13217
927.312	13194
927.419	13270
927.525	13194
927.631	13274
927.737	13164
927.843	13027
927.95	13088
928.056	12977
928.162	13114
928.267	13156
928.373	13734
928.479	13149
928.585	12806
928.69	13034
928.796	13080
928.901	12985
929.007	12745
929.112	12924
929.218	12920
929.323	12817
929.428	12802
929.533	12772
929.638	12684
929.743	12623
929.848	12734
929.953	12669
930.058	12566
930.163	12429
930.267	12395
930.372	12563
930.477	12433
930.581	12650
930.685	12464
930.79	12342
930.894	12330
930.998	12251
931.103	12380
931.207	12098
931.311	11942
931.415	11893
931.519	11684
931.623	11627
