Data from test_V78500241_3539.txt Node
Date: Fri Mar 25 16:06:19 CST 2022
User: usil
Spectrometer: V785-0024
Trigger mode: 0
Integration Time (sec): 4.000000E-1
Scans to average: 1
Nonlinearity correction enabled: false
Boxcar width: 0
Storing dark spectrum: false
XAxis mode: Wavelengths
Number of Pixels in Spectrum: 1024
>>>>>Begin Spectral Data<<<<<
801.071	28934
801.214	28888
801.356	28607
801.499	28580
801.641	28512
801.783	28599
801.926	28622
802.068	28527
802.211	28523
802.353	28443
802.496	28261
802.638	28367
802.78	28192
802.923	28063
803.065	28128
803.208	28181
803.35	28219
803.492	28341
803.635	28417
803.777	28409
803.919	28455
804.061	28786
804.204	28531
804.346	28261
804.488	28428
804.63	28588
804.773	28424
804.915	28459
805.057	28611
805.199	28554
805.341	28561
805.483	28622
805.626	28675
805.768	28519
805.91	28660
806.052	28653
806.194	28478
806.336	28778
806.478	28660
806.62	28550
806.762	28908
806.904	28938
807.046	29220
807.188	29029
807.33	29170
807.472	29280
807.614	29105
807.756	29003
807.898	28980
808.04	28771
808.182	28896
808.324	29113
808.465	29033
808.607	29258
808.749	29505
808.891	29493
809.033	29436
809.174	29349
809.316	29402
809.458	29318
809.6	29360
809.741	29375
809.883	29459
810.025	29528
810.166	29653
810.308	29661
810.45	29524
810.591	29547
810.733	29360
810.875	29379
811.016	29181
811.158	29273
811.299	29395
811.441	29665
811.582	29558
811.724	29353
811.865	29277
812.007	29436
812.148	29311
812.29	29326
812.431	29589
812.573	29646
812.714	29707
812.855	29836
812.997	29999
813.138	30155
813.279	30125
813.421	29794
813.562	29798
813.703	29646
813.845	29528
813.986	29505
814.127	29216
814.268	29056
814.41	29105
814.551	29086
814.692	29140
814.833	29056
814.974	29056
815.115	29113
815.256	28949
815.397	28995
815.539	28946
815.68	28953
815.821	28968
815.962	28934
816.103	28915
816.244	28698
816.385	28656
816.526	28668
816.666	28489
816.807	28428
816.948	28455
817.089	28580
817.23	28363
817.371	28424
817.512	28306
817.653	28428
817.793	28344
817.934	28341
818.075	28360
818.216	28447
818.356	28424
818.497	28246
818.638	28086
818.778	28287
818.919	28166
819.06	28215
819.2	28287
819.341	28462
819.481	28428
819.622	28554
819.762	28755
819.903	28672
820.043	28691
820.184	28470
820.324	28462
820.465	28523
820.605	28527
820.746	28459
820.886	28356
821.026	28497
821.167	28421
821.307	28668
821.447	28417
821.588	28390
821.728	28238
821.868	27956
822.008	28021
822.149	27968
822.289	27842
822.429	27743
822.569	27397
822.709	27511
822.849	27515
822.99	27416
823.13	27291
823.27	27348
823.41	27291
823.55	27070
823.69	27260
823.83	27344
823.97	27173
824.11	27104
824.25	26956
824.389	27123
824.529	27142
824.669	26963
824.809	27401
824.949	27237
825.089	27173
825.228	27135
825.368	26872
825.508	26937
825.648	26994
825.787	26982
825.927	27233
826.067	26925
826.206	26967
826.346	27009
826.485	26940
826.625	26986
826.765	26994
826.904	27093
827.044	26617
827.183	26807
827.323	26686
827.462	26606
827.601	26609
827.741	26575
827.88	26727
828.02	26621
828.159	26587
828.298	26606
828.437	26693
828.577	26541
828.716	26811
828.855	26724
828.994	26210
829.134	26381
829.273	26427
829.412	26396
829.551	26210
829.69	26370
829.829	26400
829.968	26290
830.107	26358
830.246	26419
830.385	26183
830.524	26256
830.663	26084
830.802	26142
830.941	25978
831.08	25852
831.219	26149
831.357	26077
831.496	26153
831.635	25947
831.774	25993
831.913	25883
832.051	25947
832.19	25590
832.329	25712
832.467	25620
832.606	25601
832.744	25559
832.883	25540
833.022	25582
833.16	25670
833.299	25518
833.437	25765
833.576	25658
833.714	25643
833.852	25689
833.991	25700
834.129	25772
834.267	25879
834.406	25734
834.544	25666
834.682	25765
834.821	25708
834.959	25875
835.097	25712
835.235	25780
835.373	25704
835.511	25651
835.65	25590
835.788	25620
835.926	25422
836.064	25202
836.202	25327
836.34	25422
836.478	25559
836.615	25491
836.753	25540
836.891	25639
837.029	25616
837.167	25365
837.305	25491
837.443	25358
837.58	25400
837.718	25403
837.856	25225
837.993	25324
838.131	25304
838.269	25126
838.406	25293
838.544	25228
838.681	24958
838.819	24878
838.956	24760
839.094	24852
839.231	24947
839.369	25000
839.506	25297
839.643	24973
839.781	24821
839.918	24776
840.055	24757
840.193	24856
840.33	24654
840.467	24764
840.604	24760
840.742	25034
840.879	24650
841.016	24597
841.153	24475
841.29	24669
841.427	24631
841.564	24692
841.701	24764
841.838	24757
841.975	24555
842.112	24502
842.249	24460
842.385	24525
842.522	24688
842.659	24585
842.796	24517
842.933	24467
843.069	24399
843.206	24437
843.343	24536
843.479	24330
843.616	24422
843.752	24251
843.889	24323
844.025	24403
844.162	24285
844.298	24323
844.435	24220
844.571	24285
844.708	24258
844.844	24346
844.98	24350
845.117	24376
845.253	24232
845.389	24091
845.525	24083
845.661	24167
845.798	23984
845.934	24102
846.07	23950
846.206	23935
846.342	24072
846.478	24045
846.614	23687
846.75	23600
846.886	23653
847.022	23752
847.158	23668
847.294	23630
847.429	23783
847.565	23691
847.701	23954
847.837	23459
847.972	23387
848.108	23467
848.244	23364
848.379	23318
848.515	23299
848.65	23258
848.786	23227
848.921	23246
849.057	23326
849.192	23440
849.328	23216
849.463	23227
849.598	23132
849.734	23105
849.869	23181
850.004	23079
850.14	23056
850.275	22984
850.41	22984
850.545	23162
850.68	22953
850.815	23033
850.95	23018
851.085	23197
851.22	23128
851.355	23052
851.49	22942
851.625	22980
851.76	23075
851.895	22908
852.03	23003
852.165	22980
852.299	22953
852.434	23136
852.569	23056
852.703	23090
852.838	23094
852.973	22999
853.107	23132
853.242	22904
853.376	22927
853.511	22710
853.645	22847
853.78	22927
853.914	22801
854.048	22862
854.183	22828
854.317	22755
854.451	23048
854.585	22915
854.72	22812
854.854	22892
854.988	22782
855.122	22904
855.256	22687
855.39	22828
855.524	22896
855.658	22889
855.792	22835
855.926	22923
856.06	22831
856.194	22915
856.327	22812
856.461	22774
856.595	22908
856.729	22854
856.862	23014
856.996	22869
857.13	22965
857.263	23041
857.397	23003
857.53	22942
857.664	22953
857.797	22953
857.931	22991
858.064	22847
858.197	22889
858.331	22831
858.464	22850
858.597	22706
858.731	22858
858.864	22889
858.997	22740
859.13	22873
859.263	22858
859.396	22900
859.529	22816
859.662	23006
859.795	22771
859.928	22698
860.061	22904
860.194	23094
860.327	22877
860.46	22797
860.592	23022
860.725	22980
860.858	22968
860.99	22858
861.123	22828
861.256	22778
861.388	22927
861.521	23608
861.653	22710
861.786	22641
861.918	22729
862.05	22679
862.183	22641
862.315	22812
862.447	22923
862.58	22615
862.712	22542
862.844	22459
862.976	22641
863.108	22588
863.24	23071
863.372	22557
863.504	22542
863.636	22531
863.768	22653
863.9	22470
864.032	22516
864.164	22504
864.296	22527
864.428	22592
864.559	22641
864.691	22702
864.823	22698
864.954	22455
865.086	22478
865.217	22611
865.349	22371
865.48	22352
865.612	22535
865.743	22588
865.875	22504
866.006	22280
866.137	22432
866.269	22371
866.4	22325
866.531	22409
866.662	22287
866.793	22417
866.924	22424
867.055	22443
867.186	22508
867.317	22295
867.448	22268
867.579	22299
867.71	22215
867.841	22375
867.972	22382
868.103	22371
868.233	22318
868.364	22382
868.495	22428
868.625	22443
868.756	22637
868.886	22363
869.017	22565
869.147	22656
869.278	22683
869.408	22733
869.539	22637
869.669	22637
869.799	22675
869.929	22763
870.06	22645
870.19	22930
870.32	22854
870.45	22839
870.58	22980
870.71	23052
870.84	23094
870.97	22942
871.1	23041
871.23	23098
871.36	23288
871.489	23052
871.619	23162
871.749	23220
871.879	23223
872.008	23220
872.138	23284
872.267	23155
872.397	23064
872.526	23113
872.656	23018
872.785	22987
872.915	23280
873.044	23303
873.173	23296
873.303	23334
873.432	23254
873.561	23303
873.69	23242
873.819	23349
873.948	23296
874.077	23162
874.206	23174
874.335	23246
874.464	23364
874.593	23417
874.722	23360
874.851	23433
874.979	23341
875.108	23398
875.237	23364
875.365	23250
875.494	23383
875.623	23425
875.751	23421
875.88	23471
876.008	23581
876.136	23680
876.265	23726
876.393	23908
876.521	23824
876.65	23802
876.778	23882
876.906	23752
877.034	23676
877.162	23832
877.29	23676
877.418	23737
877.546	23832
877.674	23779
877.802	23760
877.93	23824
878.058	23657
878.185	23630
878.313	23691
878.441	23927
878.568	23577
878.696	23687
878.824	23737
878.951	23882
879.079	23897
879.206	24041
879.333	23961
879.461	23771
879.588	23817
879.715	23965
879.842	23954
879.97	23794
880.097	23653
880.224	23452
880.351	23570
880.478	23638
880.605	23627
880.732	23528
880.859	23939
880.986	23619
881.112	23672
881.239	23478
881.366	23299
881.493	23258
881.619	23071
881.746	23277
881.872	23124
881.999	23079
882.125	23094
882.252	23170
882.378	23124
882.505	23140
882.631	22999
882.757	22801
882.883	22946
883.01	22892
883.136	22767
883.262	22683
883.388	22596
883.514	22889
883.64	22961
883.766	22793
883.892	22611
884.018	22656
884.143	22820
884.269	22771
884.395	22527
884.52	22295
884.646	22542
884.772	22413
884.897	22322
885.023	22360
885.148	22451
885.274	22489
885.399	22535
885.524	22554
885.65	22382
885.775	22390
885.9	22519
886.025	22478
886.15	22546
886.275	22314
886.4	22344
886.525	22436
886.65	22333
886.775	22329
886.9	22550
887.025	22668
887.149	22466
887.274	22219
887.399	22280
887.523	22223
887.648	22109
887.773	21987
887.897	22249
888.021	22086
888.146	22223
888.27	22325
888.395	22226
888.519	22177
888.643	22166
888.767	22188
888.891	22086
889.015	22021
889.139	21991
889.263	21964
889.387	22086
889.511	22105
889.635	22112
889.759	22029
889.883	21968
890.006	21972
890.13	21994
890.254	21911
890.377	21835
890.501	21812
890.624	21755
890.748	21778
890.871	21614
890.995	21431
891.118	21530
891.241	21580
891.364	21454
891.488	21679
891.611	21485
891.734	21530
891.857	21469
891.98	21454
892.103	21443
892.226	21538
892.349	21443
892.471	21363
892.594	21473
892.717	21469
892.839	21359
892.962	21408
893.085	21401
893.207	21412
893.33	21302
893.452	21298
893.575	21393
893.697	21435
893.819	21523
893.941	21644
894.064	21450
894.186	21367
894.308	21313
894.43	21431
894.552	21553
894.674	21397
894.796	21310
894.918	21264
895.04	21325
895.161	21473
895.283	21466
895.405	21386
895.526	21393
895.648	21412
895.769	21431
895.891	21416
896.012	21424
896.134	21500
896.255	21500
896.376	21370
896.498	21393
896.619	21500
896.74	21294
896.861	21428
896.982	21641
897.103	21747
897.224	21679
897.345	21622
897.466	21492
897.587	21686
897.708	21736
897.828	21641
897.949	21545
898.07	21466
898.19	21606
898.311	21603
898.431	21591
898.552	21641
898.672	21564
898.792	21690
898.913	21500
899.033	21561
899.153	21370
899.273	21313
899.393	21291
899.513	21389
899.633	21230
899.753	21291
899.873	21279
899.993	21313
900.113	21260
900.232	21279
900.352	21230
900.472	21192
900.591	21001
900.711	21043
900.83	20781
900.95	21123
901.069	21096
901.189	20929
901.308	20659
901.427	20606
901.546	20556
901.665	20670
901.784	20625
901.904	20343
902.023	20358
902.141	20218
902.26	20119
902.379	20210
902.498	20122
902.617	20100
902.735	20161
902.854	20054
902.973	20073
903.091	19849
903.21	19772
903.328	19765
903.446	19605
903.565	19571
903.683	19559
903.801	19533
903.919	19514
904.038	19506
904.156	19320
904.274	19411
904.392	19209
904.51	19251
904.627	19331
904.745	19343
904.863	19320
904.981	19187
905.098	18943
905.216	19065
905.334	18928
905.451	19088
905.569	18973
905.686	19004
905.803	18935
905.921	18779
906.038	18844
906.155	18734
906.272	18620
906.389	18707
906.506	18509
906.623	18597
906.74	18608
906.857	18357
906.974	18475
907.091	18532
907.208	18627
907.324	18544
907.441	18289
907.557	18289
907.674	18281
907.79	18155
907.907	18281
908.023	18163
908.139	18224
908.256	18205
908.372	18186
908.488	18114
908.604	17935
908.72	17809
908.836	17950
908.952	17882
909.068	17984
909.184	17904
909.3	17969
909.415	17977
909.531	17942
909.647	17729
909.762	17680
909.878	17615
909.993	17699
910.108	17493
910.224	17524
910.339	17543
910.454	17410
910.57	17360
910.685	17398
910.8	17577
910.915	17509
911.03	17356
911.145	17318
911.259	17254
911.374	17041
911.489	17067
911.604	17025
911.718	16953
911.833	16976
911.947	16790
912.062	16797
912.176	16900
912.291	17010
912.405	16995
912.519	17143
912.633	17079
912.748	17067
912.862	16911
912.976	16672
913.09	16656
913.204	16710
913.318	16809
913.431	16847
913.545	16763
913.659	16820
913.772	16675
913.886	16599
914	16500
914.113	16618
914.226	16580
914.34	16584
914.453	16474
914.566	16508
914.68	16375
914.793	16348
914.906	16147
915.019	16196
915.132	16086
915.245	16226
915.358	16200
915.47	16139
915.583	16090
915.696	16082
915.809	16249
915.921	16150
916.034	16063
916.146	16036
916.259	15953
916.371	16078
916.483	16048
916.595	15949
916.708	15880
916.82	16002
916.932	15842
917.044	15975
917.156	15793
917.268	15743
917.38	15755
917.491	15736
917.603	15667
917.715	15816
917.826	15819
917.938	15633
918.049	15481
918.161	15603
918.272	15865
918.384	15797
918.495	15785
918.606	15507
918.717	15359
918.828	15545
918.939	15473
919.05	15374
919.161	15428
919.272	15161
919.383	15382
919.494	15534
919.604	15595
919.715	15428
919.826	15325
919.936	15393
920.047	15454
920.157	15344
920.267	15641
920.378	15408
920.488	15245
920.598	15477
920.708	15705
920.818	15549
920.928	15500
921.038	15743
921.148	15553
921.258	15401
921.368	15226
921.477	15055
921.587	14998
921.697	15028
921.806	15089
921.916	15020
922.025	14796
922.134	14823
922.244	14743
922.353	14819
922.462	14598
922.571	14560
922.68	14480
922.789	14400
922.898	14537
923.007	14347
923.116	14374
923.224	14313
923.333	14366
923.442	14183
923.55	14191
923.659	14267
923.767	14309
923.876	14084
923.984	14252
924.092	14096
924.201	14119
924.309	14157
924.417	14138
924.525	14005
924.633	14024
924.741	14960
924.849	13864
924.956	13970
925.064	13723
925.172	13757
925.279	13738
925.387	13818
925.494	13776
925.602	13814
925.709	13772
925.816	13689
925.924	13772
926.031	13875
926.138	13681
926.245	13708
926.352	13613
926.459	13670
926.566	13734
926.673	13575
926.779	13586
926.886	13441
926.993	13369
927.099	13358
927.206	13301
927.312	13190
927.419	13373
927.525	13293
927.631	13350
927.737	13255
927.843	13168
927.95	13046
928.056	13061
928.162	13164
928.267	13133
928.373	13765
928.479	13213
928.585	13023
928.69	13038
928.796	13069
928.901	12951
929.007	12882
929.112	12924
929.218	12935
929.323	12901
929.428	12844
929.533	12939
929.638	12719
929.743	12833
929.848	12707
929.953	12802
930.058	12692
930.163	12433
930.267	12490
930.372	12658
930.477	12407
930.581	12665
930.685	12540
930.79	12407
930.894	12418
930.998	12353
931.103	12513
931.207	12175
931.311	12087
931.415	11954
931.519	11775
931.623	11783
