Data from test_V78500241_1351.txt Node
Date: Fri Mar 25 15:51:09 CST 2022
User: usil
Spectrometer: V785-0024
Trigger mode: 0
Integration Time (sec): 4.000000E-1
Scans to average: 1
Nonlinearity correction enabled: false
Boxcar width: 0
Storing dark spectrum: false
XAxis mode: Wavelengths
Number of Pixels in Spectrum: 1024
>>>>>Begin Spectral Data<<<<<
801.071	28226
801.214	28238
801.356	27975
801.499	27850
801.641	27884
801.783	27778
801.926	27736
802.068	27732
802.211	27755
802.353	27583
802.496	27504
802.638	27447
802.78	27393
802.923	27336
803.065	27340
803.208	27336
803.35	27431
803.492	27526
803.635	27698
803.777	27507
803.919	27641
804.061	27972
804.204	27652
804.346	27583
804.488	27557
804.63	27641
804.773	27523
804.915	27667
805.057	27690
805.199	27591
805.341	27675
805.483	27873
805.626	27819
805.768	27739
805.91	27770
806.052	27709
806.194	27774
806.336	27983
806.478	27846
806.62	27804
806.762	27838
806.904	27930
807.046	28329
807.188	28234
807.33	28284
807.472	28295
807.614	28051
807.756	28215
807.898	28048
808.04	27956
808.182	27972
808.324	28074
808.465	28143
808.607	28310
808.749	28481
808.891	28497
809.033	28584
809.174	28504
809.316	28424
809.458	28348
809.6	28394
809.741	28599
809.883	28656
810.025	28656
810.166	28687
810.308	28679
810.45	28603
810.591	28508
810.733	28424
810.875	28424
811.016	28356
811.158	28424
811.299	28527
811.441	28615
811.582	28618
811.724	28432
811.865	28417
812.007	28295
812.148	28333
812.29	28455
812.431	28489
812.573	28706
812.714	28877
812.855	28930
812.997	29048
813.138	29193
813.279	29022
813.421	29033
813.562	28885
813.703	28850
813.845	28645
813.986	28337
814.127	28303
814.268	28219
814.41	28166
814.551	27945
814.692	28337
814.833	28200
814.974	28093
815.115	28112
815.256	28051
815.397	28025
815.539	28082
815.68	27941
815.821	27838
815.962	27899
816.103	27816
816.244	27797
816.385	27652
816.526	27709
816.666	27447
816.807	27435
816.948	27587
817.089	27572
817.23	27473
817.371	27538
817.512	27439
817.653	27431
817.793	27287
817.934	27462
818.075	27622
818.216	27504
818.356	27298
818.497	27348
818.638	27138
818.778	27226
818.919	27325
819.06	27264
819.2	27355
819.341	27469
819.481	27431
819.622	27618
819.762	27629
819.903	27751
820.043	27770
820.184	27515
820.324	27599
820.465	27603
820.605	27648
820.746	27622
820.886	27477
821.026	27606
821.167	27492
821.307	27564
821.447	27466
821.588	27427
821.728	27214
821.868	27119
822.008	26940
822.149	27017
822.289	26937
822.429	26678
822.569	26686
822.709	26613
822.849	26393
822.99	26507
823.13	26263
823.27	26282
823.41	26229
823.55	26100
823.69	26248
823.83	26199
823.97	26176
824.11	26016
824.25	26069
824.389	26077
824.529	26168
824.669	26161
824.809	26229
824.949	26077
825.089	26256
825.228	26096
825.368	25966
825.508	25959
825.648	25989
825.787	25951
825.927	26100
826.067	25925
826.206	25928
826.346	25963
826.485	25997
826.625	26020
826.765	26138
826.904	26008
827.044	25704
827.183	25712
827.323	25681
827.462	25712
827.601	25647
827.741	25548
827.88	25772
828.02	25525
828.159	25537
828.298	25696
828.437	25674
828.577	25601
828.716	25693
828.855	25635
828.994	25373
829.134	25266
829.273	25419
829.412	25403
829.551	25301
829.69	25339
829.829	25438
829.968	25400
830.107	25510
830.246	25301
830.385	25358
830.524	25194
830.663	25221
830.802	25080
830.941	24932
831.08	25057
831.219	25031
831.357	25050
831.496	25164
831.635	25004
831.774	24856
831.913	24817
832.051	24692
832.19	24783
832.329	24719
832.467	24570
832.606	24620
832.744	24635
832.883	24597
833.022	24692
833.16	24616
833.299	24681
833.437	24658
833.576	24810
833.714	24730
833.852	24802
833.991	24684
834.129	24791
834.267	24719
834.406	24711
834.544	24688
834.682	24700
834.821	24681
834.959	24901
835.097	24627
835.235	24779
835.373	24646
835.511	24616
835.65	24525
835.788	24582
835.926	24395
836.064	24247
836.202	24216
836.34	24551
836.478	24551
836.615	24525
836.753	24467
836.891	24540
837.029	24483
837.167	24353
837.305	24479
837.443	24467
837.58	24308
837.718	24391
837.856	24532
837.993	24315
838.131	24308
838.269	24209
838.406	24174
838.544	24224
838.681	23942
838.819	24015
838.956	23794
839.094	23904
839.231	23863
839.369	23950
839.506	24213
839.643	24007
839.781	23882
839.918	23741
840.055	23904
840.193	23726
840.33	23695
840.467	23745
840.604	23794
840.742	23958
840.879	23627
841.016	23741
841.153	23707
841.29	23843
841.427	23745
841.564	23764
841.701	23634
841.838	23718
841.975	23604
842.112	23798
842.249	23440
842.385	23554
842.522	23695
842.659	23512
842.796	23474
842.933	23452
843.069	23402
843.206	23535
843.343	23531
843.479	23421
843.616	23383
843.752	23433
843.889	23307
844.025	23467
844.162	23273
844.298	23265
844.435	23227
844.571	23273
844.708	23258
844.844	23273
844.98	23391
845.117	23337
845.253	23162
845.389	23083
845.525	23193
845.661	23246
845.798	23033
845.934	23018
846.07	22984
846.206	22957
846.342	22999
846.478	22999
846.614	22786
846.75	22649
846.886	22725
847.022	22675
847.158	22824
847.294	22710
847.429	22782
847.565	22660
847.701	23022
847.837	22531
847.972	22405
848.108	22637
848.244	22466
848.379	22535
848.515	22295
848.65	22402
848.786	22318
848.921	22226
849.057	22489
849.192	22386
849.328	22352
849.463	22325
849.598	22192
849.734	22154
849.869	22154
850.004	22109
850.14	22044
850.275	22169
850.41	22017
850.545	21945
850.68	22006
850.815	22200
850.95	22150
851.085	22284
851.22	22097
851.355	22131
851.49	22143
851.625	22093
851.76	22055
851.895	22006
852.03	21983
852.165	22128
852.299	22128
852.434	22154
852.569	22230
852.703	22059
852.838	22226
852.973	22135
853.107	22169
853.242	22040
853.376	21861
853.511	21793
853.645	21812
853.78	22040
853.914	22029
854.048	21876
854.183	21804
854.317	21892
854.451	22109
854.585	21873
854.72	21865
854.854	21983
854.988	21880
855.122	21861
855.256	21724
855.39	21819
855.524	21907
855.658	21907
855.792	22044
855.926	21869
856.06	21972
856.194	22032
856.327	21956
856.461	21739
856.595	21873
856.729	21972
856.862	22051
856.996	21941
857.13	21934
857.263	21972
857.397	21975
857.53	21915
857.664	21781
857.797	21895
857.931	22017
858.064	21884
858.197	22013
858.331	21785
858.464	21778
858.597	21907
858.731	21823
858.864	21876
858.997	21854
859.13	21876
859.263	21930
859.396	22021
859.529	21797
859.662	21838
859.795	21895
859.928	21903
860.061	22032
860.194	22150
860.327	21956
860.46	21915
860.592	22059
860.725	22070
860.858	21975
860.99	21838
861.123	21838
861.256	21846
861.388	21899
861.521	22569
861.653	21819
861.786	21709
861.918	21778
862.05	21789
862.183	21766
862.315	21827
862.447	21895
862.58	21895
862.712	21587
862.844	21603
862.976	21679
863.108	21705
863.24	22116
863.372	21561
863.504	21511
863.636	21542
863.768	21625
863.9	21618
864.032	21416
864.164	21545
864.296	21610
864.428	21743
864.559	21679
864.691	21762
864.823	21656
864.954	21545
865.086	21656
865.217	21477
865.349	21481
865.48	21542
865.612	21538
865.743	21496
865.875	21454
866.006	21511
866.137	21511
866.269	21542
866.4	21576
866.531	21370
866.662	21424
866.793	21424
866.924	21351
867.055	21496
867.186	21477
867.317	21367
867.448	21370
867.579	21363
867.71	21317
867.841	21348
867.972	21332
868.103	21519
868.233	21408
868.364	21515
868.495	21549
868.625	21713
868.756	21724
868.886	21637
869.017	21637
869.147	21812
869.278	21739
869.408	21701
869.539	21644
869.669	21736
869.799	21622
869.929	21804
870.06	21755
870.19	22025
870.32	21911
870.45	21968
870.58	22021
870.71	22188
870.84	22154
870.97	21941
871.1	22166
871.23	22204
871.36	22196
871.489	22196
871.619	22200
871.749	22242
871.879	22341
872.008	22436
872.138	22097
872.267	22287
872.397	22135
872.526	22067
872.656	22139
872.785	22067
872.915	22246
873.044	22409
873.173	22276
873.303	22291
873.432	22280
873.561	22325
873.69	22135
873.819	22341
873.948	22306
874.077	22379
874.206	22211
874.335	22265
874.464	22424
874.593	22436
874.722	22466
874.851	22626
874.979	22542
875.108	22481
875.237	22382
875.365	22390
875.494	22367
875.623	22504
875.751	22508
875.88	22542
876.008	22618
876.136	22641
876.265	22824
876.393	23044
876.521	22995
876.65	23052
876.778	22801
876.906	22793
877.034	22812
877.162	22778
877.29	22900
877.418	22858
877.546	22915
877.674	22839
877.802	22843
877.93	22683
878.058	22782
878.185	22687
878.313	22862
878.441	22831
878.568	22831
878.696	22740
878.824	22839
878.951	22911
879.079	23067
879.206	23029
879.333	22953
879.461	22911
879.588	23018
879.715	23006
879.842	23227
879.97	22961
880.097	22607
880.224	22748
880.351	22767
880.478	22744
880.605	22516
880.732	22733
880.859	22919
880.986	22862
881.112	22721
881.239	22630
881.366	22478
881.493	22223
881.619	22166
881.746	22295
881.872	22185
881.999	22158
882.125	22143
882.252	22249
882.378	22158
882.505	22325
882.631	22105
882.757	21941
882.883	21941
883.01	21922
883.136	21922
883.262	21846
883.388	21667
883.514	21861
883.64	21907
883.766	21804
883.892	21663
884.018	21648
884.143	22040
884.269	21854
884.395	21641
884.52	21447
884.646	21625
884.772	21583
884.897	21401
885.023	21523
885.148	21625
885.274	21705
885.399	21534
885.524	21504
885.65	21504
885.775	21534
885.9	21485
886.025	21701
886.15	21618
886.275	21530
886.4	21564
886.525	21610
886.65	21568
886.775	21530
886.9	21667
887.025	21717
887.149	21473
887.274	21378
887.399	21332
887.523	21272
887.648	21294
887.773	21230
887.897	21386
888.021	21241
888.146	21264
888.27	21485
888.395	21401
888.519	21321
888.643	21283
888.767	21363
888.891	21275
889.015	21096
889.139	21146
889.263	21089
889.387	21207
889.511	21321
889.635	21211
889.759	21043
889.883	21100
890.006	21116
890.13	21154
890.254	21013
890.377	21005
890.501	20823
890.624	20826
890.748	20929
890.871	20781
890.995	20663
891.118	20621
891.241	20727
891.364	20587
891.488	20914
891.611	20663
891.734	20750
891.857	20739
891.98	20693
892.103	20708
892.226	20587
892.349	20594
892.471	20545
892.594	20670
892.717	20678
892.839	20663
892.962	20644
893.085	20598
893.207	20396
893.33	20396
893.452	20488
893.575	20583
893.697	20575
893.819	20682
893.941	20731
894.064	20678
894.186	20579
894.308	20648
894.43	20621
894.552	20705
894.674	20686
894.796	20492
894.918	20571
895.04	20465
895.161	20659
895.283	20659
895.405	20545
895.526	20617
895.648	20400
895.769	20655
895.891	20473
896.012	20648
896.134	20556
896.255	20560
896.376	20598
896.498	20598
896.619	20583
896.74	20446
896.861	20530
896.982	20811
897.103	21009
897.224	20773
897.345	20750
897.466	20594
897.587	20769
897.708	20982
897.828	20773
897.949	20674
898.07	20731
898.19	20750
898.311	20765
898.431	20693
898.552	20689
898.672	20743
898.792	20826
898.913	20765
899.033	20697
899.153	20537
899.273	20415
899.393	20609
899.513	20503
899.633	20434
899.753	20670
899.873	20404
899.993	20537
900.113	20393
900.232	20514
900.352	20374
900.472	20408
900.591	20210
900.711	20404
900.83	20328
900.95	20309
901.069	20415
901.189	20096
901.308	19993
901.427	19898
901.546	19841
901.665	19902
901.784	19944
901.904	19772
902.023	19750
902.141	19510
902.26	19487
902.379	19430
902.498	19403
902.617	19282
902.735	19411
902.854	19278
902.973	19270
903.091	18966
903.21	19160
903.328	19027
903.446	18916
903.565	18745
903.683	18821
903.801	18722
903.919	18829
904.038	18772
904.156	18601
904.274	18612
904.392	18471
904.51	18658
904.627	18555
904.745	18589
904.863	18646
904.981	18357
905.098	18262
905.216	18289
905.334	18285
905.451	18300
905.569	18300
905.686	18270
905.803	18304
905.921	18079
906.038	18171
906.155	18034
906.272	17927
906.389	17996
906.506	17668
906.623	17783
906.74	17817
906.857	17668
906.974	17707
907.091	17813
907.208	17863
907.324	17718
907.441	17695
907.557	17539
907.674	17547
907.79	17589
907.907	17490
908.023	17547
908.139	17467
908.256	17516
908.372	17341
908.488	17330
908.604	17326
908.72	17239
908.836	17277
908.952	17086
909.068	17197
909.184	17223
909.3	17193
909.415	17349
909.531	17178
909.647	16991
909.762	17048
909.878	16892
909.993	17086
910.108	16782
910.224	16820
910.339	16908
910.454	16771
910.57	16740
910.685	16634
910.8	16961
910.915	16801
911.03	16729
911.145	16546
911.259	16538
911.374	16478
911.489	16474
911.604	16417
911.718	16280
911.833	16219
911.947	16196
912.062	16150
912.176	16306
912.291	16333
912.405	16249
912.519	16474
912.633	16371
912.748	16261
912.862	16204
912.976	16112
913.09	15964
913.204	16006
913.318	16196
913.431	16150
913.545	16177
913.659	16181
913.772	16021
913.886	15956
914	15846
914.113	15960
914.226	15968
914.34	15926
914.453	15804
914.566	15956
914.68	15759
914.793	15778
914.906	15595
915.019	15488
915.132	15412
915.245	15473
915.358	15473
915.47	15511
915.583	15454
915.696	15473
915.809	15553
915.921	15507
916.034	15408
916.146	15291
916.259	15298
916.371	15473
916.483	15321
916.595	15332
916.708	15192
916.82	15237
916.932	15249
917.044	15249
917.156	15222
917.268	15184
917.38	15173
917.491	15051
917.603	15142
917.715	15116
917.826	15142
917.938	15024
918.049	14956
918.161	15039
918.272	15169
918.384	15161
918.495	15017
918.606	14933
918.717	14750
918.828	14872
918.939	14861
919.05	14754
919.161	14845
919.272	14617
919.383	14629
919.494	14838
919.604	14979
919.715	14899
919.826	14708
919.936	14876
920.047	14830
920.157	14872
920.267	14914
920.378	14902
920.488	14842
920.598	14880
920.708	15051
920.818	15036
920.928	14967
921.038	15135
921.148	14963
921.258	14788
921.368	14727
921.477	14651
921.587	14495
921.697	14358
921.806	14488
921.916	14290
922.025	14259
922.134	14229
922.244	14180
922.353	14286
922.462	14077
922.571	14043
922.68	13875
922.789	13795
922.898	13769
923.007	13772
923.116	13830
923.224	13822
923.333	13712
923.442	13719
923.55	13567
923.659	13655
923.767	13715
923.876	13613
923.984	13639
924.092	13491
924.201	13582
924.309	13575
924.417	13552
924.525	13426
924.633	13571
924.741	14423
924.849	13335
924.956	13438
925.064	13228
925.172	13152
925.279	13122
925.387	13171
925.494	13255
925.602	13346
925.709	13228
925.816	13137
925.924	13126
926.031	13255
926.138	13171
926.245	13247
926.352	13080
926.459	13213
926.566	13270
926.673	13072
926.779	12981
926.886	12890
926.993	12798
927.099	12783
927.206	12719
927.312	12700
927.419	12810
927.525	12768
927.631	12844
927.737	12597
927.843	12589
927.95	12517
928.056	12688
928.162	12677
928.267	12753
928.373	13247
928.479	12711
928.585	12452
928.69	12525
928.796	12517
928.901	12536
929.007	12391
929.112	12445
929.218	12422
929.323	12342
929.428	12372
929.533	12452
929.638	12292
929.743	12296
929.848	12296
929.953	12281
930.058	12197
930.163	12038
930.267	12079
930.372	12205
930.477	11961
930.581	12125
930.685	12034
930.79	11920
930.894	11855
930.998	11790
931.103	11908
931.207	11638
931.311	11493
931.415	11440
931.519	11201
931.623	11227
