Data from test_V78500241_1939.txt Node
Date: Fri Mar 25 15:55:14 CST 2022
User: usil
Spectrometer: V785-0024
Trigger mode: 0
Integration Time (sec): 4.000000E-1
Scans to average: 1
Nonlinearity correction enabled: false
Boxcar width: 0
Storing dark spectrum: false
XAxis mode: Wavelengths
Number of Pixels in Spectrum: 1024
>>>>>Begin Spectral Data<<<<<
801.071	28744
801.214	28660
801.356	28310
801.499	28447
801.641	28306
801.783	28135
801.926	28341
802.068	28200
802.211	28025
802.353	28116
802.496	27926
802.638	27876
802.78	27907
802.923	27838
803.065	27785
803.208	27846
803.35	27831
803.492	28044
803.635	28086
803.777	28044
803.919	28078
804.061	28440
804.204	28276
804.346	28143
804.488	28086
804.63	28105
804.773	28013
804.915	28093
805.057	28303
805.199	27979
805.341	28242
805.483	28310
805.626	28348
805.768	28177
805.91	28299
806.052	28257
806.194	28268
806.336	28447
806.478	28325
806.62	28147
806.762	28409
806.904	28497
807.046	28820
807.188	28771
807.33	28839
807.472	28774
807.614	28611
807.756	28713
807.898	28675
808.04	28508
808.182	28599
808.324	28573
808.465	28698
808.607	28866
808.749	29044
808.891	29083
809.033	29208
809.174	29132
809.316	28987
809.458	29079
809.6	28892
809.741	29128
809.883	29178
810.025	29197
810.166	29288
810.308	29349
810.45	29174
810.591	29060
810.733	29113
810.875	28858
811.016	28938
811.158	28942
811.299	28980
811.441	29132
811.582	29056
811.724	28908
811.865	29022
812.007	28911
812.148	29121
812.29	28927
812.431	29185
812.573	29303
812.714	29288
812.855	29452
812.997	29524
813.138	29722
813.279	29661
813.421	29554
813.562	29471
813.703	29258
813.845	29254
813.986	29048
814.127	28694
814.268	28481
814.41	28862
814.551	28729
814.692	28641
814.833	28554
814.974	28668
815.115	28668
815.256	28462
815.397	28535
815.539	28618
815.68	28500
815.821	28341
815.962	28474
816.103	28557
816.244	28398
816.385	28306
816.526	28135
816.666	28059
816.807	27838
816.948	28188
817.089	28105
817.23	27945
817.371	27964
817.512	27979
817.653	28021
817.793	27926
817.934	27949
818.075	28010
818.216	28055
818.356	27972
818.497	27800
818.638	27663
818.778	27739
818.919	27793
819.06	27869
819.2	27823
819.341	27876
819.481	27953
819.622	28082
819.762	28417
819.903	28253
820.043	28101
820.184	28040
820.324	28063
820.465	28097
820.605	28188
820.746	28010
820.886	27972
821.026	28169
821.167	28120
821.307	28128
821.447	28029
821.588	27998
821.728	27861
821.868	27629
822.008	27576
822.149	27466
822.289	27359
822.429	27100
822.569	27104
822.709	27161
822.849	27165
822.99	27070
823.13	26895
823.27	26861
823.41	26705
823.55	26609
823.69	26758
823.83	26838
823.97	26754
824.11	26568
824.25	26571
824.389	26716
824.529	26762
824.669	26412
824.809	26750
824.949	26750
825.089	26701
825.228	26746
825.368	26556
825.508	26450
825.648	26587
825.787	26488
825.927	26518
826.067	26484
826.206	26469
826.346	26583
826.485	26488
826.625	26484
826.765	26568
826.904	26537
827.044	26305
827.183	26320
827.323	26256
827.462	26248
827.601	26138
827.741	26267
827.88	26183
828.02	26054
828.159	26332
828.298	26164
828.437	26267
828.577	26126
828.716	26187
828.855	26020
828.994	25955
829.134	26050
829.273	25959
829.412	25951
829.551	25849
829.69	25883
829.829	25731
829.968	25955
830.107	25864
830.246	25993
830.385	25849
830.524	25795
830.663	25704
830.802	25563
830.941	25632
831.08	25453
831.219	25571
831.357	25670
831.496	25635
831.635	25540
831.774	25369
831.913	25415
832.051	25289
832.19	25335
832.329	25304
832.467	25129
832.606	25118
832.744	25080
832.883	25148
833.022	25168
833.16	25160
833.299	25194
833.437	25304
833.576	25354
833.714	25255
833.852	25449
833.991	25202
834.129	25384
834.267	25217
834.406	25297
834.544	25194
834.682	25221
834.821	25187
834.959	25392
835.097	25110
835.235	25354
835.373	25263
835.511	25255
835.65	24989
835.788	25244
835.926	24977
836.064	24886
836.202	24951
836.34	25038
836.478	25027
836.615	25053
836.753	25091
836.891	25091
837.029	25095
837.167	24924
837.305	24958
837.443	24973
837.58	24962
837.718	25061
837.856	24848
837.993	24787
838.131	24844
838.269	24821
838.406	24871
838.544	24642
838.681	24498
838.819	24464
838.956	24407
839.094	24315
839.231	24380
839.369	24490
839.506	24684
839.643	24559
839.781	24258
839.918	24277
840.055	24224
840.193	24483
840.33	24273
840.467	24144
840.604	24327
840.742	24528
840.879	24266
841.016	24148
841.153	24091
841.29	24429
841.427	24125
841.564	24277
841.701	24319
841.838	24285
841.975	24186
842.112	24247
842.249	23908
842.385	24076
842.522	24140
842.659	24007
842.796	24049
842.933	24072
843.069	23996
843.206	24106
843.343	23958
843.479	24022
843.616	23912
843.752	23737
843.889	23794
844.025	23863
844.162	23737
844.298	23874
844.435	23748
844.571	23752
844.708	23843
844.844	23836
844.98	23920
845.117	23779
845.253	23589
845.389	23589
845.525	23714
845.661	23634
845.798	23547
845.934	23611
846.07	23520
846.206	23509
846.342	23722
846.478	23425
846.614	23349
846.75	23318
846.886	23189
847.022	23307
847.158	23250
847.294	23334
847.429	23288
847.565	23246
847.701	23406
847.837	22980
847.972	22889
848.108	23044
848.244	22980
848.379	22812
848.515	22786
848.65	22744
848.786	22858
848.921	22885
849.057	22824
849.192	22869
849.328	22915
849.463	22862
849.598	22759
849.734	22759
849.869	22599
850.004	22641
850.14	22717
850.275	22615
850.41	22466
850.545	22592
850.68	22694
850.815	22603
850.95	22645
851.085	22828
851.22	22763
851.355	22664
851.49	22474
851.625	22588
851.76	22569
851.895	22500
852.03	22432
852.165	22485
852.299	22573
852.434	22713
852.569	22630
852.703	22561
852.838	22767
852.973	22687
853.107	22809
853.242	22584
853.376	22440
853.511	22280
853.645	22329
853.78	22485
853.914	22303
854.048	22409
854.183	22470
854.317	22500
854.451	22504
854.585	22459
854.72	22398
854.854	22432
854.988	22436
855.122	22405
855.256	22284
855.39	22341
855.524	22481
855.658	22470
855.792	22443
855.926	22253
856.06	22497
856.194	22443
856.327	22390
856.461	22318
856.595	22379
856.729	22455
856.862	22527
856.996	22394
857.13	22455
857.263	22462
857.397	22592
857.53	22493
857.664	22493
857.797	22462
857.931	22565
858.064	22440
858.197	22474
858.331	22356
858.464	22299
858.597	22367
858.731	22314
858.864	22455
858.997	22310
859.13	22363
859.263	22398
859.396	22497
859.529	22443
859.662	22402
859.795	22360
859.928	22318
860.061	22557
860.194	22596
860.327	22500
860.46	22500
860.592	22584
860.725	22645
860.858	22527
860.99	22363
861.123	22337
861.256	22402
861.388	22390
861.521	23121
861.653	22325
861.786	22063
861.918	22253
862.05	22310
862.183	22325
862.315	22455
862.447	22417
862.58	22432
862.712	22158
862.844	22177
862.976	22188
863.108	22211
863.24	22535
863.372	22154
863.504	22173
863.636	22128
863.768	22169
863.9	22090
864.032	22074
864.164	22101
864.296	22131
864.428	22230
864.559	22207
864.691	22181
864.823	22181
864.954	22253
865.086	22086
865.217	21994
865.349	22036
865.48	22109
865.612	22051
865.743	22090
865.875	22002
866.006	21895
866.137	21975
866.269	21945
866.4	22025
866.531	21945
866.662	21838
866.793	21918
866.924	21994
867.055	22048
867.186	21922
867.317	22017
867.448	21953
867.579	21899
867.71	21907
867.841	21857
867.972	21732
868.103	21968
868.233	21941
868.364	21922
868.495	21945
868.625	22147
868.756	22226
868.886	22158
869.017	22078
869.147	22322
869.278	22238
869.408	22215
869.539	22150
869.669	22341
869.799	22287
869.929	22284
870.06	22234
870.19	22432
870.32	22462
870.45	22535
870.58	22485
870.71	22740
870.84	22611
870.97	22603
871.1	22649
871.23	22847
871.36	22752
871.489	22706
871.619	22729
871.749	22793
871.879	22782
872.008	22805
872.138	22816
872.267	22816
872.397	22615
872.526	22672
872.656	22596
872.785	22675
872.915	22839
873.044	22942
873.173	22801
873.303	22721
873.432	22904
873.561	22854
873.69	22778
873.819	22820
873.948	22938
874.077	22847
874.206	22736
874.335	22820
874.464	22786
874.593	23022
874.722	22892
874.851	22980
874.979	23109
875.108	23094
875.237	23064
875.365	22923
875.494	23044
875.623	23014
875.751	23018
875.88	22972
876.008	23041
876.136	23102
876.265	23459
876.393	23452
876.521	23444
876.65	23448
876.778	23452
876.906	23368
877.034	23337
877.162	23444
877.29	23284
877.418	23444
877.546	23364
877.674	23330
877.802	23395
877.93	23406
878.058	23341
878.185	23258
878.313	23288
878.441	23368
878.568	23197
878.696	23322
878.824	23402
878.951	23379
879.079	23459
879.206	23634
879.333	23452
879.461	23509
879.588	23486
879.715	23577
879.842	23509
879.97	23383
880.097	23124
880.224	23033
880.351	23159
880.478	23212
880.605	23037
880.732	23128
880.859	23326
880.986	23181
881.112	23284
881.239	23018
881.366	22786
881.493	22767
881.619	22820
881.746	22930
881.872	22828
881.999	22752
882.125	22618
882.252	22687
882.378	22725
882.505	22790
882.631	22607
882.757	22344
882.883	22557
883.01	22337
883.136	22440
883.262	22230
883.388	22200
883.514	22413
883.64	22440
883.766	22337
883.892	22356
884.018	22139
884.143	22344
884.269	22356
884.395	22162
884.52	22040
884.646	22059
884.772	21922
884.897	21911
885.023	22032
885.148	22135
885.274	22181
885.399	22150
885.524	22154
885.65	22055
885.775	22036
885.9	21983
886.025	22074
886.15	22013
886.275	21991
886.4	22002
886.525	22017
886.65	21918
886.775	21850
886.9	22120
887.025	22363
887.149	22112
887.274	21778
887.399	21835
887.523	21808
887.648	21705
887.773	21774
887.897	21823
888.021	21907
888.146	21633
888.27	21838
888.395	21880
888.519	21789
888.643	21819
888.767	21789
888.891	21728
889.015	21587
889.139	21739
889.263	21542
889.387	21762
889.511	21785
889.635	21728
889.759	21538
889.883	21568
890.006	21523
890.13	21660
890.254	21496
890.377	21408
890.501	21306
890.624	21283
890.748	21348
890.871	21157
890.995	21180
891.118	21142
891.241	21218
891.364	21214
891.488	21275
891.611	21230
891.734	21104
891.857	21180
891.98	21173
892.103	21161
892.226	21157
892.349	21020
892.471	20857
892.594	21127
892.717	21085
892.839	20979
892.962	21055
893.085	21036
893.207	20986
893.33	20887
893.452	21024
893.575	20967
893.697	20971
893.819	21131
893.941	21085
894.064	21192
894.186	20994
894.308	21017
894.43	21039
894.552	21096
894.674	21055
894.796	20952
894.918	21005
895.04	20956
895.161	21043
895.283	21058
895.405	20921
895.526	21051
895.648	20925
895.769	21062
895.891	21001
896.012	21077
896.134	21131
896.255	20944
896.376	20986
896.498	21005
896.619	21070
896.74	20986
896.861	21020
896.982	21351
897.103	21504
897.224	21329
897.345	21230
897.466	21157
897.587	21184
897.708	21332
897.828	21173
897.949	21058
898.07	20895
898.19	21119
898.311	21310
898.431	21180
898.552	21260
898.672	21268
898.792	21291
898.913	21245
899.033	21096
899.153	21009
899.273	20849
899.393	20956
899.513	20876
899.633	20883
899.753	20948
899.873	20785
899.993	20967
900.113	20857
900.232	20975
900.352	20861
900.472	20781
900.591	20640
900.711	20655
900.83	20712
900.95	20781
901.069	20765
901.189	20556
901.308	20423
901.427	20225
901.546	20366
901.665	20286
901.784	20298
901.904	20206
902.023	20172
902.141	19788
902.26	19940
902.379	19989
902.498	19807
902.617	19746
902.735	19826
902.854	19807
902.973	19594
903.091	19457
903.21	19487
903.328	19487
903.446	19320
903.565	19324
903.683	19365
903.801	19175
903.919	19266
904.038	19126
904.156	18985
904.274	19156
904.392	19065
904.51	19015
904.627	18943
904.745	19168
904.863	18989
904.981	18772
905.098	18593
905.216	18604
905.334	18711
905.451	18688
905.569	18677
905.686	18646
905.803	18585
905.921	18429
906.038	18551
906.155	18490
906.272	18327
906.389	18357
906.506	18213
906.623	18213
906.74	18125
906.857	18110
906.974	18091
907.091	18258
907.208	18327
907.324	18232
907.441	18083
907.557	17931
907.674	17859
907.79	17821
907.907	17904
908.023	17863
908.139	17817
908.256	17942
908.372	17824
908.488	17615
908.604	17657
908.72	17596
908.836	17630
908.952	17573
909.068	17551
909.184	17665
909.3	17535
909.415	17680
909.531	17547
909.647	17349
909.762	17292
909.878	17231
909.993	17421
910.108	17280
910.224	17170
910.339	17284
910.454	17193
910.57	17170
910.685	17064
910.8	17208
910.915	17284
911.03	17098
911.145	16953
911.259	16927
911.374	16873
911.489	16858
911.604	16843
911.718	16577
911.833	16653
911.947	16516
912.062	16550
912.176	16653
912.291	16634
912.405	16558
912.519	16771
912.633	16847
912.748	16519
912.862	16531
912.976	16474
913.09	16261
913.204	16394
913.318	16489
913.431	16599
913.545	16474
913.659	16497
913.772	16417
913.886	16265
914	16185
914.113	16360
914.226	16246
914.34	16181
914.453	16105
914.566	16226
914.68	16078
914.793	16029
914.906	15895
915.019	15835
915.132	15838
915.245	15804
915.358	15812
915.47	15831
915.583	15774
915.696	15884
915.809	15915
915.921	15903
916.034	15819
916.146	15800
916.259	15698
916.371	15667
916.483	15679
916.595	15614
916.708	15652
916.82	15523
916.932	15625
917.044	15656
917.156	15492
917.268	15424
917.38	15420
917.491	15386
917.603	15515
917.715	15530
917.826	15477
917.938	15332
918.049	15306
918.161	15435
918.272	15568
918.384	15492
918.495	15389
918.606	15195
918.717	15119
918.828	15192
918.939	15192
919.05	15043
919.161	15161
919.272	14887
919.383	15081
919.494	15302
919.604	15332
919.715	15119
919.826	15070
919.936	15017
920.047	15252
920.157	15100
920.267	15275
920.378	15131
920.488	14990
920.598	15218
920.708	15393
920.818	15252
920.928	15245
921.038	15443
921.148	15294
921.258	15154
921.368	15093
921.477	14914
921.587	14800
921.697	14777
921.806	14826
921.916	14724
922.025	14564
922.134	14556
922.244	14450
922.353	14568
922.462	14419
922.571	14263
922.68	14126
922.789	14157
922.898	14126
923.007	14058
923.116	14161
923.224	14103
923.333	14062
923.442	13978
923.55	13997
923.659	13909
923.767	13963
923.876	13902
923.984	13932
924.092	13883
924.201	13822
924.309	13864
924.417	13932
924.525	13765
924.633	13803
924.741	14731
924.849	13510
924.956	13712
925.064	13567
925.172	13468
925.279	13521
925.387	13457
925.494	13445
925.602	13685
925.709	13582
925.816	13396
925.924	13422
926.031	13548
926.138	13514
926.245	13476
926.352	13354
926.459	13575
926.566	13403
926.673	13411
926.779	13179
926.886	13213
926.993	13190
927.099	13061
927.206	13023
927.312	12958
927.419	13042
927.525	13057
927.631	12966
927.737	12886
927.843	12875
927.95	12764
928.056	12779
928.162	12897
928.267	12943
928.373	13487
928.479	13027
928.585	12681
928.69	12817
928.796	12840
928.901	12684
929.007	12608
929.112	12669
929.218	12665
929.323	12509
929.428	12631
929.533	12700
929.638	12547
929.743	12536
929.848	12559
929.953	12525
930.058	12357
930.163	12319
930.267	12243
930.372	12357
930.477	12254
930.581	12433
930.685	12232
930.79	12076
930.894	12155
930.998	12060
931.103	12251
931.207	11908
931.311	11847
931.415	11710
931.519	11611
931.623	11467
