Data from test_V78500241_654.txt Node
Date: Fri Mar 25 15:46:19 CST 2022
User: usil
Spectrometer: V785-0024
Trigger mode: 0
Integration Time (sec): 4.000000E-1
Scans to average: 1
Nonlinearity correction enabled: false
Boxcar width: 0
Storing dark spectrum: false
XAxis mode: Wavelengths
Number of Pixels in Spectrum: 1024
>>>>>Begin Spectral Data<<<<<
801.071	27728
801.214	27827
801.356	27408
801.499	27523
801.641	27359
801.783	27275
801.926	27367
802.068	27222
802.211	27252
802.353	27169
802.496	27058
802.638	26872
802.78	26952
802.923	26960
803.065	26899
803.208	26777
803.35	27032
803.492	26975
803.635	27093
803.777	27146
803.919	27154
804.061	27466
804.204	27135
804.346	27127
804.488	26979
804.63	27108
804.773	26998
804.915	27032
805.057	27085
805.199	27138
805.341	27180
805.483	27279
805.626	27230
805.768	27188
805.91	27287
806.052	27287
806.194	27142
806.336	27526
806.478	27184
806.62	27355
806.762	27272
806.904	27629
807.046	27739
807.188	27743
807.33	27732
807.472	27778
807.614	27568
807.756	27583
807.898	27454
808.04	27526
808.182	27473
808.324	27523
808.465	27724
808.607	27770
808.749	27854
808.891	28032
809.033	28078
809.174	27941
809.316	27945
809.458	27949
809.6	27903
809.741	28025
809.883	28067
810.025	28105
810.166	28021
810.308	28150
810.45	28124
810.591	28074
810.733	27907
810.875	27835
811.016	27774
811.158	27739
811.299	28139
811.441	28101
811.582	27991
811.724	27926
811.865	27850
812.007	27880
812.148	27907
812.29	27755
812.431	28162
812.573	28105
812.714	28337
812.855	28367
812.997	28519
813.138	28618
813.279	28550
813.421	28447
813.562	28493
813.703	28147
813.845	28223
813.986	27846
814.127	27526
814.268	27603
814.41	27523
814.551	27496
814.692	27679
814.833	27450
814.974	27618
815.115	27591
815.256	27378
815.397	27275
815.539	27378
815.68	27378
815.821	27154
815.962	27378
816.103	27310
816.244	27416
816.385	27218
816.526	27157
816.666	27066
816.807	26853
816.948	26948
817.089	27005
817.23	26887
817.371	26891
817.512	26914
817.653	26857
817.793	26765
817.934	26781
818.075	26967
818.216	26933
818.356	26910
818.497	26716
818.638	26632
818.778	26632
818.919	26503
819.06	26754
819.2	26670
819.341	26735
819.481	26883
819.622	27055
819.762	27287
819.903	27104
820.043	27005
820.184	26929
820.324	26731
820.465	27028
820.605	26990
820.746	26994
820.886	26823
821.026	27001
821.167	27043
821.307	27013
821.447	26914
821.588	26830
821.728	26636
821.868	26495
822.008	26343
822.149	26305
822.289	26362
822.429	26111
822.569	25993
822.709	26081
822.849	25814
822.99	25822
823.13	25655
823.27	25708
823.41	25708
823.55	25533
823.69	25700
823.83	25575
823.97	25693
824.11	25297
824.25	25381
824.389	25552
824.529	25483
824.669	25502
824.809	25586
824.949	25571
825.089	25537
825.228	25483
825.368	25411
825.508	25411
825.648	25320
825.787	25403
825.927	25479
826.067	25320
826.206	25373
826.346	25464
826.485	25483
826.625	25331
826.765	25445
826.904	25327
827.044	25023
827.183	25187
827.323	25061
827.462	25015
827.601	25027
827.741	25148
827.88	24981
828.02	24989
828.159	25099
828.298	25031
828.437	25206
828.577	24966
828.716	25160
828.855	24905
828.994	24871
829.134	24711
829.273	24791
829.412	24582
829.551	24719
829.69	24757
829.829	24882
829.968	24798
830.107	24829
830.246	24882
830.385	24642
830.524	24684
830.663	24513
830.802	24517
830.941	24426
831.08	24486
831.219	24448
831.357	24426
831.496	24612
831.635	24350
831.774	24357
831.913	24285
832.051	24182
832.19	24182
832.329	24174
832.467	24117
832.606	23980
832.744	24003
832.883	24018
833.022	23931
833.16	24003
833.299	24254
833.437	24072
833.576	24163
833.714	24148
833.852	24205
833.991	24114
834.129	24110
834.267	24213
834.406	24072
834.544	24186
834.682	24045
834.821	24121
834.959	24338
835.097	24114
835.235	24273
835.373	24220
835.511	24095
835.65	23946
835.788	24026
835.926	23802
836.064	23794
836.202	23684
836.34	23904
836.478	24079
836.615	23942
836.753	24011
836.891	24072
837.029	23927
837.167	23817
837.305	23893
837.443	23695
837.58	23805
837.718	23798
837.856	23821
837.993	23764
838.131	23646
838.269	23745
838.406	23714
838.544	23543
838.681	23376
838.819	23334
838.956	23227
839.094	23200
839.231	23322
839.369	23516
839.506	23551
839.643	23459
839.781	23250
839.918	23189
840.055	23239
840.193	23159
840.33	23178
840.467	23235
840.604	23220
840.742	23566
840.879	23029
841.016	23136
841.153	23105
841.29	23372
841.427	23155
841.564	23109
841.701	23185
841.838	23140
841.975	23140
842.112	23109
842.249	23003
842.385	22908
842.522	23170
842.659	23014
842.796	23033
842.933	22805
843.069	22984
843.206	22877
843.343	22972
843.479	22805
843.616	22987
843.752	22683
843.889	22721
844.025	22748
844.162	22687
844.298	22782
844.435	22634
844.571	22634
844.708	22721
844.844	22930
844.98	22835
845.117	22854
845.253	22592
845.389	22580
845.525	22550
845.661	22546
845.798	22592
845.934	22474
846.07	22356
846.206	22436
846.342	22550
846.478	22421
846.614	22337
846.75	22162
846.886	22086
847.022	22253
847.158	22318
847.294	22070
847.429	22207
847.565	22249
847.701	22344
847.837	21922
847.972	22002
848.108	21934
848.244	21960
848.379	21827
848.515	21720
848.65	21800
848.786	21812
848.921	21827
849.057	21903
849.192	21698
849.328	21778
849.463	21781
849.598	21728
849.734	21686
849.869	21606
850.004	21591
850.14	21557
850.275	21572
850.41	21450
850.545	21389
850.68	21557
850.815	21443
850.95	21431
851.085	21724
851.22	21591
851.355	21443
851.49	21549
851.625	21420
851.76	21431
851.895	21420
852.03	21428
852.165	21545
852.299	21488
852.434	21526
852.569	21542
852.703	21428
852.838	21606
852.973	21736
853.107	21660
853.242	21553
853.376	21370
853.511	21256
853.645	21237
853.78	21416
853.914	21382
854.048	21233
854.183	21264
854.317	21370
854.451	21564
854.585	21359
854.72	21283
854.854	21359
854.988	21252
855.122	21325
855.256	21146
855.39	21310
855.524	21370
855.658	21374
855.792	21386
855.926	21336
856.06	21386
856.194	21412
856.327	21279
856.461	21279
856.595	21279
856.729	21348
856.862	21454
856.996	21272
857.13	21386
857.263	21325
857.397	21298
857.53	21336
857.664	21363
857.797	21473
857.931	21473
858.064	21374
858.197	21412
858.331	21249
858.464	21184
858.597	21237
858.731	21302
858.864	21313
858.997	21287
859.13	21329
859.263	21287
859.396	21412
859.529	21211
859.662	21408
859.795	21150
859.928	21313
860.061	21462
860.194	21477
860.327	21420
860.46	21336
860.592	21496
860.725	21473
860.858	21431
860.99	21268
861.123	21176
861.256	21237
861.388	21332
861.521	21949
861.653	21302
861.786	21093
861.918	21096
862.05	21275
862.183	21230
862.315	21127
862.447	21462
862.58	21214
862.712	21032
862.844	21039
862.976	21104
863.108	21131
863.24	21393
863.372	20971
863.504	21001
863.636	21089
863.768	21108
863.9	21036
864.032	20906
864.164	20933
864.296	21039
864.428	21112
864.559	21241
864.691	21074
864.823	21127
864.954	21123
865.086	20986
865.217	20952
865.349	20921
865.48	20960
865.612	20918
865.743	21070
865.875	20979
866.006	20967
866.137	21058
866.269	20845
866.4	20925
866.531	20887
866.662	20659
866.793	20975
866.924	20872
867.055	20941
867.186	20933
867.317	20785
867.448	20697
867.579	20823
867.71	20788
867.841	20735
867.972	20834
868.103	20994
868.233	20998
868.364	20849
868.495	20948
868.625	21135
868.756	21192
868.886	21036
869.017	21127
869.147	21150
869.278	21260
869.408	21096
869.539	21051
869.669	21043
869.799	21138
869.929	21252
870.06	21256
870.19	21408
870.32	21378
870.45	21462
870.58	21439
870.71	21599
870.84	21538
870.97	21439
871.1	21511
871.23	21667
871.36	21850
871.489	21618
871.619	21701
871.749	21724
871.879	21622
872.008	21747
872.138	21648
872.267	21671
872.397	21637
872.526	21469
872.656	21591
872.785	21580
872.915	21800
873.044	21804
873.173	21595
873.303	21625
873.432	21728
873.561	21842
873.69	21774
873.819	21774
873.948	21956
874.077	21770
874.206	21663
874.335	21804
874.464	21800
874.593	22036
874.722	21816
874.851	21953
874.979	22044
875.108	21915
875.237	21899
875.365	21937
875.494	21838
875.623	22002
875.751	21926
875.88	21953
876.008	22021
876.136	22219
876.265	22356
876.393	22542
876.521	22402
876.65	22436
876.778	22413
876.906	22371
877.034	22150
877.162	22276
877.29	22188
877.418	22246
877.546	22276
877.674	22314
877.802	22268
877.93	22265
878.058	22249
878.185	22287
878.313	22215
878.441	22333
878.568	22120
878.696	22200
878.824	22318
878.951	22440
879.079	22413
879.206	22569
879.333	22447
879.461	22390
879.588	22459
879.715	22436
879.842	22421
879.97	22246
880.097	22188
880.224	22093
880.351	22021
880.478	22131
880.605	22124
880.732	22059
880.859	22352
880.986	22181
881.112	22070
881.239	22040
881.366	21793
881.493	21732
881.619	21682
881.746	21701
881.872	21797
881.999	21747
882.125	21682
882.252	21804
882.378	21705
882.505	21648
882.631	21583
882.757	21447
882.883	21663
883.01	21412
883.136	21348
883.262	21317
883.388	21344
883.514	21355
883.64	21382
883.766	21332
883.892	21138
884.018	21112
884.143	21268
884.269	21511
884.395	21135
884.52	21032
884.646	21077
884.772	20986
884.897	20921
885.023	20998
885.148	21100
885.274	21066
885.399	21070
885.524	20868
885.65	20979
885.775	20948
885.9	20990
886.025	21108
886.15	21028
886.275	21081
886.4	20941
886.525	20921
886.65	21005
886.775	20944
886.9	21169
887.025	21344
887.149	20948
887.274	20826
887.399	20800
887.523	20861
887.648	20785
887.773	20705
887.897	20849
888.021	20788
888.146	20788
888.27	20895
888.395	20811
888.519	20834
888.643	20891
888.767	20838
888.891	20754
889.015	20678
889.139	20632
889.263	20522
889.387	20735
889.511	20811
889.635	20701
889.759	20590
889.883	20644
890.006	20670
890.13	20560
890.254	20556
890.377	20560
890.501	20240
890.624	20301
890.748	20351
890.871	20252
890.995	20248
891.118	20119
891.241	20153
891.364	20221
891.488	20336
891.611	20172
891.734	20134
891.857	20039
891.98	20267
892.103	20172
892.226	20172
892.349	20103
892.471	20005
892.594	19963
892.717	20191
892.839	20001
892.962	20103
893.085	20164
893.207	20180
893.33	19986
893.452	19955
893.575	20126
893.697	20027
893.819	20275
893.941	20225
894.064	20229
894.186	19993
894.308	19951
894.43	20168
894.552	20187
894.674	20168
894.796	19917
894.918	19986
895.04	20081
895.161	20001
895.283	20115
895.405	20039
895.526	20100
895.648	20096
895.769	20126
895.891	20103
896.012	20225
896.134	20134
896.255	19974
896.376	20077
896.498	20062
896.619	20065
896.74	20062
896.861	20172
896.982	20552
897.103	20530
897.224	20457
897.345	20427
897.466	20122
897.587	20355
897.708	20393
897.828	20434
897.949	20142
898.07	20183
898.19	20324
898.311	20336
898.431	20290
898.552	20256
898.672	20362
898.792	20415
898.913	20404
899.033	20199
899.153	19982
899.273	19982
899.393	20065
899.513	20077
899.633	20142
899.753	20081
899.873	19902
899.993	20210
900.113	19921
900.232	20050
900.352	20062
900.472	19997
900.591	19803
900.711	19841
900.83	19803
900.95	19913
901.069	19925
901.189	19841
901.308	19472
901.427	19457
901.546	19460
901.665	19468
901.784	19441
901.904	19240
902.023	19251
902.141	19004
902.26	18962
902.379	19027
902.498	18943
902.617	18939
902.735	19053
902.854	18928
902.973	18928
903.091	18650
903.21	18582
903.328	18528
903.446	18540
903.565	18452
903.683	18456
903.801	18334
903.919	18361
904.038	18471
904.156	18125
904.274	18304
904.392	18266
904.51	18041
904.627	18258
904.745	18311
904.863	18224
904.981	18060
905.098	17897
905.216	17779
905.334	17882
905.451	17817
905.569	17737
905.686	17912
905.803	17824
905.921	17722
906.038	17646
906.155	17623
906.272	17577
906.389	17528
906.506	17368
906.623	17455
906.74	17349
906.857	17330
906.974	17178
907.091	17478
907.208	17512
907.324	17395
907.441	17360
907.557	17075
907.674	17067
907.79	16972
907.907	17086
908.023	17181
908.139	17132
908.256	17117
908.372	16927
908.488	16915
908.604	16908
908.72	16805
908.836	16869
908.952	16790
909.068	16831
909.184	16919
909.3	16866
909.415	16835
909.531	16892
909.647	16440
909.762	16565
909.878	16573
909.993	16519
910.108	16409
910.224	16394
910.339	16546
910.454	16386
910.57	16329
910.685	16211
910.8	16500
910.915	16512
911.03	16249
911.145	16078
911.259	16128
911.374	16154
911.489	16044
911.604	15953
911.718	15785
911.833	15876
911.947	15785
912.062	15732
912.176	15888
912.291	15762
912.405	15941
912.519	16097
912.633	15987
912.748	15880
912.862	15816
912.976	15641
913.09	15542
913.204	15595
913.318	15717
913.431	15774
913.545	15781
913.659	15713
913.772	15564
913.886	15572
914	15584
914.113	15530
914.226	15545
914.34	15511
914.453	15355
914.566	15519
914.68	15435
914.793	15283
914.906	15173
915.019	15062
915.132	15108
915.245	15062
915.358	15127
915.47	15093
915.583	15097
915.696	15123
915.809	15135
915.921	15218
916.034	15020
916.146	14990
916.259	15024
916.371	15058
916.483	15051
916.595	14899
916.708	14975
916.82	15058
916.932	14880
917.044	14864
917.156	14876
917.268	14735
917.38	14712
917.491	14785
917.603	14746
917.715	14838
917.826	14815
917.938	14651
918.049	14621
918.161	14716
918.272	14857
918.384	14750
918.495	14632
918.606	14549
918.717	14469
918.828	14457
918.939	14568
919.05	14396
919.161	14507
919.272	14218
919.383	14282
919.494	14556
919.604	14659
919.715	14442
919.826	14412
919.936	14507
920.047	14446
920.157	14541
920.267	14678
920.378	14526
920.488	14408
920.598	14579
920.708	14758
920.818	14602
920.928	14579
921.038	14807
921.148	14765
921.258	14465
921.368	14256
921.477	14244
921.587	14168
921.697	14123
921.806	14100
921.916	13989
922.025	13944
922.134	13826
922.244	13727
922.353	13795
922.462	13689
922.571	13734
922.68	13521
922.789	13476
922.898	13540
923.007	13430
923.116	13529
923.224	13487
923.333	13373
923.442	13339
923.55	13301
923.659	13251
923.767	13358
923.876	13187
923.984	13388
924.092	13232
924.201	13308
924.309	13259
924.417	13221
924.525	13247
924.633	13164
924.741	13879
924.849	12962
924.956	13129
925.064	12962
925.172	12741
925.279	12935
925.387	13053
925.494	12932
925.602	13057
925.709	12909
925.816	12711
925.924	12840
926.031	12954
926.138	12852
926.245	12859
926.352	12684
926.459	12817
926.566	12825
926.673	12741
926.779	12722
926.886	12658
926.993	12513
927.099	12536
927.206	12467
927.312	12391
927.419	12456
927.525	12547
927.631	12494
927.737	12357
927.843	12350
927.95	12152
928.056	12429
928.162	12296
928.267	12319
928.373	12973
928.479	12395
928.585	12102
928.69	12247
928.796	12342
928.901	12194
929.007	11996
929.112	12117
929.218	12095
929.323	12030
929.428	12022
929.533	12114
929.638	11996
929.743	12019
929.848	11980
929.953	11977
930.058	11927
930.163	11718
930.267	11748
930.372	11882
930.477	11680
930.581	11904
930.685	11688
930.79	11570
930.894	11653
930.998	11558
931.103	11653
931.207	11421
931.311	11376
931.415	11235
931.519	10976
931.623	10889
