Data from test_V78500241_2127.txt Node
Date: Fri Mar 25 15:56:32 CST 2022
User: usil
Spectrometer: V785-0024
Trigger mode: 0
Integration Time (sec): 4.000000E-1
Scans to average: 1
Nonlinearity correction enabled: false
Boxcar width: 0
Storing dark spectrum: false
XAxis mode: Wavelengths
Number of Pixels in Spectrum: 1024
>>>>>Begin Spectral Data<<<<<
801.071	29052
801.214	28972
801.356	28664
801.499	28592
801.641	28691
801.783	28565
801.926	28660
802.068	28675
802.211	28565
802.353	28386
802.496	28421
802.638	28352
802.78	28287
802.923	28295
803.065	28360
803.208	28253
803.35	28310
803.492	28424
803.635	28531
803.777	28211
803.919	28615
804.061	28672
804.204	28645
804.346	28500
804.488	28485
804.63	28493
804.773	28485
804.915	28687
805.057	28683
805.199	28596
805.341	28550
805.483	28713
805.626	28733
805.768	28489
805.91	28725
806.052	28736
806.194	28508
806.336	28961
806.478	28729
806.62	28687
806.762	28847
806.904	29166
807.046	29261
807.188	29010
807.33	29132
807.472	29280
807.614	29033
807.756	29166
807.898	28816
808.04	29006
808.182	28927
808.324	29064
808.465	29083
808.607	29258
808.749	29360
808.891	29471
809.033	29520
809.174	29391
809.316	29318
809.458	29356
809.6	29375
809.741	29630
809.883	29531
810.025	29760
810.166	29699
810.308	29649
810.45	29657
810.591	29452
810.733	29611
810.875	29417
811.016	29337
811.158	29220
811.299	29505
811.441	29596
811.582	29611
811.724	29406
811.865	29406
812.007	29375
812.148	29493
812.29	29581
812.431	29764
812.573	29737
812.714	29980
812.855	30011
812.997	30079
813.138	30167
813.279	30098
813.421	29969
813.562	29828
813.703	29882
813.845	29642
813.986	29421
814.127	29269
814.268	28999
814.41	29311
814.551	29193
814.692	29212
814.833	29083
814.974	29178
815.115	29155
815.256	28915
815.397	29052
815.539	29067
815.68	29041
815.821	28892
815.962	28965
816.103	28957
816.244	28706
816.385	28752
816.526	28691
816.666	28645
816.807	28531
816.948	28725
817.089	28637
817.23	28508
817.371	28375
817.512	28580
817.653	28371
817.793	28443
817.934	28500
818.075	28470
818.216	28432
818.356	28424
818.497	28474
818.638	28112
818.778	28344
818.919	28246
819.06	28344
819.2	28329
819.341	28466
819.481	28497
819.622	28565
819.762	28850
819.903	28820
820.043	28793
820.184	28637
820.324	28618
820.465	28535
820.605	28683
820.746	28577
820.886	28424
821.026	28459
821.167	28561
821.307	28694
821.447	28584
821.588	28394
821.728	28196
821.868	28253
822.008	27926
822.149	27983
822.289	27846
822.429	27663
822.569	27675
822.709	27549
822.849	27450
822.99	27557
823.13	27515
823.27	27557
823.41	27447
823.55	27100
823.69	27275
823.83	27211
823.97	27302
824.11	27222
824.25	27047
824.389	27230
824.529	27077
824.669	27123
824.809	27207
824.949	27157
825.089	27173
825.228	27203
825.368	27093
825.508	26944
825.648	27028
825.787	27036
825.927	27062
826.067	26975
826.206	27085
826.346	27180
826.485	27119
826.625	27043
826.765	26921
826.904	26998
827.044	26796
827.183	26773
827.323	26682
827.462	26819
827.601	26853
827.741	26693
827.88	26712
828.02	26571
828.159	26724
828.298	26686
828.437	26762
828.577	26720
828.716	26716
828.855	26739
828.994	26442
829.134	26385
829.273	26480
829.412	26374
829.551	26366
829.69	26438
829.829	26670
829.968	26412
830.107	26404
830.246	26522
830.385	26339
830.524	26180
830.663	26210
830.802	26115
830.941	26046
831.08	25913
831.219	25966
831.357	26115
831.496	26286
831.635	25997
831.774	25818
831.913	25811
832.051	25788
832.19	25795
832.329	25841
832.467	25837
832.606	25655
832.744	25696
832.883	25643
833.022	25590
833.16	25689
833.299	25677
833.437	25643
833.576	25852
833.714	25723
833.852	25841
833.991	25776
834.129	25871
834.267	25765
834.406	25727
834.544	25719
834.682	25772
834.821	25715
834.959	25906
835.097	25708
835.235	25761
835.373	25772
835.511	25647
835.65	25685
835.788	25476
835.926	25548
836.064	25400
836.202	25396
836.34	25422
836.478	25639
836.615	25552
836.753	25601
836.891	25677
837.029	25635
837.167	25540
837.305	25449
837.443	25502
837.58	25426
837.718	25457
837.856	25221
837.993	25331
838.131	25354
838.269	25247
838.406	25327
838.544	25187
838.681	24856
838.819	24947
838.956	24833
839.094	24932
839.231	24977
839.369	25027
839.506	25304
839.643	25202
839.781	24806
839.918	24810
840.055	24837
840.193	24795
840.33	24837
840.467	24749
840.604	24890
840.742	25046
840.879	24589
841.016	24711
841.153	24635
841.29	24779
841.427	24696
841.564	24753
841.701	24707
841.838	24681
841.975	24509
842.112	24661
842.249	24631
842.385	24490
842.522	24722
842.659	24593
842.796	24399
842.933	24509
843.069	24471
843.206	24502
843.343	24582
843.479	24464
843.616	24475
843.752	24285
843.889	24239
844.025	24418
844.162	24258
844.298	24365
844.435	24292
844.571	24239
844.708	24178
844.844	24395
844.98	24353
845.117	24342
845.253	24277
845.389	24095
845.525	24136
845.661	23977
845.798	23999
845.934	23980
846.07	23980
846.206	23923
846.342	24129
846.478	23912
846.614	23771
846.75	23653
846.886	23726
847.022	23790
847.158	23699
847.294	23608
847.429	23828
847.565	23649
847.701	24018
847.837	23448
847.972	23490
848.108	23566
848.244	23505
848.379	23318
848.515	23277
848.65	23345
848.786	23315
848.921	23299
849.057	23326
849.192	23448
849.328	23364
849.463	23296
849.598	23193
849.734	23284
849.869	23178
850.004	23033
850.14	23121
850.275	23124
850.41	22949
850.545	22938
850.68	23018
850.815	23155
850.95	23083
851.085	23204
851.22	23246
851.355	23044
851.49	23166
851.625	23048
851.76	23094
851.895	22968
852.03	23018
852.165	23041
852.299	23098
852.434	23044
852.569	23037
852.703	23174
852.838	23216
852.973	23189
853.107	23235
853.242	23033
853.376	22999
853.511	22778
853.645	22885
853.78	22968
853.914	22957
854.048	22885
854.183	22824
854.317	23006
854.451	22961
854.585	22938
854.72	22824
854.854	23003
854.988	22930
855.122	22976
855.256	22820
855.39	22972
855.524	22991
855.658	22877
855.792	23060
855.926	23018
856.06	22889
856.194	23022
856.327	22843
856.461	22965
856.595	22839
856.729	22877
856.862	23067
856.996	22915
857.13	22991
857.263	23071
857.397	22957
857.53	22923
857.664	22930
857.797	22976
857.931	23155
858.064	22965
858.197	23071
858.331	22930
858.464	22801
858.597	22854
858.731	22965
858.864	22904
858.997	22938
859.13	22995
859.263	23014
859.396	22991
859.529	22930
859.662	22976
859.795	22831
859.928	22839
860.061	23060
860.194	23174
860.327	23025
860.46	22968
860.592	23010
860.725	23083
860.858	23056
860.99	22965
861.123	22927
861.256	22911
861.388	22797
861.521	23535
861.653	22847
861.786	22656
861.918	22702
862.05	22713
862.183	22904
862.315	22786
862.447	23010
862.58	22767
862.712	22607
862.844	22618
862.976	22740
863.108	22698
863.24	23124
863.372	22497
863.504	22561
863.636	22649
863.768	22694
863.9	22615
864.032	22523
864.164	22596
864.296	22679
864.428	22706
864.559	22687
864.691	22615
864.823	22573
864.954	22516
865.086	22527
865.217	22398
865.349	22474
865.48	22489
865.612	22523
865.743	22649
865.875	22523
866.006	22447
866.137	22417
866.269	22569
866.4	22557
866.531	22417
866.662	22367
866.793	22409
866.924	22306
867.055	22493
867.186	22424
867.317	22470
867.448	22272
867.579	22394
867.71	22447
867.841	22230
867.972	22291
868.103	22344
868.233	22440
868.364	22295
868.495	22428
868.625	22634
868.756	22611
868.886	22493
869.017	22679
869.147	22733
869.278	22774
869.408	22668
869.539	22725
869.669	22759
869.799	22805
869.929	22691
870.06	22721
870.19	22889
870.32	23071
870.45	22987
870.58	23010
870.71	23242
870.84	23071
870.97	22980
871.1	23105
871.23	23235
871.36	23212
871.489	23067
871.619	23151
871.749	23124
871.879	23288
872.008	23360
872.138	23235
872.267	23227
872.397	23018
872.526	23098
872.656	23056
872.785	23018
872.915	23208
873.044	23387
873.173	23318
873.303	23181
873.432	23356
873.561	23436
873.69	23337
873.819	23353
873.948	23398
874.077	23318
874.206	23246
874.335	23208
874.464	23395
874.593	23448
874.722	23440
874.851	23505
874.979	23528
875.108	23505
875.237	23543
875.365	23292
875.494	23452
875.623	23463
875.751	23463
875.88	23436
876.008	23619
876.136	23771
876.265	23802
876.393	23923
876.521	23817
876.65	23977
876.778	23923
876.906	23828
877.034	23866
877.162	23767
877.29	23786
877.418	23901
877.546	23809
877.674	23756
877.802	23745
877.93	23893
878.058	23710
878.185	23729
878.313	23790
878.441	23923
878.568	23646
878.696	23661
878.824	23847
878.951	23832
879.079	24053
879.206	24129
879.333	23946
879.461	23866
879.588	23908
879.715	24045
879.842	24178
879.97	23840
880.097	23718
880.224	23615
880.351	23741
880.478	23695
880.605	23570
880.732	23619
880.859	23805
880.986	23627
881.112	23558
881.239	23425
881.366	23235
881.493	23341
881.619	23109
881.746	23212
881.872	23075
881.999	23166
882.125	23094
882.252	23174
882.378	23090
882.505	23311
882.631	23064
882.757	22809
882.883	22835
883.01	22801
883.136	22877
883.262	22736
883.388	22759
883.514	22839
883.64	22828
883.766	22763
883.892	22596
884.018	22626
884.143	22637
884.269	22919
884.395	22535
884.52	22459
884.646	22519
884.772	22474
884.897	22348
885.023	22504
885.148	22569
885.274	22550
885.399	22561
885.524	22466
885.65	22478
885.775	22428
885.9	22443
886.025	22565
886.15	22523
886.275	22459
886.4	22314
886.525	22344
886.65	22424
886.775	22386
886.9	22516
887.025	22672
887.149	22451
887.274	22230
887.399	22280
887.523	22280
887.648	22238
887.773	22147
887.897	22390
888.021	22329
888.146	22090
888.27	22280
888.395	22242
888.519	22306
888.643	22310
888.767	22139
888.891	22109
889.015	22059
889.139	22082
889.263	21991
889.387	22249
889.511	22173
889.635	22154
889.759	21983
889.883	21975
890.006	21979
890.13	22105
890.254	21960
890.377	21892
890.501	21671
890.624	21610
890.748	21838
890.871	21686
890.995	21675
891.118	21462
891.241	21443
891.364	21553
891.488	21682
891.611	21397
891.734	21545
891.857	21564
891.98	21473
892.103	21557
892.226	21603
892.349	21405
892.471	21332
892.594	21428
892.717	21477
892.839	21408
892.962	21428
893.085	21576
893.207	21454
893.33	21348
893.452	21332
893.575	21523
893.697	21378
893.819	21519
893.941	21732
894.064	21603
894.186	21370
894.308	21310
894.43	21450
894.552	21583
894.674	21412
894.796	21344
894.918	21424
895.04	21367
895.161	21454
895.283	21424
895.405	21447
895.526	21435
895.648	21260
895.769	21420
895.891	21523
896.012	21454
896.134	21466
896.255	21447
896.376	21393
896.498	21408
896.619	21420
896.74	21526
896.861	21420
896.982	21713
897.103	21861
897.224	21667
897.345	21656
897.466	21515
897.587	21549
897.708	21751
897.828	21580
897.949	21656
898.07	21401
898.19	21644
898.311	21698
898.431	21488
898.552	21644
898.672	21606
898.792	21644
898.913	21553
899.033	21549
899.153	21344
899.273	21188
899.393	21237
899.513	21359
899.633	21332
899.753	21363
899.873	21291
899.993	21317
900.113	21260
900.232	21214
900.352	21104
900.472	21104
900.591	21077
900.711	21169
900.83	21039
900.95	21184
901.069	21138
901.189	20979
901.308	20697
901.427	20640
901.546	20526
901.665	20621
901.784	20632
901.904	20511
902.023	20419
902.141	20267
902.26	20248
902.379	20210
902.498	20134
902.617	20005
902.735	20180
902.854	20142
902.973	20027
903.091	19963
903.21	19746
903.328	19852
903.446	19651
903.565	19578
903.683	19529
903.801	19586
903.919	19594
904.038	19616
904.156	19430
904.274	19472
904.392	19392
904.51	19324
904.627	19377
904.745	19400
904.863	19354
904.981	19137
905.098	19099
905.216	19072
905.334	19156
905.451	18989
905.569	18996
905.686	19050
905.803	19015
905.921	18856
906.038	18973
906.155	18776
906.272	18821
906.389	18711
906.506	18642
906.623	18566
906.74	18563
906.857	18422
906.974	18502
907.091	18612
907.208	18532
907.324	18555
907.441	18429
907.557	18338
907.674	18228
907.79	18148
907.907	18232
908.023	18300
908.139	18220
908.256	18258
908.372	18053
908.488	18087
908.604	18015
908.72	17904
908.836	17931
908.952	17931
909.068	17866
909.184	18045
909.3	17954
909.415	17939
909.531	17878
909.647	17726
909.762	17687
909.878	17646
909.993	17623
910.108	17687
910.224	17528
910.339	17596
910.454	17551
910.57	17455
910.685	17406
910.8	17623
910.915	17497
911.03	17528
911.145	17231
911.259	17174
911.374	17200
911.489	17239
911.604	17086
911.718	17064
911.833	16995
911.947	16782
912.062	16801
912.176	16965
912.291	17041
912.405	17029
912.519	17090
912.633	17060
912.748	16980
912.862	16949
912.976	16820
913.09	16645
913.204	16675
913.318	16774
913.431	16805
913.545	16831
913.659	16869
913.772	16653
913.886	16706
914	16508
914.113	16679
914.226	16679
914.34	16573
914.453	16481
914.566	16527
914.68	16531
914.793	16379
914.906	16166
915.019	16086
915.132	16204
915.245	16109
915.358	16071
915.47	16116
915.583	16185
915.696	16131
915.809	16226
915.921	16207
916.034	16139
916.146	15918
916.259	16029
916.371	16162
916.483	15972
916.595	16097
916.708	15865
916.82	16010
916.932	15823
917.044	15911
917.156	15888
917.268	15736
917.38	15743
917.491	15637
917.603	15819
917.715	15880
917.826	15774
917.938	15618
918.049	15610
918.161	15641
918.272	15819
918.384	15857
918.495	15675
918.606	15584
918.717	15564
918.828	15469
918.939	15504
919.05	15405
919.161	15488
919.272	15287
919.383	15382
919.494	15538
919.604	15580
919.715	15420
919.826	15275
919.936	15374
920.047	15500
920.157	15439
920.267	15618
920.378	15473
920.488	15397
920.598	15641
920.708	15842
920.818	15553
920.928	15557
921.038	15606
921.148	15747
921.258	15378
921.368	15302
921.477	15127
921.587	15112
921.697	15024
921.806	15176
921.916	14998
922.025	14918
922.134	14830
922.244	14765
922.353	14838
922.462	14743
922.571	14625
922.68	14465
922.789	14393
922.898	14404
923.007	14415
923.116	14484
923.224	14400
923.333	14389
923.442	14294
923.55	14244
923.659	14336
923.767	14317
923.876	14161
923.984	14229
924.092	14210
924.201	14119
924.309	14202
924.417	14195
924.525	14062
924.633	14096
924.741	14914
924.849	13837
924.956	14073
925.064	13856
925.172	13788
925.279	13807
925.387	13898
925.494	13837
925.602	13982
925.709	13769
925.816	13685
925.924	13765
926.031	13894
926.138	13772
926.245	13868
926.352	13651
926.459	13776
926.566	13795
926.673	13708
926.779	13597
926.886	13476
926.993	13403
927.099	13327
927.206	13301
927.312	13316
927.419	13403
927.525	13251
927.631	13365
927.737	13232
927.843	13232
927.95	12935
928.056	13194
928.162	13225
928.267	13187
928.373	13811
928.479	13175
928.585	12970
928.69	13034
928.796	13027
928.901	12935
929.007	12795
929.112	12993
929.218	12939
929.323	12852
929.428	12890
929.533	12894
929.638	12795
929.743	12768
929.848	12821
929.953	12719
930.058	12692
930.163	12532
930.267	12551
930.372	12669
930.477	12395
930.581	12700
930.685	12536
930.79	12330
930.894	12410
930.998	12403
931.103	12513
931.207	12114
931.311	12049
931.415	11973
931.519	11767
931.623	11726
