Data from test_V78500241_3100.txt Node
Date: Fri Mar 25 16:03:16 CST 2022
User: usil
Spectrometer: V785-0024
Trigger mode: 0
Integration Time (sec): 4.000000E-1
Scans to average: 1
Nonlinearity correction enabled: false
Boxcar width: 0
Storing dark spectrum: false
XAxis mode: Wavelengths
Number of Pixels in Spectrum: 1024
>>>>>Begin Spectral Data<<<<<
801.071	28451
801.214	28637
801.356	28367
801.499	28215
801.641	28192
801.783	28109
801.926	28048
802.068	28154
802.211	28063
802.353	28116
802.496	27949
802.638	27698
802.78	27705
802.923	27720
803.065	27861
803.208	27675
803.35	27880
803.492	27979
803.635	28021
803.777	27918
803.919	28048
804.061	28261
804.204	28200
804.346	28006
804.488	28036
804.63	27903
804.773	27937
804.915	28154
805.057	28280
805.199	28074
805.341	28169
805.483	28276
805.626	28188
805.768	28139
805.91	28070
806.052	28166
806.194	28207
806.336	28386
806.478	28177
806.62	28177
806.762	28242
806.904	28573
807.046	28782
807.188	28493
807.33	28611
807.472	28729
807.614	28615
807.756	28706
807.898	28599
808.04	28421
808.182	28512
808.324	28466
808.465	28481
808.607	28744
808.749	28835
808.891	29041
809.033	29033
809.174	28949
809.316	28904
809.458	28888
809.6	28752
809.741	28957
809.883	29014
810.025	29109
810.166	29277
810.308	29212
810.45	29124
810.591	29041
810.733	29033
810.875	29037
811.016	28702
811.158	28881
811.299	29025
811.441	28961
811.582	29124
811.724	29010
811.865	28858
812.007	28957
812.148	28866
812.29	28904
812.431	29212
812.573	29018
812.714	29220
812.855	29353
812.997	29452
813.138	29558
813.279	29463
813.421	29433
813.562	29360
813.703	29132
813.845	28972
813.986	28778
814.127	28759
814.268	28615
814.41	28668
814.551	28630
814.692	28573
814.833	28436
814.974	28630
815.115	28683
815.256	28512
815.397	28455
815.539	28546
815.68	28382
815.821	28356
815.962	28398
816.103	28538
816.244	28147
816.385	28234
816.526	28177
816.666	28070
816.807	27804
816.948	27964
817.089	27979
817.23	27918
817.371	27823
817.512	27972
817.653	27987
817.793	28032
817.934	28147
818.075	27918
818.216	27979
818.356	27926
818.497	27755
818.638	27644
818.778	27644
818.919	27671
819.06	27679
819.2	27842
819.341	27762
819.481	27884
819.622	27994
819.762	28238
819.903	28162
820.043	28116
820.184	27983
820.324	27953
820.465	28109
820.605	28086
820.746	28067
820.886	27937
821.026	28128
821.167	28021
821.307	28086
821.447	28048
821.588	27781
821.728	27797
821.868	27576
822.008	27412
822.149	27450
822.289	27367
822.429	27051
822.569	27104
822.709	27062
822.849	26788
822.99	26948
823.13	26811
823.27	26785
823.41	26716
823.55	26663
823.69	26724
823.83	26727
823.97	26746
824.11	26568
824.25	26423
824.389	26423
824.529	26571
824.669	26571
824.809	26552
824.949	26579
825.089	26613
825.228	26617
825.368	26438
825.508	26545
825.648	26495
825.787	26453
825.927	26552
826.067	26320
826.206	26415
826.346	26541
826.485	26514
826.625	26499
826.765	26537
826.904	26533
827.044	26130
827.183	26248
827.323	26145
827.462	26206
827.601	26180
827.741	26001
827.88	26161
828.02	25993
828.159	26016
828.298	26130
828.437	26180
828.577	26046
828.716	26199
828.855	26001
828.994	25811
829.134	25795
829.273	25986
829.412	25712
829.551	25860
829.69	25731
829.829	25849
829.968	25803
830.107	26005
830.246	25635
830.385	25750
830.524	25731
830.663	25544
830.802	25472
830.941	25426
831.08	25308
831.219	25362
831.357	25335
831.496	25658
831.635	25510
831.774	25362
831.913	25240
832.051	25187
832.19	25247
832.329	25240
832.467	25168
832.606	25069
832.744	24977
832.883	25069
833.022	25050
833.16	25156
833.299	25076
833.437	25034
833.576	25110
833.714	25072
833.852	25335
833.991	25320
834.129	25289
834.267	25293
834.406	25126
834.544	25175
834.682	25156
834.821	25255
834.959	25373
835.097	25240
835.235	25297
835.373	25091
835.511	25122
835.65	24973
835.788	25057
835.926	24932
836.064	24840
836.202	24814
836.34	25042
836.478	25000
836.615	25027
836.753	24947
836.891	25076
837.029	24958
837.167	24882
837.305	24844
837.443	24814
837.58	24810
837.718	24817
837.856	24856
837.993	24715
838.131	24703
838.269	24757
838.406	24593
838.544	24661
838.681	24502
838.819	24452
838.956	24277
839.094	24254
839.231	24235
839.369	24380
839.506	24719
839.643	24525
839.781	24285
839.918	24159
840.055	24414
840.193	24323
840.33	24277
840.467	24152
840.604	24266
840.742	24445
840.879	24068
841.016	24140
841.153	24022
841.29	24395
841.427	24125
841.564	24216
841.701	24148
841.838	24053
841.975	24015
842.112	24114
842.249	24095
842.385	24053
842.522	24114
842.659	24076
842.796	23927
842.933	23988
843.069	23912
843.206	23866
843.343	23954
843.479	23878
843.616	23874
843.752	23710
843.889	23767
844.025	23817
844.162	23668
844.298	23843
844.435	23615
844.571	23687
844.708	23786
844.844	23718
844.98	23805
845.117	23733
845.253	23657
845.389	23592
845.525	23577
845.661	23562
845.798	23455
845.934	23573
846.07	23414
846.206	23383
846.342	23718
846.478	23387
846.614	23372
846.75	23132
846.886	23220
847.022	23265
847.158	23117
847.294	23143
847.429	23220
847.565	23159
847.701	23482
847.837	22991
847.972	22923
848.108	22911
848.244	22915
848.379	22866
848.515	22828
848.65	22649
848.786	22801
848.921	22748
849.057	22896
849.192	22805
849.328	22740
849.463	22862
849.598	22744
849.734	22622
849.869	22660
850.004	22538
850.14	22561
850.275	22489
850.41	22474
850.545	22474
850.68	22348
850.815	22405
850.95	22500
851.085	22767
851.22	22615
851.355	22557
851.49	22470
851.625	22459
851.76	22455
851.895	22455
852.03	22413
852.165	22508
852.299	22679
852.434	22641
852.569	22504
852.703	22459
852.838	22565
852.973	22626
853.107	22679
853.242	22451
853.376	22466
853.511	22398
853.645	22253
853.78	22481
853.914	22428
854.048	22242
854.183	22287
854.317	22322
854.451	22577
854.585	22306
854.72	22314
854.854	22443
854.988	22306
855.122	22341
855.256	22207
855.39	22295
855.524	22409
855.658	22356
855.792	22466
855.926	22348
856.06	22440
856.194	22508
856.327	22360
856.461	22295
856.595	22318
856.729	22177
856.862	22451
856.996	22413
857.13	22398
857.263	22443
857.397	22367
857.53	22333
857.664	22424
857.797	22424
857.931	22462
858.064	22306
858.197	22470
858.331	22276
858.464	22223
858.597	22226
858.731	22188
858.864	22238
858.997	22253
859.13	22344
859.263	22310
859.396	22280
859.529	22394
859.662	22455
859.795	22440
859.928	22246
860.061	22485
860.194	22455
860.327	22371
860.46	22394
860.592	22375
860.725	22611
860.858	22440
860.99	22356
861.123	22375
861.256	22375
861.388	22299
861.521	23025
861.653	22280
861.786	22112
861.918	22169
862.05	22196
862.183	22223
862.315	22276
862.447	22287
862.58	22299
862.712	22207
862.844	21983
862.976	22093
863.108	22147
863.24	22459
863.372	21994
863.504	22097
863.636	21892
863.768	22109
863.9	22036
864.032	22036
864.164	21926
864.296	22150
864.428	22147
864.559	22067
864.691	22158
864.823	22055
864.954	22040
865.086	21937
865.217	22135
865.349	21789
865.48	21899
865.612	21987
865.743	22017
865.875	21899
866.006	21812
866.137	21842
866.269	21941
866.4	21941
866.531	21884
866.662	21800
866.793	21766
866.924	21915
867.055	21751
867.186	21686
867.317	21827
867.448	21842
867.579	21876
867.71	21762
867.841	21857
867.972	21854
868.103	21827
868.233	21857
868.364	21903
868.495	22086
868.625	22101
868.756	22265
868.886	22097
869.017	22067
869.147	22124
869.278	22131
869.408	22124
869.539	22025
869.669	22135
869.799	22185
869.929	22143
870.06	22135
870.19	22417
870.32	22379
870.45	22394
870.58	22554
870.71	22611
870.84	22607
870.97	22561
871.1	22573
871.23	22763
871.36	22698
871.489	22565
871.619	22527
871.749	22736
871.879	22634
872.008	22782
872.138	22645
872.267	22679
872.397	22725
872.526	22512
872.656	22580
872.785	22459
872.915	22866
873.044	22774
873.173	22771
873.303	22675
873.432	22713
873.561	22736
873.69	22706
873.819	22649
873.948	22755
874.077	22721
874.206	22672
874.335	22797
874.464	22782
874.593	22904
874.722	22927
874.851	23037
874.979	23022
875.108	23105
875.237	22953
875.365	22763
875.494	23014
875.623	23006
875.751	22927
875.88	23006
876.008	23037
876.136	23083
876.265	23200
876.393	23471
876.521	23364
876.65	23379
876.778	23322
876.906	23421
877.034	23353
877.162	23296
877.29	23178
877.418	23220
877.546	23254
877.674	23121
877.802	23235
877.93	23349
878.058	23181
878.185	23178
878.313	23296
878.441	23280
878.568	23044
878.696	23174
878.824	23330
878.951	23296
879.079	23471
879.206	23505
879.333	23573
879.461	23269
879.588	23505
879.715	23444
879.842	23668
879.97	23398
880.097	23083
880.224	23136
880.351	23037
880.478	23044
880.605	23048
880.732	23033
880.859	23315
880.986	23105
881.112	22984
881.239	23025
881.366	22778
881.493	22729
881.619	22683
881.746	22729
881.872	22691
881.999	22626
882.125	22538
882.252	22755
882.378	22664
882.505	22721
882.631	22615
882.757	22402
882.883	22413
883.01	22379
883.136	22249
883.262	22261
883.388	22181
883.514	22341
883.64	22276
883.766	22333
883.892	22112
884.018	22112
884.143	22329
884.269	22280
884.395	22112
884.52	21861
884.646	21960
884.772	21934
884.897	21994
885.023	21907
885.148	22013
885.274	22036
885.399	22017
885.524	21888
885.65	21907
885.775	22040
885.9	22044
886.025	21979
886.15	21953
886.275	21876
886.4	21880
886.525	21903
886.65	21918
886.775	21812
886.9	22093
887.025	22192
887.149	21823
887.274	21785
887.399	21732
887.523	21827
887.648	21679
887.773	21682
887.897	21778
888.021	21739
888.146	21572
888.27	21789
888.395	21816
888.519	21800
888.643	21736
888.767	21667
888.891	21637
889.015	21450
889.139	21606
889.263	21481
889.387	21572
889.511	21671
889.635	21587
889.759	21382
889.883	21397
890.006	21568
890.13	21587
890.254	21511
890.377	21485
890.501	21439
890.624	21237
890.748	21241
890.871	21195
890.995	21154
891.118	21009
891.241	21138
891.364	21123
891.488	21237
891.611	21195
891.734	21131
891.857	21291
891.98	21032
892.103	21017
892.226	21180
892.349	21024
892.471	20990
892.594	21001
892.717	20971
892.839	20883
892.962	21028
893.085	21055
893.207	20830
893.33	20815
893.452	20918
893.575	21077
893.697	20834
893.819	21070
893.941	21150
894.064	21036
894.186	20899
894.308	20830
894.43	21051
894.552	20948
894.674	21058
894.796	20853
894.918	20864
895.04	21013
895.161	21020
895.283	20921
895.405	20788
895.526	20952
895.648	20921
895.769	20910
895.891	20944
896.012	21020
896.134	21013
896.255	20899
896.376	20971
896.498	21005
896.619	20941
896.74	21070
896.861	20971
896.982	21306
897.103	21397
897.224	21249
897.345	21100
897.466	21066
897.587	21184
897.708	21222
897.828	21154
897.949	21047
898.07	20982
898.19	21100
898.311	21188
898.431	21085
898.552	21123
898.672	21203
898.792	21272
898.913	21150
899.033	21001
899.153	20819
899.273	20899
899.393	20933
899.513	20891
899.633	20975
899.753	20849
899.873	20727
899.993	21001
900.113	20807
900.232	20823
900.352	20857
900.472	20705
900.591	20560
900.711	20667
900.83	20594
900.95	20693
901.069	20705
901.189	20560
901.308	20286
901.427	20355
901.546	20282
901.665	20100
901.784	20130
901.904	20096
902.023	20027
902.141	19856
902.26	19784
902.379	19784
902.498	19731
902.617	19540
902.735	19731
902.854	19647
902.973	19616
903.091	19419
903.21	19392
903.328	19339
903.446	19377
903.565	19103
903.683	19194
903.801	19103
903.919	19053
904.038	19175
904.156	18973
904.274	19023
904.392	19019
904.51	18928
904.627	18897
904.745	19053
904.863	19122
904.981	18654
905.098	18589
905.216	18764
905.334	18601
905.451	18582
905.569	18570
905.686	18593
905.803	18517
905.921	18330
906.038	18604
906.155	18361
906.272	18308
906.389	18292
906.506	18152
906.623	18171
906.74	18174
906.857	18003
906.974	18068
907.091	18213
907.208	18239
907.324	18072
907.441	18068
907.557	17809
907.674	17828
907.79	17703
907.907	17832
908.023	17821
908.139	17866
908.256	17748
908.372	17676
908.488	17809
908.604	17512
908.72	17543
908.836	17474
908.952	17528
909.068	17680
909.184	17764
909.3	17417
909.415	17562
909.531	17516
909.647	17269
909.762	17269
909.878	17254
909.993	17227
910.108	17410
910.224	17189
910.339	17242
910.454	17121
910.57	17105
910.685	16984
910.8	17322
910.915	17197
911.03	16995
911.145	16866
911.259	16866
911.374	16847
911.489	16828
911.604	16771
911.718	16599
911.833	16577
911.947	16538
912.062	16478
912.176	16588
912.291	16622
912.405	16565
912.519	16729
912.633	16744
912.748	16603
912.862	16527
912.976	16470
913.09	16242
913.204	16379
913.318	16379
913.431	16485
913.545	16417
913.659	16489
913.772	16219
913.886	16253
914	16299
914.113	16215
914.226	16333
914.34	16177
914.453	16128
914.566	16261
914.68	16040
914.793	16120
914.906	15819
915.019	15720
915.132	15747
915.245	15759
915.358	15785
915.47	15774
915.583	15724
915.696	15770
915.809	15846
915.921	15892
916.034	15793
916.146	15671
916.259	15679
916.371	15641
916.483	15701
916.595	15625
916.708	15542
916.82	15610
916.932	15553
917.044	15603
917.156	15519
917.268	15469
917.38	15397
917.491	15294
917.603	15447
917.715	15488
917.826	15344
917.938	15382
918.049	15226
918.161	15317
918.272	15397
918.384	15370
918.495	15317
918.606	15135
918.717	15104
918.828	15119
918.939	15108
919.05	15081
919.161	15070
919.272	14971
919.383	15047
919.494	15043
919.604	15298
919.715	15138
919.826	15039
919.936	15077
920.047	15165
920.157	15146
920.267	15195
920.378	15013
920.488	15017
920.598	15252
920.708	15462
920.818	15207
920.928	15218
921.038	15332
921.148	15245
921.258	15005
921.368	14933
921.477	14842
921.587	14845
921.697	14629
921.806	14819
921.916	14667
922.025	14511
922.134	14549
922.244	14332
922.353	14495
922.462	14412
922.571	14210
922.68	14138
922.789	14069
922.898	14111
923.007	14088
923.116	14248
923.224	14069
923.333	14058
923.442	13917
923.55	13940
923.659	13902
923.767	13963
923.876	13849
923.984	13811
924.092	13864
924.201	13852
924.309	13788
924.417	13780
924.525	13780
924.633	13772
924.741	14492
924.849	13510
924.956	13658
925.064	13495
925.172	13438
925.279	13358
925.387	13445
925.494	13464
925.602	13556
925.709	13506
925.816	13362
925.924	13483
926.031	13457
926.138	13331
926.245	13460
926.352	13293
926.459	13384
926.566	13472
926.673	13441
926.779	13194
926.886	13160
926.993	13076
927.099	13050
927.206	13004
927.312	13012
927.419	12993
927.525	12981
927.631	12966
927.737	12985
927.843	12947
927.95	12776
928.056	12722
928.162	12909
928.267	12875
928.373	13483
928.479	12897
928.585	12741
928.69	12779
928.796	12814
928.901	12623
929.007	12578
929.112	12673
929.218	12642
929.323	12578
929.428	12559
929.533	12719
929.638	12445
929.743	12460
929.848	12509
929.953	12483
930.058	12418
930.163	12213
930.267	12194
930.372	12315
930.477	12114
930.581	12429
930.685	12232
930.79	12057
930.894	12110
930.998	12114
931.103	12251
931.207	11843
931.311	11798
931.415	11718
931.519	11440
931.623	11444
