Data from test_V78500241_3372.txt Node
Date: Fri Mar 25 16:05:09 CST 2022
User: usil
Spectrometer: V785-0024
Trigger mode: 0
Integration Time (sec): 4.000000E-1
Scans to average: 1
Nonlinearity correction enabled: false
Boxcar width: 0
Storing dark spectrum: false
XAxis mode: Wavelengths
Number of Pixels in Spectrum: 1024
>>>>>Begin Spectral Data<<<<<
801.071	28154
801.214	28158
801.356	27918
801.499	27846
801.641	27831
801.783	27759
801.926	27762
802.068	27743
802.211	27656
802.353	27633
802.496	27545
802.638	27420
802.78	27370
802.923	27279
803.065	27405
803.208	27408
803.35	27450
803.492	27382
803.635	27564
803.777	27595
803.919	27576
804.061	27994
804.204	27720
804.346	27603
804.488	27515
804.63	27549
804.773	27637
804.915	27641
805.057	27789
805.199	27625
805.341	27759
805.483	27793
805.626	27895
805.768	27675
805.91	27709
806.052	27732
806.194	27816
806.336	27895
806.478	27785
806.62	27663
806.762	27842
806.904	28059
807.046	28291
807.188	28074
807.33	28192
807.472	28299
807.614	28188
807.756	28246
807.898	27914
808.04	27934
808.182	28002
808.324	28093
808.465	28048
808.607	28363
808.749	28443
808.891	28573
809.033	28584
809.174	28360
809.316	28211
809.458	28348
809.6	28394
809.741	28603
809.883	28573
810.025	28538
810.166	28744
810.308	28672
810.45	28622
810.591	28611
810.733	28443
810.875	28432
811.016	28265
811.158	28322
811.299	28656
811.441	28504
811.582	28481
811.724	28474
811.865	28409
812.007	28390
812.148	28447
812.29	28493
812.431	28702
812.573	28687
812.714	28862
812.855	29022
812.997	28976
813.138	29181
813.279	29079
813.421	28965
813.562	28831
813.703	28828
813.845	28607
813.986	28367
814.127	28101
814.268	28268
814.41	28147
814.551	28135
814.692	28070
814.833	28044
814.974	28086
815.115	28131
815.256	28070
815.397	27884
815.539	28048
815.68	27911
815.821	27884
815.962	28032
816.103	27937
816.244	27717
816.385	27766
816.526	27838
816.666	27515
816.807	27454
816.948	27473
817.089	27534
817.23	27606
817.371	27447
817.512	27542
817.653	27264
817.793	27431
817.934	27454
818.075	27412
818.216	27496
818.356	27420
818.497	27306
818.638	27173
818.778	27192
818.919	27161
819.06	27359
819.2	27256
819.341	27393
819.481	27325
819.622	27530
819.762	27732
819.903	27652
820.043	27633
820.184	27568
820.324	27450
820.465	27595
820.605	27454
820.746	27568
820.886	27492
821.026	27561
821.167	27435
821.307	27690
821.447	27389
821.588	27485
821.728	27211
821.868	27058
822.008	26937
822.149	26819
822.289	26868
822.429	26746
822.569	26598
822.709	26716
822.849	26423
822.99	26465
823.13	26461
823.27	26294
823.41	26195
823.55	26142
823.69	26259
823.83	26275
823.97	26157
824.11	26005
824.25	26210
824.389	26031
824.529	26065
824.669	26012
824.809	26164
824.949	26138
825.089	26069
825.228	26062
825.368	25864
825.508	25837
825.648	25986
825.787	25890
825.927	25894
826.067	25864
826.206	25738
826.346	25963
826.485	25974
826.625	25887
826.765	25974
826.904	25986
827.044	25689
827.183	25761
827.323	25556
827.462	25601
827.601	25757
827.741	25559
827.88	25685
828.02	25563
828.159	25689
828.298	25605
828.437	25647
828.577	25594
828.716	25658
828.855	25464
828.994	25289
829.134	25384
829.273	25274
829.412	25407
829.551	25259
829.69	25282
829.829	25362
829.968	25350
830.107	25544
830.246	25346
830.385	25137
830.524	25240
830.663	25057
830.802	25053
830.941	24981
831.08	25027
831.219	25050
831.357	25046
831.496	25129
831.635	24943
831.774	24939
831.913	24821
832.051	24703
832.19	24719
832.329	24700
832.467	24597
832.606	24475
832.744	24433
832.883	24536
833.022	24502
833.16	24604
833.299	24722
833.437	24677
833.576	24612
833.714	24741
833.852	24711
833.991	24840
834.129	24764
834.267	24798
834.406	24711
834.544	24677
834.682	24760
834.821	24532
834.959	24719
835.097	24445
835.235	24764
835.373	24570
835.511	24677
835.65	24509
835.788	24467
835.926	24350
836.064	24285
836.202	24357
836.34	24471
836.478	24498
836.615	24410
836.753	24517
836.891	24597
837.029	24509
837.167	24251
837.305	24475
837.443	24460
837.58	24418
837.718	24494
837.856	24410
837.993	24262
838.131	24414
838.269	24243
838.406	24300
838.544	24076
838.681	23912
838.819	24015
838.956	23752
839.094	23798
839.231	23866
839.369	23996
839.506	24201
839.643	23996
839.781	23885
839.918	23756
840.055	23912
840.193	23870
840.33	23649
840.467	23790
840.604	23760
840.742	23939
840.879	23596
841.016	23623
841.153	23463
841.29	23790
841.427	23619
841.564	23756
841.701	23745
841.838	23653
841.975	23657
842.112	23577
842.249	23452
842.385	23395
842.522	23737
842.659	23520
842.796	23547
842.933	23448
843.069	23425
843.206	23455
843.343	23623
843.479	23478
843.616	23433
843.752	23258
843.889	23273
844.025	23292
844.162	23227
844.298	23288
844.435	23189
844.571	23246
844.708	23292
844.844	23429
844.98	23414
845.117	23349
845.253	23258
845.389	23041
845.525	23124
845.661	23109
845.798	22900
845.934	22919
846.07	22885
846.206	23064
846.342	23132
846.478	22911
846.614	22782
846.75	22634
846.886	22733
847.022	22706
847.158	22626
847.294	22725
847.429	22904
847.565	22782
847.701	22908
847.837	22318
847.972	22299
848.108	22481
848.244	22436
848.379	22379
848.515	22367
848.65	22253
848.786	22291
848.921	22333
849.057	22421
849.192	22295
849.328	22337
849.463	22253
849.598	22272
849.734	22143
849.869	22101
850.004	21922
850.14	22173
850.275	21953
850.41	21968
850.545	21941
850.68	22116
850.815	22006
850.95	22021
851.085	22154
851.22	22147
851.355	21975
851.49	21991
851.625	21941
851.76	22040
851.895	22044
852.03	22021
852.165	21960
852.299	22097
852.434	22143
852.569	22105
852.703	22006
852.838	22158
852.973	22242
853.107	22036
853.242	21975
853.376	21892
853.511	21755
853.645	21736
853.78	21994
853.914	21926
854.048	21762
854.183	21880
854.317	21911
854.451	22025
854.585	21838
854.72	21945
854.854	21949
854.988	21789
855.122	21880
855.256	21709
855.39	21800
855.524	21960
855.658	21850
855.792	21876
855.926	21953
856.06	21812
856.194	21835
856.327	21892
856.461	21808
856.595	21785
856.729	21800
856.862	21892
856.996	21854
857.13	21873
857.263	22067
857.397	22040
857.53	21816
857.664	21880
857.797	21941
857.931	21934
858.064	21857
858.197	22021
858.331	21816
858.464	21751
858.597	21861
858.731	21865
858.864	21785
858.997	21869
859.13	22010
859.263	21804
859.396	22013
859.529	21804
859.662	21823
859.795	21838
859.928	21846
860.061	21994
860.194	22090
860.327	21975
860.46	21728
860.592	21998
860.725	21987
860.858	21960
860.99	22013
861.123	21797
861.256	21804
861.388	21816
861.521	22546
861.653	21842
861.786	21648
861.918	21675
862.05	21747
862.183	21804
862.315	21713
862.447	21888
862.58	21789
862.712	21652
862.844	21515
862.976	21728
863.108	21564
863.24	22074
863.372	21363
863.504	21591
863.636	21538
863.768	21591
863.9	21549
864.032	21564
864.164	21587
864.296	21641
864.428	21686
864.559	21542
864.691	21675
864.823	21629
864.954	21454
865.086	21614
865.217	21450
865.349	21439
865.48	21526
865.612	21462
865.743	21469
865.875	21614
866.006	21393
866.137	21477
866.269	21374
866.4	21412
866.531	21370
866.662	21291
866.793	21351
866.924	21332
867.055	21488
867.186	21488
867.317	21313
867.448	21287
867.579	21325
867.71	21298
867.841	21252
867.972	21431
868.103	21367
868.233	21450
868.364	21397
868.495	21420
868.625	21618
868.756	21770
868.886	21549
869.017	21587
869.147	21728
869.278	21800
869.408	21747
869.539	21545
869.669	21728
869.799	21637
869.929	21831
870.06	21816
870.19	21937
870.32	22010
870.45	22059
870.58	22059
870.71	22124
870.84	22124
870.97	22105
871.1	22025
871.23	22162
871.36	22295
871.489	22059
871.619	22223
871.749	22128
871.879	22268
872.008	22352
872.138	22337
872.267	22215
872.397	22169
872.526	22063
872.656	22211
872.785	22013
872.915	22398
873.044	22348
873.173	22177
873.303	22375
873.432	22310
873.561	22356
873.69	22162
873.819	22257
873.948	22299
874.077	22284
874.206	22169
874.335	22158
874.464	22306
874.593	22451
874.722	22474
874.851	22512
874.979	22573
875.108	22542
875.237	22390
875.365	22344
875.494	22413
875.623	22557
875.751	22421
875.88	22451
876.008	22584
876.136	22637
876.265	22889
876.393	23033
876.521	22972
876.65	22946
876.778	22972
876.906	22809
877.034	22797
877.162	22812
877.29	22809
877.418	22961
877.546	22725
877.674	22919
877.802	22847
877.93	22854
878.058	22862
878.185	22759
878.313	22740
878.441	22774
878.568	22748
878.696	22869
878.824	22972
878.951	22896
879.079	22999
879.206	23113
879.333	22976
879.461	22942
879.588	22919
879.715	23052
879.842	23151
879.97	22828
880.097	22710
880.224	22493
880.351	22767
880.478	22744
880.605	22664
880.732	22615
880.859	22896
880.986	22660
881.112	22740
881.239	22588
881.366	22424
881.493	22375
881.619	22135
881.746	22196
881.872	22249
881.999	22147
882.125	22196
882.252	22280
882.378	22204
882.505	22329
882.631	22120
882.757	21991
882.883	21972
883.01	21987
883.136	21880
883.262	21804
883.388	21682
883.514	21895
883.64	21994
883.766	21873
883.892	21800
884.018	21831
884.143	21854
884.269	21884
884.395	21656
884.52	21477
884.646	21595
884.772	21500
884.897	21424
885.023	21526
885.148	21656
885.274	21816
885.399	21663
885.524	21557
885.65	21606
885.775	21542
885.9	21496
886.025	21526
886.15	21591
886.275	21568
886.4	21564
886.525	21568
886.65	21439
886.775	21435
886.9	21720
887.025	21816
887.149	21473
887.274	21370
887.399	21226
887.523	21363
887.648	21332
887.773	21131
887.897	21393
888.021	21477
888.146	21275
888.27	21378
888.395	21443
888.519	21355
888.643	21272
888.767	21287
888.891	21157
889.015	21203
889.139	21112
889.263	21020
889.387	21222
889.511	21283
889.635	21154
889.759	21009
889.883	21028
890.006	20998
890.13	21302
890.254	21039
890.377	20895
890.501	20838
890.624	20754
890.748	20929
890.871	20739
890.995	20765
891.118	20602
891.241	20739
891.364	20777
891.488	20826
891.611	20674
891.734	20617
891.857	20785
891.98	20765
892.103	20689
892.226	20670
892.349	20659
892.471	20419
892.594	20484
892.717	20636
892.839	20480
892.962	20644
893.085	20651
893.207	20476
893.33	20533
893.452	20393
893.575	20712
893.697	20476
893.819	20754
893.941	20834
894.064	20648
894.186	20484
894.308	20431
894.43	20564
894.552	20705
894.674	20632
894.796	20423
894.918	20648
895.04	20434
895.161	20606
895.283	20587
895.405	20469
895.526	20450
895.648	20537
895.769	20564
895.891	20629
896.012	20590
896.134	20495
896.255	20594
896.376	20560
896.498	20606
896.619	20621
896.74	20621
896.861	20583
896.982	20906
897.103	20948
897.224	20743
897.345	20754
897.466	20800
897.587	20864
897.708	20880
897.828	20853
897.949	20823
898.07	20503
898.19	20621
898.311	20857
898.431	20663
898.552	20823
898.672	20792
898.792	20921
898.913	20758
899.033	20594
899.153	20686
899.273	20503
899.393	20526
899.513	20583
899.633	20598
899.753	20514
899.873	20530
899.993	20499
900.113	20431
900.232	20568
900.352	20438
900.472	20294
900.591	20347
900.711	20278
900.83	20290
900.95	20404
901.069	20419
901.189	20248
901.308	20058
901.427	19788
901.546	19830
901.665	19967
901.784	19826
901.904	19689
902.023	19677
902.141	19559
902.26	19400
902.379	19502
902.498	19491
902.617	19388
902.735	19426
902.854	19343
902.973	19247
903.091	19107
903.21	19008
903.328	19103
903.446	19000
903.565	18817
903.683	18779
903.801	18783
903.919	18802
904.038	18757
904.156	18673
904.274	18707
904.392	18570
904.51	18661
904.627	18692
904.745	18559
904.863	18654
904.981	18445
905.098	18319
905.216	18186
905.334	18334
905.451	18304
905.569	18205
905.686	18403
905.803	18239
905.921	18015
906.038	18171
906.155	18136
906.272	17961
906.389	17885
906.506	17805
906.623	17874
906.74	17794
906.857	17703
906.974	17684
907.091	17779
907.208	17984
907.324	17805
907.441	17737
907.557	17421
907.674	17448
907.79	17337
907.907	17493
908.023	17539
908.139	17501
908.256	17463
908.372	17551
908.488	17376
908.604	17311
908.72	17265
908.836	17246
908.952	17303
909.068	17261
909.184	17337
909.3	17299
909.415	17212
909.531	17223
909.647	16892
909.762	16995
909.878	16889
909.993	17025
910.108	16847
910.224	17041
910.339	16805
910.454	16790
910.57	16713
910.685	16748
910.8	17006
910.915	16877
911.03	16721
911.145	16550
911.259	16596
911.374	16500
911.489	16493
911.604	16363
911.718	16284
911.833	16284
911.947	16158
912.062	16101
912.176	16242
912.291	16280
912.405	16185
912.519	16394
912.633	16447
912.748	16363
912.862	16223
912.976	16128
913.09	15972
913.204	15930
913.318	16006
913.431	15964
913.545	16242
913.659	16181
913.772	16029
913.886	15888
914	15827
914.113	15934
914.226	15915
914.34	15922
914.453	15819
914.566	15869
914.68	15732
914.793	15778
914.906	15485
915.019	15340
915.132	15435
915.245	15351
915.358	15500
915.47	15523
915.583	15428
915.696	15519
915.809	15641
915.921	15671
916.034	15420
916.146	15325
916.259	15321
916.371	15466
916.483	15397
916.595	15370
916.708	15287
916.82	15321
916.932	15226
917.044	15192
917.156	15218
917.268	15138
917.38	15154
917.491	15043
917.603	15150
917.715	15252
917.826	15116
917.938	15081
918.049	14918
918.161	15123
918.272	15279
918.384	15165
918.495	15077
918.606	14861
918.717	14731
918.828	14883
918.939	14876
919.05	14830
919.161	14842
919.272	14663
919.383	14724
919.494	14834
919.604	15093
919.715	14872
919.826	14720
919.936	14773
920.047	14838
920.157	14868
920.267	15020
920.378	14845
920.488	14830
920.598	15047
920.708	15104
920.818	14963
920.928	14956
921.038	15180
921.148	15112
921.258	14838
921.368	14731
921.477	14499
921.587	14579
921.697	14404
921.806	14560
921.916	14415
922.025	14271
922.134	14267
922.244	14263
922.353	14077
922.462	14126
922.571	13959
922.68	13894
922.789	13925
922.898	13909
923.007	13856
923.116	13784
923.224	13803
923.333	13799
923.442	13734
923.55	13643
923.659	13636
923.767	13681
923.876	13616
923.984	13681
924.092	13552
924.201	13609
924.309	13544
924.417	13540
924.525	13495
924.633	13388
924.741	14499
924.849	13259
924.956	13438
925.064	13225
925.172	13282
925.279	13206
925.387	13194
925.494	13183
925.602	13327
925.709	13358
925.816	13031
925.924	13129
926.031	13137
926.138	13114
926.245	13194
926.352	13000
926.459	13202
926.566	13247
926.673	13107
926.779	12920
926.886	12935
926.993	12757
927.099	12787
927.206	12654
927.312	12703
927.419	12798
927.525	12700
927.631	12745
927.737	12642
927.843	12612
927.95	12403
928.056	12616
928.162	12574
928.267	12585
928.373	13114
928.479	12635
928.585	12475
928.69	12528
928.796	12662
928.901	12445
929.007	12384
929.112	12498
929.218	12410
929.323	12281
929.428	12380
929.533	12365
929.638	12243
929.743	12159
929.848	12334
929.953	12209
930.058	12125
930.163	12026
930.267	12022
930.372	12083
930.477	11980
930.581	12197
930.685	12026
930.79	11805
930.894	11840
930.998	11889
931.103	11988
931.207	11589
931.311	11600
931.415	11372
931.519	11299
931.623	11265
