Data from test_V78500241_1937.txt Node
Date: Fri Mar 25 15:55:13 CST 2022
User: usil
Spectrometer: V785-0024
Trigger mode: 0
Integration Time (sec): 4.000000E-1
Scans to average: 1
Nonlinearity correction enabled: false
Boxcar width: 0
Storing dark spectrum: false
XAxis mode: Wavelengths
Number of Pixels in Spectrum: 1024
>>>>>Begin Spectral Data<<<<<
801.071	28569
801.214	28580
801.356	28246
801.499	28284
801.641	28166
801.783	28120
801.926	28219
802.068	28128
802.211	28128
802.353	27934
802.496	27926
802.638	27914
802.78	27899
802.923	27808
803.065	27728
803.208	27804
803.35	27831
803.492	27975
803.635	28013
803.777	27869
803.919	28147
804.061	28360
804.204	28135
804.346	28112
804.488	27998
804.63	28211
804.773	27960
804.915	28086
805.057	28124
805.199	27998
805.341	28105
805.483	28276
805.626	28200
805.768	28154
805.91	28158
806.052	28284
806.194	28223
806.336	28325
806.478	28284
806.62	28207
806.762	28257
806.904	28527
807.046	28748
807.188	28573
807.33	28607
807.472	28733
807.614	28584
807.756	28561
807.898	28516
808.04	28470
808.182	28481
808.324	28504
808.465	28603
808.607	28683
808.749	28858
808.891	28911
809.033	28999
809.174	29056
809.316	28850
809.458	28816
809.6	28858
809.741	28923
809.883	29041
810.025	29193
810.166	29227
810.308	29094
810.45	29200
810.591	28980
810.733	28869
810.875	28961
811.016	28782
811.158	28637
811.299	29079
811.441	29079
811.582	29117
811.724	28919
811.865	28774
812.007	28892
812.148	28946
812.29	28919
812.431	29086
812.573	29136
812.714	29273
812.855	29341
812.997	29608
813.138	29642
813.279	29478
813.421	29372
813.562	29337
813.703	29189
813.845	29029
813.986	28858
814.127	28679
814.268	28691
814.41	28660
814.551	28645
814.692	28656
814.833	28481
814.974	28577
815.115	28656
815.256	28459
815.397	28542
815.539	28497
815.68	28401
815.821	28177
815.962	28401
816.103	28287
816.244	28310
816.385	28158
816.526	28105
816.666	28025
816.807	27812
816.948	28048
817.089	28078
817.23	28002
817.371	27720
817.512	27880
817.653	27869
817.793	27808
817.934	27869
818.075	27953
818.216	27979
818.356	27873
818.497	27789
818.638	27587
818.778	27679
818.919	27679
819.06	27690
819.2	27759
819.341	27842
819.481	27698
819.622	27888
819.762	28249
819.903	28154
820.043	27972
820.184	28166
820.324	27743
820.465	28032
820.605	28150
820.746	27937
820.886	27739
821.026	28017
821.167	27854
821.307	28051
821.447	27895
821.588	27854
821.728	27797
821.868	27568
822.008	27477
822.149	27302
822.289	27397
822.429	27131
822.569	26910
822.709	27123
822.849	26845
822.99	26883
823.13	26834
823.27	26823
823.41	26899
823.55	26602
823.69	26815
823.83	26701
823.97	26575
824.11	26362
824.25	26469
824.389	26366
824.529	26549
824.669	26598
824.809	26640
824.949	26663
825.089	26571
825.228	26579
825.368	26366
825.508	26385
825.648	26370
825.787	26427
825.927	26587
826.067	26332
826.206	26370
826.346	26385
826.485	26377
826.625	26511
826.765	26560
826.904	26484
827.044	26115
827.183	26069
827.323	26020
827.462	26092
827.601	26126
827.741	26039
827.88	26046
828.02	26122
828.159	25989
828.298	26138
828.437	26183
828.577	26149
828.716	26275
828.855	26115
828.994	25833
829.134	25826
829.273	25780
829.412	25715
829.551	25700
829.69	25662
829.829	25811
829.968	25871
830.107	25890
830.246	25727
830.385	25788
830.524	25753
830.663	25571
830.802	25537
830.941	25415
831.08	25403
831.219	25537
831.357	25441
831.496	25601
831.635	25384
831.774	25255
831.913	25362
832.051	25251
832.19	25225
832.329	25217
832.467	25171
832.606	25012
832.744	24932
832.883	25019
833.022	25038
833.16	25088
833.299	25133
833.437	25148
833.576	25164
833.714	25122
833.852	25122
833.991	25126
834.129	25187
834.267	25137
834.406	25088
834.544	25129
834.682	25228
834.821	25156
834.959	25384
835.097	25019
835.235	25088
835.373	25084
835.511	25015
835.65	25000
835.788	25034
835.926	24905
836.064	24768
836.202	24802
836.34	24935
836.478	25012
836.615	24878
836.753	24852
836.891	24932
837.029	24966
837.167	24928
837.305	24692
837.443	24779
837.58	24890
837.718	24897
837.856	24833
837.993	24669
838.131	24882
838.269	24589
838.406	24616
838.544	24642
838.681	24555
838.819	24266
838.956	24304
839.094	24258
839.231	24304
839.369	24418
839.506	24578
839.643	24460
839.781	24308
839.918	24197
840.055	24205
840.193	24194
840.33	24194
840.467	24197
840.604	24292
840.742	24483
840.879	23992
841.016	24148
841.153	24045
841.29	24273
841.427	24110
841.564	24224
841.701	24216
841.838	24220
841.975	24098
842.112	24018
842.249	24018
842.385	23889
842.522	24068
842.659	24057
842.796	23912
842.933	23847
843.069	23843
843.206	23832
843.343	23920
843.479	23908
843.616	23889
843.752	23718
843.889	23585
844.025	23821
844.162	23619
844.298	23855
844.435	23684
844.571	23623
844.708	23695
844.844	23935
844.98	23775
845.117	23817
845.253	23596
845.389	23455
845.525	23566
845.661	23611
845.798	23398
845.934	23452
846.07	23406
846.206	23349
846.342	23528
846.478	23349
846.614	23216
846.75	23147
846.886	23170
847.022	23178
847.158	23189
847.294	23052
847.429	23220
847.565	23041
847.701	23383
847.837	22984
847.972	22790
848.108	22949
848.244	22999
848.379	22645
848.515	22645
848.65	22755
848.786	22733
848.921	22862
849.057	22881
849.192	22843
849.328	22847
849.463	22805
849.598	22694
849.734	22702
849.869	22706
850.004	22527
850.14	22508
850.275	22569
850.41	22303
850.545	22493
850.68	22432
850.815	22519
850.95	22580
851.085	22679
851.22	22535
851.355	22626
851.49	22447
851.625	22417
851.76	22405
851.895	22485
852.03	22348
852.165	22462
852.299	22485
852.434	22516
852.569	22626
852.703	22485
852.838	22390
852.973	22573
853.107	22634
853.242	22462
853.376	22409
853.511	22238
853.645	22234
853.78	22481
853.914	22337
854.048	22272
854.183	22287
854.317	22360
854.451	22519
854.585	22405
854.72	22371
854.854	22291
854.988	22253
855.122	22215
855.256	22173
855.39	22150
855.524	22382
855.658	22329
855.792	22367
855.926	22238
856.06	22390
856.194	22462
856.327	22215
856.461	22310
856.595	22257
856.729	22363
856.862	22386
856.996	22341
857.13	22443
857.263	22421
857.397	22325
857.53	22082
857.664	22272
857.797	22360
857.931	22409
858.064	22291
858.197	22531
858.331	22242
858.464	22207
858.597	22238
858.731	22337
858.864	22162
858.997	22287
859.13	22348
859.263	22356
859.396	22371
859.529	22341
859.662	22314
859.795	22196
859.928	22287
860.061	22413
860.194	22504
860.327	22242
860.46	22306
860.592	22535
860.725	22497
860.858	22432
860.99	22314
861.123	22276
861.256	22310
861.388	22379
861.521	23204
861.653	22219
861.786	22124
861.918	22093
862.05	22093
862.183	22284
862.315	22242
862.447	22265
862.58	22177
862.712	22006
862.844	21998
862.976	22044
863.108	22078
863.24	22653
863.372	21998
863.504	22093
863.636	21899
863.768	22006
863.9	21979
864.032	21911
864.164	21968
864.296	22029
864.428	22101
864.559	22082
864.691	22082
864.823	21968
864.954	22036
865.086	21953
865.217	21903
865.349	21797
865.48	21842
865.612	21994
865.743	21972
865.875	21926
866.006	21880
866.137	21895
866.269	21892
866.4	21972
866.531	21728
866.662	21759
866.793	21804
866.924	21816
867.055	21816
867.186	21781
867.317	21819
867.448	21747
867.579	21728
867.71	21800
867.841	21781
867.972	21827
868.103	21831
868.233	21865
868.364	21907
868.495	21823
868.625	22010
868.756	22211
868.886	22013
869.017	22044
869.147	22287
869.278	22074
869.408	22067
869.539	22040
869.669	22048
869.799	22086
869.929	22200
870.06	22158
870.19	22428
870.32	22344
870.45	22459
870.58	22310
870.71	22584
870.84	22535
870.97	22447
871.1	22390
871.23	22611
871.36	22550
871.489	22630
871.619	22653
871.749	22569
871.879	22577
872.008	22660
872.138	22634
872.267	22660
872.397	22561
872.526	22523
872.656	22455
872.785	22428
872.915	22687
873.044	22592
873.173	22554
873.303	22561
873.432	22622
873.561	22809
873.69	22615
873.819	22702
873.948	22786
874.077	22748
874.206	22557
874.335	22691
874.464	22854
874.593	22900
874.722	22816
874.851	22854
874.979	22892
875.108	22820
875.237	22927
875.365	22843
875.494	22873
875.623	23037
875.751	22927
875.88	22946
876.008	23067
876.136	23071
876.265	23269
876.393	23349
876.521	23444
876.65	23307
876.778	23315
876.906	23239
877.034	23147
877.162	23208
877.29	23025
877.418	23318
877.546	23330
877.674	23132
877.802	23261
877.93	23220
878.058	23208
878.185	23121
878.313	23242
878.441	23208
878.568	22953
878.696	23189
878.824	23288
878.951	23356
879.079	23520
879.206	23512
879.333	23349
879.461	23208
879.588	23288
879.715	23493
879.842	23467
879.97	23364
880.097	23090
880.224	23048
880.351	23098
880.478	23109
880.605	23022
880.732	23121
880.859	23299
880.986	23067
881.112	23010
881.239	22881
881.366	22763
881.493	22706
881.619	22668
881.746	22603
881.872	22668
881.999	22592
882.125	22504
882.252	22588
882.378	22706
882.505	22694
882.631	22470
882.757	22322
882.883	22356
883.01	22226
883.136	22253
883.262	22059
883.388	22192
883.514	22318
883.64	22367
883.766	22325
883.892	22093
884.018	22040
884.143	22215
884.269	22314
884.395	22090
884.52	21915
884.646	21911
884.772	21876
884.897	21854
885.023	21888
885.148	22010
885.274	22219
885.399	22025
885.524	21876
885.65	21934
885.775	21831
885.9	21884
886.025	22036
886.15	22097
886.275	21838
886.4	21819
886.525	21888
886.65	21812
886.775	21903
886.9	21949
887.025	22139
887.149	21953
887.274	21732
887.399	21625
887.523	21622
887.648	21701
887.773	21614
887.897	21679
888.021	21709
888.146	21614
888.27	21876
888.395	21751
888.519	21778
888.643	21717
888.767	21667
888.891	21679
889.015	21530
889.139	21576
889.263	21447
889.387	21614
889.511	21682
889.635	21667
889.759	21488
889.883	21466
890.006	21450
890.13	21618
890.254	21405
890.377	21355
890.501	21313
890.624	21169
890.748	21222
890.871	21146
890.995	21020
891.118	20941
891.241	21047
891.364	21089
891.488	21157
891.611	21032
891.734	21001
891.857	21100
891.98	20956
892.103	21096
892.226	21017
892.349	20902
892.471	20781
892.594	21005
892.717	20979
892.839	20979
892.962	20933
893.085	21051
893.207	20785
893.33	20765
893.452	20849
893.575	20952
893.697	20838
893.819	21074
893.941	21165
894.064	21123
894.186	20853
894.308	20811
894.43	20967
894.552	21036
894.674	21009
894.796	20872
894.918	20918
895.04	20815
895.161	21009
895.283	20883
895.405	20986
895.526	20906
895.648	20895
895.769	20921
895.891	20994
896.012	21001
896.134	20853
896.255	20921
896.376	21001
896.498	20921
896.619	20982
896.74	20967
896.861	21005
896.982	21131
897.103	21359
897.224	21203
897.345	21188
897.466	21013
897.587	21157
897.708	21252
897.828	21123
897.949	21089
898.07	20956
898.19	21070
898.311	21154
898.431	21142
898.552	21131
898.672	21138
898.792	21214
898.913	21165
899.033	21062
899.153	20994
899.273	20731
899.393	20899
899.513	20872
899.633	20727
899.753	20739
899.873	20845
899.993	20918
900.113	20834
900.232	20785
900.352	20815
900.472	20625
900.591	20537
900.711	20727
900.83	20571
900.95	20727
901.069	20777
901.189	20473
901.308	20336
901.427	20218
901.546	20271
901.665	20138
901.784	20256
901.904	19989
902.023	19925
902.141	19708
902.26	19788
902.379	19795
902.498	19693
902.617	19712
902.735	19769
902.854	19681
902.973	19506
903.091	19411
903.21	19335
903.328	19381
903.446	19297
903.565	19206
903.683	19088
903.801	19042
903.919	18989
904.038	19050
904.156	18977
904.274	18981
904.392	18875
904.51	18875
904.627	18890
904.745	18897
904.863	18928
904.981	18639
905.098	18551
905.216	18551
905.334	18620
905.451	18509
905.569	18494
905.686	18612
905.803	18593
905.921	18285
906.038	18475
906.155	18361
906.272	18281
906.389	18384
906.506	18152
906.623	18072
906.74	18110
906.857	18098
906.974	17946
907.091	18102
907.208	18155
907.324	18144
907.441	18026
907.557	17832
907.674	17794
907.79	17832
907.907	17775
908.023	17821
908.139	17771
908.256	17767
908.372	17699
908.488	17653
908.604	17516
908.72	17554
908.836	17562
908.952	17490
909.068	17551
909.184	17646
909.3	17566
909.415	17596
909.531	17528
909.647	17318
909.762	17193
909.878	17189
909.993	17174
910.108	17246
910.224	17083
910.339	17181
910.454	17010
910.57	16995
910.685	16900
910.8	17246
910.915	17231
911.03	16961
911.145	16774
911.259	16721
911.374	16717
911.489	16786
911.604	16672
911.718	16592
911.833	16577
911.947	16512
912.062	16379
912.176	16584
912.291	16592
912.405	16447
912.519	16752
912.633	16763
912.748	16512
912.862	16455
912.976	16367
913.09	16185
913.204	16333
913.318	16363
913.431	16478
913.545	16432
913.659	16493
913.772	16268
913.886	16135
914	16181
914.113	16337
914.226	16246
914.34	16280
914.453	16036
914.566	16219
914.68	16048
914.793	15975
914.906	15816
915.019	15736
915.132	15641
915.245	15675
915.358	15701
915.47	15751
915.583	15694
915.696	15736
915.809	15865
915.921	15861
916.034	15595
916.146	15682
916.259	15557
916.371	15675
916.483	15732
916.595	15625
916.708	15557
916.82	15614
916.932	15568
917.044	15458
917.156	15538
917.268	15435
917.38	15416
917.491	15348
917.603	15386
917.715	15549
917.826	15462
917.938	15325
918.049	15214
918.161	15355
918.272	15401
918.384	15408
918.495	15332
918.606	15252
918.717	15100
918.828	15036
918.939	15203
919.05	14994
919.161	14982
919.272	14864
919.383	14979
919.494	15222
919.604	15211
919.715	15043
919.826	15017
919.936	15062
920.047	15203
920.157	15039
920.267	15203
920.378	15097
920.488	14952
920.598	15192
920.708	15264
920.818	15165
920.928	15188
921.038	15344
921.148	15260
921.258	14914
921.368	14921
921.477	14849
921.587	14785
921.697	14735
921.806	14800
921.916	14556
922.025	14469
922.134	14507
922.244	14366
922.353	14469
922.462	14225
922.571	14267
922.68	14145
922.789	14035
922.898	14149
923.007	13989
923.116	14149
923.224	14119
923.333	14081
923.442	13879
923.55	13887
923.659	13944
923.767	13989
923.876	13681
923.984	13837
924.092	13807
924.201	13887
924.309	13791
924.417	13780
924.525	13658
924.633	13746
924.741	14708
924.849	13464
924.956	13613
925.064	13441
925.172	13407
925.279	13533
925.387	13514
925.494	13472
925.602	13613
925.709	13559
925.816	13377
925.924	13415
926.031	13514
926.138	13346
926.245	13396
926.352	13206
926.459	13422
926.566	13422
926.673	13343
926.779	13225
926.886	13088
926.993	13023
927.099	13088
927.206	13031
927.312	12924
927.419	12958
927.525	12993
927.631	12951
927.737	12935
927.843	12791
927.95	12738
928.056	12768
928.162	12791
928.267	12825
928.373	13464
928.479	12894
928.585	12738
928.69	12711
928.796	12757
928.901	12681
929.007	12464
929.112	12627
929.218	12612
929.323	12639
929.428	12513
929.533	12662
929.638	12441
929.743	12486
929.848	12566
929.953	12483
930.058	12357
930.163	12186
930.267	12182
930.372	12384
930.477	12171
930.581	12361
930.685	12220
930.79	12057
930.894	12091
930.998	12011
931.103	12167
931.207	11798
931.311	11756
931.415	11710
931.519	11486
931.623	11493
