Data from test_V78500241_2943.txt Node
Date: Fri Mar 25 16:02:11 CST 2022
User: usil
Spectrometer: V785-0024
Trigger mode: 0
Integration Time (sec): 4.000000E-1
Scans to average: 1
Nonlinearity correction enabled: false
Boxcar width: 0
Storing dark spectrum: false
XAxis mode: Wavelengths
Number of Pixels in Spectrum: 1024
>>>>>Begin Spectral Data<<<<<
801.071	28858
801.214	28771
801.356	28538
801.499	28497
801.641	28500
801.783	28436
801.926	28478
802.068	28440
802.211	28291
802.353	28363
802.496	28120
802.638	28154
802.78	27964
802.923	28074
803.065	27899
803.208	28101
803.35	28093
803.492	28265
803.635	28367
803.777	28196
803.919	28443
804.061	28554
804.204	28527
804.346	28348
804.488	28306
804.63	28360
804.773	28363
804.915	28375
805.057	28470
805.199	28299
805.341	28508
805.483	28550
805.626	28504
805.768	28337
805.91	28500
806.052	28615
806.194	28584
806.336	28611
806.478	28379
806.62	28607
806.762	28649
806.904	28793
807.046	29033
807.188	28896
807.33	28896
807.472	28953
807.614	28816
807.756	28946
807.898	28721
808.04	28767
808.182	28744
808.324	28793
808.465	28968
808.607	28987
808.749	29254
808.891	29303
809.033	29330
809.174	29273
809.316	29181
809.458	29288
809.6	29269
809.741	29200
809.883	29398
810.025	29505
810.166	29474
810.308	29467
810.45	29372
810.591	29356
810.733	29098
810.875	29170
811.016	29102
811.158	29212
811.299	29299
811.441	29330
811.582	29505
811.724	29284
811.865	29330
812.007	29246
812.148	29391
812.29	29307
812.431	29554
812.573	29581
812.714	29623
812.855	29726
812.997	29779
813.138	30026
813.279	29840
813.421	29718
813.562	29668
813.703	29474
813.845	29417
813.986	29094
814.127	29037
814.268	28976
814.41	28991
814.551	28828
814.692	28843
814.833	28938
814.974	28896
815.115	28904
815.256	28843
815.397	28835
815.539	28748
815.68	28812
815.821	28607
815.962	28668
816.103	28873
816.244	28630
816.385	28596
816.526	28447
816.666	28440
816.807	28257
816.948	28325
817.089	28382
817.23	28306
817.371	28295
817.512	28280
817.653	28306
817.793	28272
817.934	28207
818.075	28284
818.216	28249
818.356	28143
818.497	28067
818.638	28013
818.778	27941
818.919	28021
819.06	28082
819.2	28093
819.341	28329
819.481	28246
819.622	28421
819.762	28664
819.903	28554
820.043	28481
820.184	28417
820.324	28337
820.465	28599
820.605	28344
820.746	28280
820.886	28337
821.026	28306
821.167	28322
821.307	28459
821.447	28337
821.588	28192
821.728	28017
821.868	27994
822.008	27724
822.149	27755
822.289	27728
822.429	27549
822.569	27523
822.709	27492
822.849	27188
822.99	27294
823.13	27249
823.27	27100
823.41	27093
823.55	26963
823.69	27154
823.83	27024
823.97	27005
824.11	26872
824.25	26777
824.389	26868
824.529	26963
824.669	26830
824.809	27077
824.949	27093
825.089	27116
825.228	27001
825.368	26693
825.508	26769
825.648	26705
825.787	26750
825.927	26826
826.067	26842
826.206	26689
826.346	26853
826.485	26788
826.625	26819
826.765	26883
826.904	26826
827.044	26568
827.183	26568
827.323	26522
827.462	26541
827.601	26385
827.741	26488
827.88	26503
828.02	26461
828.159	26545
828.298	26549
828.437	26518
828.577	26476
828.716	26541
828.855	26286
828.994	26248
829.134	26210
829.273	26130
829.412	26130
829.551	26180
829.69	26301
829.829	26191
829.968	26301
830.107	26206
830.246	26301
830.385	26092
830.524	26138
830.663	25936
830.802	25818
830.941	25868
831.08	25780
831.219	25833
831.357	25875
831.496	26008
831.635	25845
831.774	25753
831.913	25620
832.051	25643
832.19	25502
832.329	25628
832.467	25578
832.606	25343
832.744	25544
832.883	25483
833.022	25499
833.16	25540
833.299	25586
833.437	25556
833.576	25578
833.714	25597
833.852	25578
833.991	25400
834.129	25544
834.267	25563
834.406	25537
834.544	25533
834.682	25499
834.821	25597
834.959	25837
835.097	25487
835.235	25601
835.373	25518
835.511	25400
835.65	25392
835.788	25316
835.926	25388
836.064	25244
836.202	25259
836.34	25407
836.478	25472
836.615	25327
836.753	25160
836.891	25468
837.029	25304
837.167	25331
837.305	25236
837.443	25164
837.58	25217
837.718	25209
837.856	25228
837.993	25240
838.131	25145
838.269	25072
838.406	25141
838.544	24939
838.681	24909
838.819	24719
838.956	24608
839.094	24620
839.231	24764
839.369	24741
839.506	24966
839.643	25023
839.781	24677
839.918	24688
840.055	24540
840.193	24623
840.33	24612
840.467	24578
840.604	24532
840.742	24897
840.879	24498
841.016	24391
841.153	24490
841.29	24623
841.427	24407
841.564	24715
841.701	24479
841.838	24570
841.975	24498
842.112	24460
842.249	24498
842.385	24323
842.522	24513
842.659	24407
842.796	24342
842.933	24133
843.069	24254
843.206	24357
843.343	24429
843.479	24205
843.616	24422
843.752	24034
843.889	24060
844.025	24254
844.162	24114
844.298	24174
844.435	24155
844.571	24026
844.708	24148
844.844	24247
844.98	24201
845.117	24178
845.253	24083
845.389	23946
845.525	23942
845.661	23965
845.798	23950
845.934	23885
846.07	23851
846.206	23935
846.342	23946
846.478	23764
846.614	23562
846.75	23448
846.886	23543
847.022	23718
847.158	23653
847.294	23543
847.429	23482
847.565	23478
847.701	23802
847.837	23379
847.972	23242
848.108	23349
848.244	23410
848.379	23235
848.515	23162
848.65	23117
848.786	23109
848.921	23067
849.057	23197
849.192	23162
849.328	23155
849.463	23102
849.598	23132
849.734	22972
849.869	22858
850.004	22763
850.14	22980
850.275	22866
850.41	22725
850.545	22812
850.68	22782
850.815	22927
850.95	22771
851.085	23067
851.22	23067
851.355	22930
851.49	22885
851.625	22987
851.76	22885
851.895	22694
852.03	22812
852.165	22965
852.299	22919
852.434	22976
852.569	22980
852.703	22987
852.838	22934
852.973	22938
853.107	22934
853.242	22831
853.376	22790
853.511	22675
853.645	22622
853.78	22694
853.914	22797
854.048	22622
854.183	22675
854.317	22793
854.451	22881
854.585	22816
854.72	22831
854.854	22824
854.988	22694
855.122	22763
855.256	22573
855.39	22793
855.524	22869
855.658	22679
855.792	22771
855.926	22771
856.06	22736
856.194	22858
856.327	22786
856.461	22717
856.595	22584
856.729	22713
856.862	22873
856.996	22717
857.13	22767
857.263	22816
857.397	22847
857.53	22672
857.664	22725
857.797	22881
857.931	22759
858.064	22691
858.197	22755
858.331	22782
858.464	22748
858.597	22717
858.731	22668
858.864	22645
858.997	22713
859.13	22679
859.263	22698
859.396	22869
859.529	22713
859.662	22599
859.795	22668
859.928	22683
860.061	22908
860.194	22908
860.327	22698
860.46	22641
860.592	22847
860.725	22889
860.858	22771
860.99	22729
861.123	22668
861.256	22744
861.388	22752
861.521	23493
861.653	22493
861.786	22436
861.918	22508
862.05	22599
862.183	22580
862.315	22637
862.447	22702
862.58	22599
862.712	22333
862.844	22352
862.976	22466
863.108	22451
863.24	22919
863.372	22356
863.504	22333
863.636	22428
863.768	22455
863.9	22428
864.032	22287
864.164	22318
864.296	22493
864.428	22516
864.559	22440
864.691	22538
864.823	22455
864.954	22333
865.086	22265
865.217	22363
865.349	22238
865.48	22253
865.612	22310
865.743	22455
865.875	22348
866.006	22314
866.137	22265
866.269	22238
866.4	22257
866.531	22226
866.662	22306
866.793	22272
866.924	22341
867.055	22124
867.186	22246
867.317	22166
867.448	21991
867.579	22215
867.71	22234
867.841	22078
867.972	22299
868.103	22105
868.233	22219
868.364	22242
868.495	22257
868.625	22348
868.756	22523
868.886	22447
869.017	22375
869.147	22508
869.278	22573
869.408	22459
869.539	22421
869.669	22573
869.799	22519
869.929	22588
870.06	22618
870.19	22793
870.32	22885
870.45	22858
870.58	22869
870.71	23010
870.84	22889
870.97	22816
871.1	22930
871.23	23090
871.36	22968
871.489	22896
871.619	22972
871.749	23071
871.879	23113
872.008	23109
872.138	23128
872.267	22995
872.397	23025
872.526	22908
872.656	22957
872.785	23010
872.915	23136
873.044	23250
873.173	23113
873.303	23128
873.432	23079
873.561	23083
873.69	23132
873.819	23090
873.948	23185
874.077	23200
874.206	23014
874.335	23109
874.464	23189
874.593	23307
874.722	23254
874.851	23296
874.979	23189
875.108	23307
875.237	23265
875.365	23109
875.494	23284
875.623	23398
875.751	23265
875.88	23326
876.008	23497
876.136	23486
876.265	23627
876.393	23821
876.521	23748
876.65	23790
876.778	23684
876.906	23452
877.034	23585
877.162	23695
877.29	23604
877.418	23676
877.546	23668
877.674	23608
877.802	23627
877.93	23566
878.058	23551
878.185	23482
878.313	23547
878.441	23596
878.568	23425
878.696	23615
878.824	23630
878.951	23642
879.079	23714
879.206	23954
879.333	23619
879.461	23630
879.588	23653
879.715	23779
879.842	23927
879.97	23577
880.097	23360
880.224	23433
880.351	23543
880.478	23474
880.605	23444
880.732	23482
880.859	23722
880.986	23436
881.112	23467
881.239	23440
881.366	23242
881.493	23227
881.619	23033
881.746	22991
881.872	23105
881.999	22896
882.125	22953
882.252	22961
882.378	22957
882.505	23052
882.631	22873
882.757	22733
882.883	22759
883.01	22592
883.136	22717
883.262	22500
883.388	22569
883.514	22599
883.64	22752
883.766	22455
883.892	22577
884.018	22588
884.143	22561
884.269	22622
884.395	22493
884.52	22265
884.646	22333
884.772	22246
884.897	22265
885.023	22394
885.148	22325
885.274	22443
885.399	22451
885.524	22367
885.65	22348
885.775	22299
885.9	22375
886.025	22379
886.15	22402
886.275	22276
886.4	22116
886.525	22363
886.65	22131
886.775	22215
886.9	22344
887.025	22413
887.149	22249
887.274	22181
887.399	22086
887.523	22044
887.648	22105
887.773	21945
887.897	22120
888.021	22036
888.146	21956
888.27	22116
888.395	22116
888.519	22223
888.643	22040
888.767	22177
888.891	21979
889.015	21819
889.139	21846
889.263	21857
889.387	21907
889.511	22051
889.635	21953
889.759	21755
889.883	21785
890.006	21941
890.13	21873
890.254	21652
890.377	21766
890.501	21629
890.624	21553
890.748	21591
890.871	21492
890.995	21279
891.118	21363
891.241	21462
891.364	21386
891.488	21622
891.611	21393
891.734	21439
891.857	21389
891.98	21363
892.103	21450
892.226	21294
892.349	21477
892.471	21287
892.594	21272
892.717	21340
892.839	21230
892.962	21256
893.085	21355
893.207	21207
893.33	21165
893.452	21146
893.575	21310
893.697	21241
893.819	21408
893.941	21488
894.064	21370
894.186	21294
894.308	21249
894.43	21237
894.552	21382
894.674	21420
894.796	21199
894.918	21260
895.04	21237
895.161	21332
895.283	21374
895.405	21264
895.526	21226
895.648	21195
895.769	21211
895.891	21389
896.012	21428
896.134	21298
896.255	21291
896.376	21195
896.498	21176
896.619	21264
896.74	21195
896.861	21340
896.982	21599
897.103	21713
897.224	21538
897.345	21435
897.466	21397
897.587	21504
897.708	21606
897.828	21462
897.949	21401
898.07	21329
898.19	21332
898.311	21382
898.431	21431
898.552	21462
898.672	21458
898.792	21523
898.913	21458
899.033	21382
899.153	21283
899.273	21096
899.393	21096
899.513	21195
899.633	21180
899.753	21241
899.873	21180
899.993	21207
900.113	21150
900.232	21135
900.352	21173
900.472	21043
900.591	20975
900.711	20929
900.83	20891
900.95	21058
901.069	21123
901.189	20811
901.308	20526
901.427	20488
901.546	20511
901.665	20560
901.784	20545
901.904	20343
902.023	20244
902.141	20088
902.26	20054
902.379	20138
902.498	20027
902.617	19993
902.735	20020
902.854	19974
902.973	19944
903.091	19852
903.21	19628
903.328	19666
903.446	19715
903.565	19483
903.683	19426
903.801	19343
903.919	19411
904.038	19415
904.156	19228
904.274	19255
904.392	19270
904.51	19255
904.627	19103
904.745	19312
904.863	19099
904.981	18905
905.098	18890
905.216	18916
905.334	18878
905.451	18897
905.569	18890
905.686	18920
905.803	18829
905.921	18745
906.038	18905
906.155	18776
906.272	18589
906.389	18612
906.506	18437
906.623	18414
906.74	18433
906.857	18171
906.974	18353
907.091	18414
907.208	18471
907.324	18498
907.441	18407
907.557	18174
907.674	18019
907.79	18057
907.907	18106
908.023	18148
908.139	18019
908.256	18083
908.372	18095
908.488	18053
908.604	17855
908.72	17897
908.836	17889
908.952	17657
909.068	17923
909.184	17969
909.3	17851
909.415	17805
909.531	17798
909.647	17649
909.762	17421
909.878	17402
909.993	17501
910.108	17459
910.224	17444
910.339	17509
910.454	17417
910.57	17250
910.685	17269
910.8	17646
910.915	17444
911.03	17402
911.145	17151
911.259	17098
911.374	17086
911.489	17071
911.604	16961
911.718	16828
911.833	16869
911.947	16736
912.062	16645
912.176	16835
912.291	16889
912.405	16843
912.519	17075
912.633	17014
912.748	16873
912.862	16725
912.976	16733
913.09	16588
913.204	16618
913.318	16687
913.431	16786
913.545	16672
913.659	16782
913.772	16558
913.886	16360
914	16386
914.113	16618
914.226	16466
914.34	16550
914.453	16238
914.566	16500
914.68	16390
914.793	16261
914.906	16017
915.019	16006
915.132	16032
915.245	15964
915.358	15972
915.47	15949
915.583	15991
915.696	15991
915.809	16128
915.921	16226
916.034	15960
916.146	15918
916.259	15915
916.371	15873
916.483	16013
916.595	15812
916.708	15835
916.82	15766
916.932	15766
917.044	15785
917.156	15690
917.268	15778
917.38	15713
917.491	15667
917.603	15667
917.715	15637
917.826	15804
917.938	15545
918.049	15561
918.161	15561
918.272	15671
918.384	15675
918.495	15587
918.606	15431
918.717	15420
918.828	15450
918.939	15401
919.05	15275
919.161	15348
919.272	15249
919.383	15180
919.494	15439
919.604	15622
919.715	15412
919.826	15370
919.936	15272
920.047	15401
920.157	15386
920.267	15564
920.378	15310
920.488	15397
920.598	15561
920.708	15591
920.818	15507
920.928	15412
921.038	15515
921.148	15660
921.258	15401
921.368	15142
921.477	15108
921.587	15135
921.697	14872
921.806	15127
921.916	14925
922.025	14792
922.134	14754
922.244	14674
922.353	14765
922.462	14598
922.571	14526
922.68	14324
922.789	14290
922.898	14389
923.007	14244
923.116	14476
923.224	14396
923.333	14313
923.442	14187
923.55	14225
923.659	14237
923.767	14244
923.876	14199
923.984	14301
924.092	14008
924.201	14164
924.309	14107
924.417	14054
924.525	14016
924.633	13909
924.741	14929
924.849	13841
924.956	13932
925.064	13822
925.172	13628
925.279	13693
925.387	13731
925.494	13822
925.602	13799
925.709	13811
925.816	13647
925.924	13651
926.031	13742
926.138	13639
926.245	13731
926.352	13552
926.459	13647
926.566	13658
926.673	13533
926.779	13499
926.886	13552
926.993	13316
927.099	13362
927.206	13274
927.312	13221
927.419	13362
927.525	13221
927.631	13289
927.737	13232
927.843	13137
927.95	12916
928.056	13031
928.162	13099
928.267	13183
928.373	13750
928.479	13107
928.585	12901
928.69	13065
928.796	13008
928.901	12905
929.007	12791
929.112	12928
929.218	12890
929.323	12753
929.428	12840
929.533	12973
929.638	12677
929.743	12726
929.848	12764
929.953	12658
930.058	12608
930.163	12334
930.267	12441
930.372	12555
930.477	12388
930.581	12700
930.685	12467
930.79	12315
930.894	12357
930.998	12266
931.103	12448
931.207	12068
931.311	11977
931.415	11923
931.519	11657
931.623	11695
