Data from test_V78500241_1327.txt Node
Date: Fri Mar 25 15:50:59 CST 2022
User: usil
Spectrometer: V785-0024
Trigger mode: 0
Integration Time (sec): 4.000000E-1
Scans to average: 1
Nonlinearity correction enabled: false
Boxcar width: 0
Storing dark spectrum: false
XAxis mode: Wavelengths
Number of Pixels in Spectrum: 1024
>>>>>Begin Spectral Data<<<<<
801.071	28040
801.214	27972
801.356	27698
801.499	27838
801.641	27671
801.783	27542
801.926	27652
802.068	27530
802.211	27606
802.353	27321
802.496	27332
802.638	27199
802.78	27184
802.923	27157
803.065	27100
803.208	27218
803.35	27199
803.492	27344
803.635	27359
803.777	27321
803.919	27466
804.061	27656
804.204	27374
804.346	27439
804.488	27203
804.63	27477
804.773	27355
804.915	27507
805.057	27481
805.199	27332
805.341	27511
805.483	27675
805.626	27530
805.768	27469
805.91	27572
806.052	27637
806.194	27462
806.336	27705
806.478	27625
806.62	27618
806.762	27618
806.904	27819
807.046	28021
807.188	27953
807.33	28059
807.472	28135
807.614	27922
807.756	27907
807.898	27953
808.04	27831
808.182	27789
808.324	27785
808.465	27880
808.607	28272
808.749	28303
808.891	28303
809.033	28432
809.174	28265
809.316	28226
809.458	28333
809.6	28284
809.741	28303
809.883	28303
810.025	28459
810.166	28577
810.308	28462
810.45	28398
810.591	28398
810.733	28147
810.875	28276
811.016	28101
811.158	28158
811.299	28226
811.441	28413
811.582	28280
811.724	28226
811.865	28204
812.007	28169
812.148	28314
812.29	28314
812.431	28375
812.573	28546
812.714	28519
812.855	28824
812.997	28892
813.138	28957
813.279	28809
813.421	28740
813.562	28694
813.703	28523
813.845	28466
813.986	28150
814.127	28173
814.268	27956
814.41	27899
814.551	27930
814.692	28036
814.833	27827
814.974	27873
815.115	27808
815.256	27972
815.397	27808
815.539	27838
815.68	27557
815.821	27686
815.962	27720
816.103	27751
816.244	27709
816.385	27485
816.526	27473
816.666	27313
816.807	27226
816.948	27275
817.089	27272
817.23	27058
817.371	27222
817.512	27199
817.653	27218
817.793	27116
817.934	27142
818.075	27367
818.216	27199
818.356	27233
818.497	27112
818.638	26937
818.778	27032
818.919	27123
819.06	26921
819.2	27001
819.341	27192
819.481	27233
819.622	27374
819.762	27542
819.903	27485
820.043	27348
820.184	27329
820.324	27332
820.465	27351
820.605	27367
820.746	27355
820.886	27226
821.026	27256
821.167	27230
821.307	27382
821.447	27184
821.588	27165
821.728	27020
821.868	26838
822.008	26640
822.149	26735
822.289	26636
822.429	26362
822.569	26328
822.709	26343
822.849	26218
822.99	26100
823.13	26138
823.27	26050
823.41	26031
823.55	26035
823.69	26092
823.83	25928
823.97	25883
824.11	25776
824.25	25841
824.389	25769
824.529	25932
824.669	25860
824.809	25833
824.949	26031
825.089	25814
825.228	25868
825.368	25670
825.508	25757
825.648	25822
825.787	25723
825.927	25906
826.067	25582
826.206	25635
826.346	25746
826.485	25727
826.625	25658
826.765	25715
826.904	25894
827.044	25422
827.183	25525
827.323	25388
827.462	25491
827.601	25449
827.741	25270
827.88	25540
828.02	25426
828.159	25460
828.298	25453
828.437	25377
828.577	25350
828.716	25563
828.855	25263
828.994	25057
829.134	25065
829.273	25175
829.412	25050
829.551	25053
829.69	25072
829.829	25034
829.968	25221
830.107	25145
830.246	25168
830.385	25042
830.524	24943
830.663	24996
830.802	24779
830.941	24574
831.08	24760
831.219	24833
831.357	24878
831.496	24863
831.635	24700
831.774	24593
831.913	24525
832.051	24429
832.19	24540
832.329	24555
832.467	24456
832.606	24327
832.744	24403
832.883	24330
833.022	24308
833.16	24338
833.299	24502
833.437	24429
833.576	24593
833.714	24403
833.852	24498
833.991	24429
834.129	24441
834.267	24452
834.406	24429
834.544	24414
834.682	24467
834.821	24395
834.959	24555
835.097	24346
835.235	24448
835.373	24353
835.511	24399
835.65	24277
835.788	24323
835.926	24228
836.064	24163
836.202	24136
836.34	24224
836.478	24292
836.615	24201
836.753	24308
836.891	24414
837.029	24239
837.167	24167
837.305	24136
837.443	24155
837.58	24144
837.718	24121
837.856	24087
837.993	24091
838.131	24011
838.269	24015
838.406	24095
838.544	23935
838.681	23684
838.819	23661
838.956	23646
839.094	23512
839.231	23722
839.369	23775
839.506	23923
839.643	23805
839.781	23581
839.918	23665
840.055	23573
840.193	23433
840.33	23642
840.467	23509
840.604	23509
840.742	23764
840.879	23463
841.016	23387
841.153	23349
841.29	23570
841.427	23566
841.564	23531
841.701	23520
841.838	23448
841.975	23280
842.112	23444
842.249	23387
842.385	23318
842.522	23509
842.659	23322
842.796	23208
842.933	23265
843.069	23277
843.206	23102
843.343	23258
843.479	23254
843.616	23227
843.752	22995
843.889	23014
844.025	23235
844.162	22923
844.298	23162
844.435	23067
844.571	23006
844.708	23064
844.844	23254
844.98	23250
845.117	23098
845.253	22972
845.389	22908
845.525	22930
845.661	22847
845.798	22908
845.934	22843
846.07	22664
846.206	22831
846.342	22847
846.478	22858
846.614	22626
846.75	22504
846.886	22455
847.022	22531
847.158	22489
847.294	22421
847.429	22489
847.565	22291
847.701	22717
847.837	22223
847.972	22166
848.108	22185
848.244	22428
848.379	22158
848.515	22074
848.65	21979
848.786	22109
848.921	22032
849.057	22249
849.192	22135
849.328	22048
849.463	22116
849.598	22067
849.734	22017
849.869	21941
850.004	21804
850.14	21808
850.275	21915
850.41	21785
850.545	21724
850.68	21747
850.815	21880
850.95	21816
851.085	21937
851.22	21865
851.355	21819
851.49	21884
851.625	21850
851.76	21812
851.895	21789
852.03	21755
852.165	21873
852.299	21854
852.434	21953
852.569	21854
852.703	21831
852.838	21892
852.973	21937
853.107	21922
853.242	21743
853.376	21743
853.511	21534
853.645	21641
853.78	21778
853.914	21724
854.048	21622
854.183	21625
854.317	21587
854.451	21854
854.585	21629
854.72	21720
854.854	21614
854.988	21641
855.122	21534
855.256	21477
855.39	21648
855.524	21660
855.658	21675
855.792	21603
855.926	21720
856.06	21660
856.194	21808
856.327	21713
856.461	21553
856.595	21606
856.729	21530
856.862	21766
856.996	21580
857.13	21759
857.263	21846
857.397	21778
857.53	21610
857.664	21694
857.797	21660
857.931	21694
858.064	21526
858.197	21781
858.331	21633
858.464	21583
858.597	21591
858.731	21690
858.864	21656
858.997	21583
859.13	21656
859.263	21720
859.396	21629
859.529	21622
859.662	21587
859.795	21637
859.928	21469
860.061	21698
860.194	21911
860.327	21694
860.46	21785
860.592	21751
860.725	21903
860.858	21770
860.99	21667
861.123	21530
861.256	21728
861.388	21625
861.521	22421
861.653	21488
861.786	21469
861.918	21466
862.05	21485
862.183	21583
862.315	21614
862.447	21564
862.58	21526
862.712	21275
862.844	21500
862.976	21439
863.108	21363
863.24	21736
863.372	21302
863.504	21393
863.636	21336
863.768	21363
863.9	21393
864.032	21344
864.164	21245
864.296	21310
864.428	21401
864.559	21519
864.691	21454
864.823	21348
864.954	21435
865.086	21359
865.217	21306
865.349	21195
865.48	21176
865.612	21241
865.743	21435
865.875	21279
866.006	21237
866.137	21310
866.269	21237
866.4	21211
866.531	21252
866.662	21165
866.793	21116
866.924	21184
867.055	21252
867.186	21214
867.317	21112
867.448	21108
867.579	21112
867.71	21150
867.841	20990
867.972	21241
868.103	21195
868.233	21176
868.364	21169
868.495	21245
868.625	21378
868.756	21462
868.886	21393
869.017	21298
869.147	21591
869.278	21462
869.408	21466
869.539	21435
869.669	21526
869.799	21538
869.929	21542
870.06	21519
870.19	21682
870.32	21781
870.45	21842
870.58	21797
870.71	21926
870.84	21781
870.97	21762
871.1	21682
871.23	22021
871.36	21991
871.489	21994
871.619	21991
871.749	22006
871.879	22017
872.008	22101
872.138	22040
872.267	22063
872.397	21857
872.526	21884
872.656	21850
872.785	21838
872.915	21937
873.044	22143
873.173	22048
873.303	22154
873.432	22093
873.561	22040
873.69	22059
873.819	22021
873.948	22093
874.077	22032
874.206	21979
874.335	21945
874.464	22158
874.593	22257
874.722	22265
874.851	22284
874.979	22215
875.108	22295
875.237	22253
875.365	22181
875.494	22124
875.623	22306
875.751	22185
875.88	22306
876.008	22295
876.136	22436
876.265	22687
876.393	22755
876.521	22733
876.65	22664
876.778	22706
876.906	22656
877.034	22645
877.162	22653
877.29	22500
877.418	22565
877.546	22694
877.674	22615
877.802	22668
877.93	22519
878.058	22554
878.185	22447
878.313	22615
878.441	22588
878.568	22409
878.696	22626
878.824	22565
878.951	22664
879.079	22637
879.206	22980
879.333	22672
879.461	22702
879.588	22740
879.715	22717
879.842	22889
879.97	22668
880.097	22508
880.224	22451
880.351	22538
880.478	22512
880.605	22390
880.732	22314
880.859	22687
880.986	22440
881.112	22447
881.239	22348
881.366	22188
881.493	22116
881.619	22044
881.746	22021
881.872	22032
881.999	21899
882.125	21964
882.252	22013
882.378	21979
882.505	22082
882.631	21934
882.757	21717
882.883	21857
883.01	21660
883.136	21633
883.262	21492
883.388	21568
883.514	21720
883.64	21690
883.766	21591
883.892	21386
884.018	21481
884.143	21610
884.269	21671
884.395	21393
884.52	21249
884.646	21443
884.772	21348
884.897	21275
885.023	21370
885.148	21420
885.274	21355
885.399	21378
885.524	21260
885.65	21275
885.775	21340
885.9	21291
886.025	21420
886.15	21317
886.275	21325
886.4	21325
886.525	21397
886.65	21226
886.775	21218
886.9	21473
887.025	21515
887.149	21272
887.274	21169
887.399	21058
887.523	21062
887.648	20986
887.773	21032
887.897	21214
888.021	21131
888.146	21039
888.27	21188
888.395	21192
888.519	21146
888.643	21150
888.767	21093
888.891	21009
889.015	20880
889.139	20921
889.263	20891
889.387	20960
889.511	21157
889.635	21085
889.759	20914
889.883	20902
890.006	20914
890.13	20899
890.254	20781
890.377	20735
890.501	20686
890.624	20689
890.748	20727
890.871	20537
890.995	20537
891.118	20419
891.241	20461
891.364	20522
891.488	20636
891.611	20465
891.734	20511
891.857	20571
891.98	20503
892.103	20465
892.226	20552
892.349	20351
892.471	20259
892.594	20438
892.717	20518
892.839	20393
892.962	20267
893.085	20412
893.207	20461
893.33	20229
893.452	20237
893.575	20476
893.697	20434
893.819	20541
893.941	20530
894.064	20427
894.186	20362
894.308	20377
894.43	20465
894.552	20537
894.674	20434
894.796	20298
894.918	20419
895.04	20370
895.161	20393
895.283	20434
895.405	20347
895.526	20381
895.648	20351
895.769	20427
895.891	20473
896.012	20404
896.134	20465
896.255	20415
896.376	20469
896.498	20457
896.619	20385
896.74	20442
896.861	20457
896.982	20670
897.103	20773
897.224	20746
897.345	20644
897.466	20514
897.587	20556
897.708	20758
897.828	20583
897.949	20549
898.07	20427
898.19	20442
898.311	20720
898.431	20476
898.552	20644
898.672	20568
898.792	20678
898.913	20636
899.033	20530
899.153	20495
899.273	20374
899.393	20305
899.513	20393
899.633	20396
899.753	20343
899.873	20278
899.993	20446
900.113	20301
900.232	20324
900.352	20286
900.472	20263
900.591	20088
900.711	20134
900.83	19993
900.95	20183
901.069	20187
901.189	20031
901.308	19837
901.427	19803
901.546	19696
901.665	19765
901.784	19772
901.904	19567
902.023	19483
902.141	19278
902.26	19209
902.379	19430
902.498	19179
902.617	19171
902.735	19308
902.854	19335
902.973	19103
903.091	18882
903.21	18935
903.328	18989
903.446	18764
903.565	18700
903.683	18757
903.801	18604
903.919	18620
904.038	18631
904.156	18483
904.274	18506
904.392	18486
904.51	18570
904.627	18464
904.745	18547
904.863	18448
904.981	18315
905.098	18235
905.216	18190
905.334	18159
905.451	18243
905.569	18209
905.686	18060
905.803	18140
905.921	17863
906.038	17988
906.155	18030
906.272	17775
906.389	17767
906.506	17710
906.623	17687
906.74	17634
906.857	17554
906.974	17619
907.091	17775
907.208	17786
907.324	17687
907.441	17395
907.557	17414
907.674	17387
907.79	17353
907.907	17364
908.023	17360
908.139	17395
908.256	17292
908.372	17235
908.488	17277
908.604	17223
908.72	17086
908.836	17086
908.952	17071
909.068	17151
909.184	17273
909.3	17037
909.415	17067
909.531	17121
909.647	16805
909.762	16835
909.878	16759
909.993	16786
910.108	16771
910.224	16698
910.339	16759
910.454	16664
910.57	16675
910.685	16402
910.8	16759
910.915	16702
911.03	16546
911.145	16440
911.259	16367
911.374	16409
911.489	16344
911.604	16219
911.718	16112
911.833	16105
911.947	15968
912.062	15960
912.176	16036
912.291	16185
912.405	16177
912.519	16367
912.633	16280
912.748	16158
912.862	16032
912.976	15975
913.09	15747
913.204	15918
913.318	15922
913.431	16135
913.545	16051
913.659	15949
913.772	15895
913.886	15743
914	15774
914.113	15823
914.226	15747
914.34	15785
914.453	15606
914.566	15720
914.68	15568
914.793	15568
914.906	15359
915.019	15378
915.132	15233
915.245	15283
915.358	15374
915.47	15260
915.583	15252
915.696	15378
915.809	15374
915.921	15374
916.034	15306
916.146	15287
916.259	15211
916.371	15283
916.483	15287
916.595	15142
916.708	15256
916.82	15195
916.932	15161
917.044	15077
917.156	15119
917.268	15047
917.38	14971
917.491	15005
917.603	14937
917.715	15036
917.826	15104
917.938	14914
918.049	14872
918.161	14826
918.272	14883
918.384	14941
918.495	14918
918.606	14792
918.717	14716
918.828	14693
918.939	14777
919.05	14571
919.161	14621
919.272	14590
919.383	14610
919.494	14754
919.604	14861
919.715	14689
919.826	14686
919.936	14727
920.047	14792
920.157	14655
920.267	14982
920.378	14689
920.488	14689
920.598	14891
920.708	15066
920.818	14773
920.928	14811
921.038	14937
921.148	14929
921.258	14617
921.368	14465
921.477	14495
921.587	14415
921.697	14271
921.806	14343
921.916	14195
922.025	14233
922.134	14016
922.244	14008
922.353	14115
922.462	13986
922.571	13890
922.68	13761
922.789	13677
922.898	13719
923.007	13616
923.116	13803
923.224	13700
923.333	13662
923.442	13499
923.55	13445
923.659	13514
923.767	13636
923.876	13502
923.984	13506
924.092	13510
924.201	13453
924.309	13419
924.417	13445
924.525	13381
924.633	13403
924.741	14286
924.849	13129
924.956	13327
925.064	13164
925.172	13023
925.279	13084
925.387	13145
925.494	13084
925.602	13217
925.709	13103
925.816	13038
925.924	13015
926.031	13190
926.138	13122
926.245	13065
926.352	13004
926.459	13122
926.566	13057
926.673	12981
926.779	13023
926.886	12935
926.993	12772
927.099	12673
927.206	12540
927.312	12692
927.419	12806
927.525	12684
927.631	12665
927.737	12498
927.843	12517
927.95	12346
928.056	12509
928.162	12563
928.267	12506
928.373	13034
928.479	12578
928.585	12300
928.69	12448
928.796	12551
928.901	12357
929.007	12205
929.112	12506
929.218	12273
929.323	12292
929.428	12205
929.533	12319
929.638	12201
929.743	12251
929.848	12235
929.953	12152
930.058	12079
930.163	11859
930.267	11908
930.372	11992
930.477	11889
930.581	12068
930.685	11980
930.79	11786
930.894	11817
930.998	11821
931.103	11882
931.207	11543
931.311	11444
931.415	11410
931.519	11239
931.623	11178
