Data from test_V78500241_604.txt Node
Date: Fri Mar 25 15:45:59 CST 2022
User: usil
Spectrometer: V785-0024
Trigger mode: 0
Integration Time (sec): 4.000000E-1
Scans to average: 1
Nonlinearity correction enabled: false
Boxcar width: 0
Storing dark spectrum: false
XAxis mode: Wavelengths
Number of Pixels in Spectrum: 1024
>>>>>Begin Spectral Data<<<<<
801.071	27618
801.214	27545
801.356	27173
801.499	27116
801.641	27055
801.783	26914
801.926	27058
802.068	27017
802.211	27020
802.353	26929
802.496	26735
802.638	26708
802.78	26720
802.923	26598
803.065	26758
803.208	26712
803.35	26670
803.492	26777
803.635	26899
803.777	26697
803.919	26807
804.061	27211
804.204	26883
804.346	26765
804.488	26750
804.63	26800
804.773	26864
804.915	26921
805.057	27024
805.199	26781
805.341	26990
805.483	26868
805.626	27017
805.768	26914
805.91	27039
806.052	26952
806.194	26998
806.336	27237
806.478	27074
806.62	26944
806.762	27074
806.904	27176
807.046	27526
807.188	27424
807.33	27332
807.472	27466
807.614	27389
807.756	27325
807.898	27222
808.04	27306
808.182	27294
808.324	27211
808.465	27313
808.607	27466
808.749	27785
808.891	27751
809.033	27755
809.174	27713
809.316	27477
809.458	27728
809.6	27698
809.741	27606
809.883	27789
810.025	27899
810.166	27895
810.308	27789
810.45	27922
810.591	27857
810.733	27652
810.875	27603
811.016	27454
811.158	27477
811.299	27717
811.441	27793
811.582	27717
811.724	27622
811.865	27641
812.007	27553
812.148	27637
812.29	27595
812.431	27785
812.573	28044
812.714	27869
812.855	28211
812.997	28284
813.138	28246
813.279	28280
813.421	28207
813.562	28101
813.703	28090
813.845	27960
813.986	27504
814.127	27317
814.268	27260
814.41	27458
814.551	27329
814.692	27272
814.833	27302
814.974	27302
815.115	27340
815.256	27161
815.397	27211
815.539	27089
815.68	27154
815.821	27077
815.962	27176
816.103	27077
816.244	27017
816.385	26933
816.526	26838
816.666	26800
816.807	26476
816.948	26587
817.089	26697
817.23	26625
817.371	26617
817.512	26579
817.653	26674
817.793	26556
817.934	26617
818.075	26568
818.216	26556
818.356	26689
818.497	26400
818.638	26259
818.778	26404
818.919	26282
819.06	26343
819.2	26366
819.341	26655
819.481	26461
819.622	26590
819.762	26880
819.903	26838
820.043	26765
820.184	26648
820.324	26819
820.465	26777
820.605	26701
820.746	26609
820.886	26598
821.026	26716
821.167	26602
821.307	26674
821.447	26598
821.588	26492
821.728	26374
821.868	26111
822.008	26050
822.149	26134
822.289	25936
822.429	25795
822.569	25757
822.709	25731
822.849	25400
822.99	25468
823.13	25544
823.27	25487
823.41	25343
823.55	25304
823.69	25320
823.83	25335
823.97	25419
824.11	25270
824.25	25099
824.389	25228
824.529	25187
824.669	25164
824.809	25327
824.949	25312
825.089	25263
825.228	25217
825.368	25046
825.508	25061
825.648	25156
825.787	25148
825.927	25137
826.067	24928
826.206	25088
826.346	25091
826.485	25095
826.625	24992
826.765	25160
826.904	25190
827.044	24768
827.183	24806
827.323	24806
827.462	24901
827.601	24821
827.741	24757
827.88	24783
828.02	24646
828.159	24719
828.298	24829
828.437	24840
828.577	24719
828.716	24772
828.855	24642
828.994	24334
829.134	24517
829.273	24502
829.412	24315
829.551	24399
829.69	24418
829.829	24502
829.968	24623
830.107	24513
830.246	24460
830.385	24327
830.524	24281
830.663	24117
830.802	24171
830.941	24015
831.08	24026
831.219	24110
831.357	24190
831.496	24258
831.635	24034
831.774	24030
831.913	23965
832.051	23737
832.19	23726
832.329	23885
832.467	23786
832.606	23630
832.744	23562
832.883	23665
833.022	23691
833.16	23916
833.299	23710
833.437	23707
833.576	23824
833.714	23828
833.852	23992
833.991	23668
834.129	23836
834.267	23866
834.406	23889
834.544	23817
834.682	23786
834.821	23836
834.959	23908
835.097	23798
835.235	23828
835.373	23691
835.511	23714
835.65	23676
835.788	23573
835.926	23528
836.064	23486
836.202	23372
836.34	23691
836.478	23760
836.615	23638
836.753	23691
836.891	23714
837.029	23615
837.167	23687
837.305	23501
837.443	23539
837.58	23512
837.718	23558
837.856	23406
837.993	23486
838.131	23391
838.269	23353
838.406	23486
838.544	23296
838.681	23090
838.819	23022
838.956	23044
839.094	22965
839.231	22984
839.369	23029
839.506	23273
839.643	23208
839.781	22923
839.918	22721
840.055	22980
840.193	22938
840.33	22904
840.467	22892
840.604	22991
840.742	23140
840.879	22630
841.016	22911
841.153	22752
841.29	22858
841.427	22847
841.564	22812
841.701	22740
841.838	22763
841.975	22733
842.112	22873
842.249	22653
842.385	22546
842.522	22900
842.659	22668
842.796	22687
842.933	22561
843.069	22538
843.206	22527
843.343	22569
843.479	22675
843.616	22569
843.752	22413
843.889	22337
844.025	22573
844.162	22257
844.298	22413
844.435	22337
844.571	22322
844.708	22284
844.844	22405
844.98	22519
845.117	22527
845.253	22314
845.389	22204
845.525	22314
845.661	22291
845.798	22223
845.934	22211
846.07	22173
846.206	22150
846.342	22272
846.478	22131
846.614	21869
846.75	21819
846.886	21751
847.022	21797
847.158	21869
847.294	22025
847.429	21922
847.565	21762
847.701	21934
847.837	21538
847.972	21477
848.108	21641
848.244	21751
848.379	21458
848.515	21405
848.65	21401
848.786	21405
848.921	21523
849.057	21603
849.192	21496
849.328	21473
849.463	21492
849.598	21332
849.734	21428
849.869	21256
850.004	21142
850.14	21119
850.275	21211
850.41	21165
850.545	21058
850.68	21112
850.815	21192
850.95	21116
851.085	21435
851.22	21310
851.355	21287
851.49	21226
851.625	21192
851.76	21169
851.895	21104
852.03	21135
852.165	21127
852.299	21298
852.434	21370
852.569	21298
852.703	21252
852.838	21272
852.973	21264
853.107	21378
853.242	21218
853.376	21055
853.511	20845
853.645	20918
853.78	21070
853.914	21127
854.048	21043
854.183	21028
854.317	21074
854.451	21268
854.585	21062
854.72	20963
854.854	21028
854.988	20967
855.122	20979
855.256	20895
855.39	20998
855.524	21047
855.658	21001
855.792	21058
855.926	21066
856.06	20998
856.194	21089
856.327	20979
856.461	20834
856.595	21077
856.729	21062
856.862	21127
856.996	21081
857.13	21131
857.263	21058
857.397	21024
857.53	21001
857.664	21032
857.797	21192
857.931	21184
858.064	20994
858.197	21055
858.331	21047
858.464	20986
858.597	20781
858.731	21039
858.864	21024
858.997	20925
859.13	21043
859.263	21157
859.396	21058
859.529	21024
859.662	20921
859.795	20876
859.928	21123
860.061	21188
860.194	21211
860.327	20944
860.46	21085
860.592	21070
860.725	21135
860.858	21119
860.99	20982
861.123	20857
861.256	21028
861.388	21047
861.521	21610
861.653	20811
861.786	20830
861.918	20861
862.05	20811
862.183	21039
862.315	20971
862.447	21074
862.58	20986
862.712	20705
862.844	20754
862.976	20788
863.108	20682
863.24	21089
863.372	20613
863.504	20826
863.636	20781
863.768	20842
863.9	20727
864.032	20659
864.164	20727
864.296	20826
864.428	20830
864.559	20815
864.691	20689
864.823	20682
864.954	20602
865.086	20750
865.217	20712
865.349	20499
865.48	20606
865.612	20629
865.743	20762
865.875	20571
866.006	20564
866.137	20602
866.269	20609
866.4	20571
866.531	20632
866.662	20518
866.793	20663
866.924	20499
867.055	20564
867.186	20629
867.317	20545
867.448	20431
867.579	20499
867.71	20454
867.841	20495
867.972	20571
868.103	20541
868.233	20583
868.364	20530
868.495	20720
868.625	20777
868.756	20925
868.886	20724
869.017	20811
869.147	20910
869.278	20880
869.408	20807
869.539	20876
869.669	20914
869.799	20838
869.929	21036
870.06	20925
870.19	21112
870.32	21096
870.45	21192
870.58	21203
870.71	21302
870.84	21283
870.97	21245
871.1	21325
871.23	21374
871.36	21325
871.489	21264
871.619	21332
871.749	21428
871.879	21412
872.008	21530
872.138	21359
872.267	21378
872.397	21317
872.526	21218
872.656	21214
872.785	21207
872.915	21428
873.044	21538
873.173	21321
873.303	21424
873.432	21614
873.561	21485
873.69	21458
873.819	21416
873.948	21466
874.077	21564
874.206	21298
874.335	21389
874.464	21652
874.593	21561
874.722	21576
874.851	21701
874.979	21648
875.108	21736
875.237	21713
875.365	21553
875.494	21652
875.623	21785
875.751	21625
875.88	21625
876.008	21701
876.136	21774
876.265	22032
876.393	22128
876.521	22139
876.65	22147
876.778	22101
876.906	21994
877.034	22078
877.162	22067
877.29	21888
877.418	22070
877.546	22093
877.674	22048
877.802	21880
877.93	22006
878.058	21926
878.185	21869
878.313	22025
878.441	21922
878.568	21869
878.696	21899
878.824	21983
878.951	22131
879.079	22242
879.206	22276
879.333	22188
879.461	22029
879.588	22234
879.715	22150
879.842	22257
879.97	22116
880.097	21774
880.224	21903
880.351	21899
880.478	21937
880.605	21762
880.732	21888
880.859	22040
880.986	21907
881.112	21838
881.239	21759
881.366	21679
881.493	21542
881.619	21454
881.746	21408
881.872	21637
881.999	21424
882.125	21488
882.252	21526
882.378	21367
882.505	21549
882.631	21317
882.757	21188
882.883	21340
883.01	21161
883.136	21119
883.262	21123
883.388	20975
883.514	21230
883.64	21192
883.766	21085
883.892	20914
884.018	21020
884.143	21135
884.269	21272
884.395	20887
884.52	20811
884.646	20902
884.772	20731
884.897	20743
885.023	20864
885.148	20853
885.274	20937
885.399	20971
885.524	20777
885.65	20834
885.775	20883
885.9	20727
886.025	20857
886.15	20887
886.275	20781
886.4	20705
886.525	20724
886.65	20640
886.775	20746
886.9	20845
887.025	20929
887.149	20777
887.274	20590
887.399	20598
887.523	20613
887.648	20579
887.773	20495
887.897	20735
888.021	20632
888.146	20431
888.27	20590
888.395	20788
888.519	20549
888.643	20545
888.767	20606
888.891	20495
889.015	20301
889.139	20374
889.263	20374
889.387	20415
889.511	20533
889.635	20415
889.759	20320
889.883	20298
890.006	20298
890.13	20495
890.254	20240
890.377	20298
890.501	20111
890.624	20119
890.748	20240
890.871	20024
890.995	19963
891.118	19921
891.241	20050
891.364	20008
891.488	20050
891.611	20046
891.734	19959
891.857	19974
891.98	19909
892.103	19887
892.226	19967
892.349	19928
892.471	19708
892.594	19700
892.717	19887
892.839	19902
892.962	19742
893.085	19871
893.207	19852
893.33	19647
893.452	19784
893.575	19890
893.697	19803
893.819	19890
893.941	20016
894.064	20012
894.186	19746
894.308	19677
894.43	20016
894.552	20035
894.674	19982
894.796	19750
894.918	19845
895.04	19818
895.161	20012
895.283	19811
895.405	19753
895.526	19837
895.648	19864
895.769	19883
895.891	19887
896.012	19982
896.134	19898
896.255	19761
896.376	19849
896.498	19974
896.619	19826
896.74	19738
896.861	19868
896.982	20202
897.103	20343
897.224	20271
897.345	20214
897.466	20149
897.587	20096
897.708	20210
897.828	20214
897.949	20084
898.07	19936
898.19	20005
898.311	20145
898.431	20054
898.552	20058
898.672	20142
898.792	20237
898.913	20062
899.033	20020
899.153	19982
899.273	19776
899.393	19913
899.513	19852
899.633	19928
899.753	19970
899.873	19780
899.993	19932
900.113	19830
900.232	19864
900.352	19784
900.472	19605
900.591	19624
900.711	19719
900.83	19552
900.95	19784
901.069	19700
901.189	19518
901.308	19293
901.427	19247
901.546	19232
901.665	19304
901.784	19308
901.904	19050
902.023	19000
902.141	18837
902.26	18753
902.379	18806
902.498	18745
902.617	18692
902.735	18745
902.854	18741
902.973	18646
903.091	18384
903.21	18380
903.328	18304
903.446	18228
903.565	18296
903.683	18224
903.801	18178
903.919	18247
904.038	18083
904.156	18064
904.274	18015
904.392	17904
904.51	17965
904.627	18049
904.745	17988
904.863	18003
904.981	17752
905.098	17661
905.216	17608
905.334	17756
905.451	17665
905.569	17630
905.686	17653
905.803	17676
905.921	17459
906.038	17600
906.155	17501
906.272	17345
906.389	17414
906.506	17181
906.623	17223
906.74	17162
906.857	17109
906.974	17052
907.091	17273
907.208	17368
907.324	17235
907.441	17102
907.557	16873
907.674	17037
907.79	16904
907.907	16923
908.023	16911
908.139	16889
908.256	16843
908.372	16869
908.488	16771
908.604	16641
908.72	16470
908.836	16706
908.952	16698
909.068	16653
909.184	16725
909.3	16645
909.415	16675
909.531	16767
909.647	16398
909.762	16356
909.878	16413
909.993	16215
910.108	16375
910.224	16303
910.339	16291
910.454	16230
910.57	16192
910.685	16048
910.8	16379
910.915	16226
911.03	16150
911.145	15991
911.259	15949
911.374	15926
911.489	15857
911.604	15739
911.718	15671
911.833	15682
911.947	15618
912.062	15557
912.176	15660
912.291	15652
912.405	15755
912.519	15918
912.633	15865
912.748	15690
912.862	15675
912.976	15496
913.09	15431
913.204	15454
913.318	15370
913.431	15644
913.545	15538
913.659	15519
913.772	15485
913.886	15302
914	15275
914.113	15447
914.226	15405
914.34	15367
914.453	15135
914.566	15382
914.68	15180
914.793	15104
914.906	14937
915.019	14944
915.132	14830
915.245	14899
915.358	14944
915.47	14895
915.583	14921
915.696	14906
915.809	15032
915.921	14952
916.034	14842
916.146	14807
916.259	14834
916.371	14944
916.483	14845
916.595	14819
916.708	14724
916.82	14777
916.932	14697
917.044	14716
917.156	14659
917.268	14613
917.38	14648
917.491	14571
917.603	14632
917.715	14549
917.826	14674
917.938	14484
918.049	14434
918.161	14431
918.272	14625
918.384	14674
918.495	14484
918.606	14427
918.717	14450
918.828	14362
918.939	14385
919.05	14301
919.161	14301
919.272	14130
919.383	14225
919.494	14358
919.604	14549
919.715	14309
919.826	14180
919.936	14214
920.047	14400
920.157	14271
920.267	14617
920.378	14290
920.488	14294
920.598	14427
920.708	14682
920.818	14488
920.928	14423
921.038	14564
921.148	14507
921.258	14237
921.368	14183
921.477	14092
921.587	14081
921.697	13772
921.806	14039
921.916	13890
922.025	13746
922.134	13799
922.244	13727
922.353	13746
922.462	13544
922.571	13468
922.68	13365
922.789	13343
922.898	13270
923.007	13304
923.116	13327
923.224	13304
923.333	13346
923.442	13160
923.55	13122
923.659	13171
923.767	13190
923.876	13091
923.984	13206
924.092	13088
924.201	13160
924.309	13084
924.417	13076
924.525	12875
924.633	13012
924.741	13928
924.849	12787
924.956	12958
925.064	12814
925.172	12726
925.279	12734
925.387	12829
925.494	12802
925.602	12905
925.709	12848
925.816	12677
925.924	12677
926.031	12840
926.138	12734
926.245	12711
926.352	12711
926.459	12726
926.566	12848
926.673	12681
926.779	12471
926.886	12521
926.993	12422
927.099	12365
927.206	12247
927.312	12342
927.419	12372
927.525	12327
927.631	12350
927.737	12251
927.843	12171
927.95	12022
928.056	12194
928.162	12159
928.267	12129
928.373	12814
928.479	12281
928.585	11901
928.69	12148
928.796	12148
928.901	12049
929.007	11920
929.112	12015
929.218	11999
929.323	11942
929.428	11851
929.533	12034
929.638	11764
929.743	11851
929.848	11920
929.953	11866
930.058	11764
930.163	11558
930.267	11646
930.372	11752
930.477	11516
930.581	11893
930.685	11653
930.79	11459
930.894	11528
930.998	11448
931.103	11551
931.207	11185
931.311	11261
931.415	11090
931.519	10946
931.623	10835
