Data from test_V78500241_517.txt Node
Date: Fri Mar 25 15:45:22 CST 2022
User: usil
Spectrometer: V785-0024
Trigger mode: 0
Integration Time (sec): 4.000000E-1
Scans to average: 1
Nonlinearity correction enabled: false
Boxcar width: 0
Storing dark spectrum: false
XAxis mode: Wavelengths
Number of Pixels in Spectrum: 1024
>>>>>Begin Spectral Data<<<<<
801.071	27222
801.214	26967
801.356	26845
801.499	26921
801.641	26659
801.783	26678
801.926	26724
802.068	26727
802.211	26564
802.353	26526
802.496	26400
802.638	26252
802.78	26351
802.923	26237
803.065	26187
803.208	26343
803.35	26271
803.492	26434
803.635	26366
803.777	26294
803.919	26305
804.061	26682
804.204	26415
804.346	26412
804.488	26275
804.63	26575
804.773	26214
804.915	26427
805.057	26526
805.199	26427
805.341	26415
805.483	26640
805.626	26461
805.768	26396
805.91	26545
806.052	26598
806.194	26533
806.336	26754
806.478	26659
806.62	26514
806.762	26613
806.904	26864
807.046	27085
807.188	27043
807.33	27074
807.472	27043
807.614	26910
807.756	26872
807.898	26819
808.04	26857
808.182	26708
808.324	26762
808.465	26853
808.607	27119
808.749	27108
808.891	27310
809.033	27450
809.174	27211
809.316	27249
809.458	27207
809.6	27256
809.741	27294
809.883	27272
810.025	27435
810.166	27462
810.308	27583
810.45	27294
810.591	27397
810.733	27150
810.875	27070
811.016	27039
811.158	27100
811.299	27355
811.441	27363
811.582	27279
811.724	27298
811.865	27089
812.007	27119
812.148	27161
812.29	27127
812.431	27344
812.573	27526
812.714	27610
812.855	27625
812.997	27755
813.138	28032
813.279	27781
813.421	27648
813.562	27713
813.703	27515
813.845	27427
813.986	27119
814.127	26845
814.268	26864
814.41	26845
814.551	26754
814.692	26819
814.833	26739
814.974	26781
815.115	26830
815.256	26613
815.397	26758
815.539	26743
815.68	26617
815.821	26507
815.962	26670
816.103	26571
816.244	26396
816.385	26301
816.526	26343
816.666	26298
816.807	26138
816.948	26122
817.089	26248
817.23	26191
817.371	26100
817.512	26153
817.653	26016
817.793	25986
817.934	26020
818.075	26092
818.216	26039
818.356	26039
818.497	25921
818.638	25879
818.778	25704
818.919	25826
819.06	25837
819.2	25860
819.341	26024
819.481	26122
819.622	26043
819.762	26400
819.903	26389
820.043	26138
820.184	26130
820.324	26309
820.465	26164
820.605	26149
820.746	26077
820.886	26005
821.026	26027
821.167	26103
821.307	26164
821.447	26134
821.588	25951
821.728	25917
821.868	25613
822.008	25540
822.149	25415
822.289	25377
822.429	25282
822.569	25240
822.709	25263
822.849	25091
822.99	24947
823.13	24989
823.27	24954
823.41	24722
823.55	24745
823.69	24856
823.83	24897
823.97	24768
824.11	24585
824.25	24669
824.389	24684
824.529	24711
824.669	24627
824.809	24928
824.949	24772
825.089	24726
825.228	24696
825.368	24521
825.508	24544
825.648	24559
825.787	24574
825.927	24532
826.067	24536
826.206	24456
826.346	24661
826.485	24604
826.625	24486
826.765	24555
826.904	24555
827.044	24296
827.183	24407
827.323	24136
827.462	24380
827.601	24220
827.741	24247
827.88	24167
828.02	24018
828.159	24300
828.298	24178
828.437	24239
828.577	24121
828.716	24330
828.855	24045
828.994	23927
829.134	23885
829.273	23931
829.412	24041
829.551	23798
829.69	23916
829.829	23969
829.968	24068
830.107	24030
830.246	24018
830.385	23805
830.524	23920
830.663	23733
830.802	23684
830.941	23623
831.08	23391
831.219	23551
831.357	23604
831.496	23741
831.635	23558
831.774	23425
831.913	23474
832.051	23372
832.19	23364
832.329	23280
832.467	23261
832.606	23159
832.744	23220
832.883	23140
833.022	23128
833.16	23193
833.299	23254
833.437	23284
833.576	23303
833.714	23246
833.852	23391
833.991	23299
834.129	23265
834.267	23349
834.406	23292
834.544	23337
834.682	23216
834.821	23258
834.959	23326
835.097	23254
835.235	23280
835.373	23239
835.511	23277
835.65	23136
835.788	23067
835.926	23086
836.064	22908
836.202	22934
836.34	23162
836.478	23200
836.615	23003
836.753	23181
836.891	23242
837.029	23181
837.167	22984
837.305	23022
837.443	23003
837.58	22995
837.718	22946
837.856	22919
837.993	22862
838.131	22972
838.269	22919
838.406	22790
838.544	22869
838.681	22497
838.819	22630
838.956	22489
839.094	22379
839.231	22470
839.369	22481
839.506	22790
839.643	22733
839.781	22504
839.918	22413
840.055	22356
840.193	22432
840.33	22287
840.467	22466
840.604	22375
840.742	22698
840.879	22200
841.016	22344
841.153	22261
841.29	22348
841.427	22382
841.564	22344
841.701	22291
841.838	22318
841.975	22135
842.112	22295
842.249	22124
842.385	22135
842.522	22223
842.659	22196
842.796	22177
842.933	22128
843.069	22032
843.206	21979
843.343	22082
843.479	22124
843.616	22097
843.752	21808
843.889	21781
844.025	22006
844.162	21854
844.298	21934
844.435	21766
844.571	21713
844.708	21876
844.844	21930
844.98	22078
845.117	22059
845.253	21762
845.389	21694
845.525	21648
845.661	21660
845.798	21679
845.934	21641
846.07	21587
846.206	21728
846.342	21732
846.478	21568
846.614	21519
846.75	21401
846.886	21241
847.022	21374
847.158	21370
847.294	21382
847.429	21370
847.565	21363
847.701	21580
847.837	21123
847.972	21077
848.108	21020
848.244	21150
848.379	20982
848.515	20864
848.65	20921
848.786	21017
848.921	20895
849.057	21039
849.192	21058
849.328	21017
849.463	20944
849.598	20876
849.734	20845
849.869	20796
850.004	20609
850.14	20792
850.275	20720
850.41	20575
850.545	20571
850.68	20609
850.815	20674
850.95	20807
851.085	20914
851.22	20762
851.355	20785
851.49	20731
851.625	20712
851.76	20648
851.895	20724
852.03	20655
852.165	20727
852.299	20686
852.434	20819
852.569	20712
852.703	20731
852.838	20765
852.973	20842
853.107	20861
853.242	20712
853.376	20579
853.511	20389
853.645	20556
853.78	20708
853.914	20617
854.048	20461
854.183	20499
854.317	20613
854.451	20693
854.585	20499
854.72	20503
854.854	20613
854.988	20575
855.122	20446
855.256	20347
855.39	20617
855.524	20689
855.658	20568
855.792	20518
855.926	20625
856.06	20632
856.194	20777
856.327	20705
856.461	20518
856.595	20465
856.729	20461
856.862	20758
856.996	20609
857.13	20720
857.263	20564
857.397	20724
857.53	20473
857.664	20674
857.797	20583
857.931	20682
858.064	20606
858.197	20746
858.331	20594
858.464	20495
858.597	20320
858.731	20495
858.864	20522
858.997	20545
859.13	20560
859.263	20541
859.396	20716
859.529	20552
859.662	20438
859.795	20507
859.928	20613
860.061	20807
860.194	20731
860.327	20461
860.46	20552
860.592	20511
860.725	20765
860.858	20674
860.99	20682
861.123	20492
861.256	20545
861.388	20556
861.521	21283
861.653	20362
861.786	20355
861.918	20393
862.05	20450
862.183	20415
862.315	20564
862.447	20480
862.58	20484
862.712	20309
862.844	20210
862.976	20404
863.108	20336
863.24	20765
863.372	20282
863.504	20202
863.636	20282
863.768	20294
863.9	20248
864.032	20301
864.164	20237
864.296	20336
864.428	20427
864.559	20377
864.691	20343
864.823	20294
864.954	20187
865.086	20248
865.217	20195
865.349	20149
865.48	20229
865.612	20237
865.743	20362
865.875	20199
866.006	20092
866.137	20111
866.269	20122
866.4	20183
866.531	20054
866.662	20050
866.793	20126
866.924	20164
867.055	20157
867.186	20157
867.317	20107
867.448	20073
867.579	20088
867.71	20088
867.841	19959
867.972	20138
868.103	20142
868.233	20187
868.364	20176
868.495	20161
868.625	20347
868.756	20446
868.886	20233
869.017	20332
869.147	20412
869.278	20461
869.408	20339
869.539	20389
869.669	20476
869.799	20423
869.929	20495
870.06	20602
870.19	20731
870.32	20670
870.45	20701
870.58	20739
870.71	20883
870.84	20807
870.97	20731
871.1	20697
871.23	20910
871.36	20883
871.489	20880
871.619	20952
871.749	20918
871.879	20925
872.008	21119
872.138	20963
872.267	20982
872.397	20887
872.526	20720
872.656	20746
872.785	20727
872.915	20986
873.044	21062
873.173	20826
873.303	21047
873.432	21020
873.561	21036
873.69	21047
873.819	20948
873.948	21047
874.077	20902
874.206	20979
874.335	21032
874.464	21108
874.593	21252
874.722	21211
874.851	21150
874.979	21283
875.108	21287
875.237	21112
875.365	21199
875.494	21268
875.623	21275
875.751	21142
875.88	21279
876.008	21317
876.136	21408
876.265	21701
876.393	21747
876.521	21622
876.65	21713
876.778	21534
876.906	21488
877.034	21504
877.162	21580
877.29	21500
877.418	21583
877.546	21629
877.674	21515
877.802	21469
877.93	21504
878.058	21572
878.185	21572
878.313	21576
878.441	21610
878.568	21511
878.696	21466
878.824	21538
878.951	21656
879.079	21644
879.206	21937
879.333	21785
879.461	21603
879.588	21690
879.715	21724
879.842	21770
879.97	21686
880.097	21397
880.224	21420
880.351	21580
880.478	21428
880.605	21336
880.732	21298
880.859	21530
880.986	21443
881.112	21370
881.239	21359
881.366	21268
881.493	21070
881.619	20994
881.746	21058
881.872	20906
881.999	21024
882.125	21058
882.252	20986
882.378	20891
882.505	21043
882.631	20765
882.757	20663
882.883	20689
883.01	20720
883.136	20621
883.262	20701
883.388	20571
883.514	20727
883.64	20830
883.766	20636
883.892	20423
884.018	20530
884.143	20636
884.269	20754
884.395	20339
884.52	20271
884.646	20355
884.772	20298
884.897	20233
885.023	20332
885.148	20423
885.274	20454
885.399	20423
885.524	20309
885.65	20366
885.775	20313
885.9	20343
886.025	20404
886.15	20339
886.275	20317
886.4	20168
886.525	20370
886.65	20218
886.775	20271
886.9	20473
887.025	20571
887.149	20237
887.274	20172
887.399	20027
887.523	20062
887.648	20126
887.773	19997
887.897	20278
888.021	20202
888.146	20035
888.27	20138
888.395	20267
888.519	20103
888.643	20130
888.767	20164
888.891	19986
889.015	19890
889.139	19852
889.263	19982
889.387	20111
889.511	20084
889.635	20122
889.759	19791
889.883	19940
890.006	19845
890.13	20005
890.254	19841
890.377	19780
890.501	19651
890.624	19689
890.748	19712
890.871	19613
890.995	19575
891.118	19358
891.241	19544
891.364	19476
891.488	19590
891.611	19495
891.734	19441
891.857	19582
891.98	19529
892.103	19544
892.226	19510
892.349	19483
892.471	19346
892.594	19540
892.717	19426
892.839	19324
892.962	19460
893.085	19502
893.207	19316
893.33	19244
893.452	19312
893.575	19480
893.697	19445
893.819	19540
893.941	19559
894.064	19563
894.186	19521
894.308	19369
894.43	19495
894.552	19571
894.674	19521
894.796	19346
894.918	19377
895.04	19346
895.161	19506
895.283	19483
895.405	19426
895.526	19514
895.648	19514
895.769	19472
895.891	19396
896.012	19548
896.134	19510
896.255	19529
896.376	19388
896.498	19472
896.619	19468
896.74	19495
896.861	19499
896.982	19750
897.103	20012
897.224	19708
897.345	19727
897.466	19700
897.587	19635
897.708	19761
897.828	19731
897.949	19651
898.07	19483
898.19	19643
898.311	19761
898.431	19635
898.552	19723
898.672	19723
898.792	19765
898.913	19750
899.033	19632
899.153	19525
899.273	19255
899.393	19426
899.513	19548
899.633	19438
899.753	19403
899.873	19411
899.993	19491
900.113	19460
900.232	19381
900.352	19457
900.472	19293
900.591	19221
900.711	19289
900.83	19148
900.95	19460
901.069	19346
901.189	19168
901.308	18970
901.427	18981
901.546	18863
901.665	18916
901.784	18894
901.904	18757
902.023	18616
902.141	18346
902.26	18353
902.379	18445
902.498	18350
902.617	18232
902.735	18361
902.854	18270
902.973	18209
903.091	17999
903.21	18060
903.328	18102
903.446	17954
903.565	17840
903.683	17885
903.801	17733
903.919	17821
904.038	17809
904.156	17566
904.274	17634
904.392	17619
904.51	17596
904.627	17543
904.745	17657
904.863	17611
904.981	17292
905.098	17204
905.216	17288
905.334	17273
905.451	17315
905.569	17303
905.686	17322
905.803	17212
905.921	17098
906.038	17094
906.155	17067
906.272	17045
906.389	16980
906.506	16843
906.623	16881
906.74	16824
906.857	16801
906.974	16687
907.091	16862
907.208	16938
907.324	16908
907.441	16702
907.557	16561
907.674	16679
907.79	16481
907.907	16573
908.023	16462
908.139	16504
908.256	16504
908.372	16440
908.488	16459
908.604	16337
908.72	16268
908.836	16310
908.952	16169
909.068	16265
909.184	16341
909.3	16287
909.415	16284
909.531	16181
909.647	16029
909.762	15975
909.878	15960
909.993	15991
910.108	16013
910.224	15861
910.339	15975
910.454	15766
910.57	15804
910.685	15804
910.8	15968
910.915	15968
911.03	15747
911.145	15660
911.259	15511
911.374	15633
911.489	15538
911.604	15351
911.718	15336
911.833	15424
911.947	15302
912.062	15165
912.176	15321
912.291	15336
912.405	15317
912.519	15511
912.633	15572
912.748	15431
912.862	15348
912.976	15188
913.09	14979
913.204	15112
913.318	15154
913.431	15294
913.545	15169
913.659	15233
913.772	15112
913.886	15077
914	14899
914.113	14990
914.226	15093
914.34	15028
914.453	14811
914.566	14952
914.68	14937
914.793	14800
914.906	14663
915.019	14579
915.132	14480
915.245	14514
915.358	14663
915.47	14590
915.583	14621
915.696	14617
915.809	14682
915.921	14674
916.034	14484
916.146	14408
916.259	14415
916.371	14461
916.483	14454
916.595	14313
916.708	14366
916.82	14454
916.932	14438
917.044	14404
917.156	14404
917.268	14282
917.38	14309
917.491	14267
917.603	14320
917.715	14423
917.826	14377
917.938	14088
918.049	14145
918.161	14225
918.272	14358
918.384	14313
918.495	14138
918.606	14164
918.717	13921
918.828	13974
918.939	13909
919.05	13944
919.161	14012
919.272	13879
919.383	13818
919.494	14119
919.604	14134
919.715	13970
919.826	13928
919.936	13959
920.047	14081
920.157	14027
920.267	14180
920.378	14008
920.488	13875
920.598	14187
920.708	14317
920.818	14092
920.928	14149
921.038	14317
921.148	14267
921.258	13913
921.368	13879
921.477	13864
921.587	13750
921.697	13567
921.806	13742
921.916	13548
922.025	13426
922.134	13415
922.244	13346
922.353	13350
922.462	13312
922.571	13228
922.68	13012
922.789	13080
922.898	13118
923.007	12985
923.116	13114
923.224	13027
923.333	12958
923.442	12970
923.55	12954
923.659	12798
923.767	12871
923.876	12878
923.984	12932
924.092	12817
924.201	12791
924.309	12856
924.417	12795
924.525	12722
924.633	12696
924.741	13457
924.849	12627
924.956	12635
925.064	12551
925.172	12338
925.279	12350
925.387	12601
925.494	12494
925.602	12639
925.709	12445
925.816	12391
925.924	12338
926.031	12582
926.138	12494
926.245	12574
926.352	12319
926.459	12566
926.566	12464
926.673	12365
926.779	12273
926.886	12258
926.993	12167
927.099	12068
927.206	11996
927.312	12098
927.419	12121
927.525	11999
927.631	12095
927.737	11977
927.843	11920
927.95	11874
928.056	11866
928.162	11954
928.267	11961
928.373	12521
928.479	12076
928.585	11821
928.69	11954
928.796	11893
928.901	11874
929.007	11611
929.112	11767
929.218	11684
929.323	11634
929.428	11547
929.533	11726
929.638	11592
929.743	11630
929.848	11642
929.953	11554
930.058	11455
930.163	11353
930.267	11356
930.372	11334
930.477	11231
930.581	11535
930.685	11356
930.79	11303
930.894	11185
930.998	11220
931.103	11387
931.207	11029
931.311	10938
931.415	10850
931.519	10645
931.623	10618
