Data from test_V78500241_1787.txt Node
Date: Fri Mar 25 15:54:10 CST 2022
User: usil
Spectrometer: V785-0024
Trigger mode: 0
Integration Time (sec): 4.000000E-1
Scans to average: 1
Nonlinearity correction enabled: false
Boxcar width: 0
Storing dark spectrum: false
XAxis mode: Wavelengths
Number of Pixels in Spectrum: 1024
>>>>>Begin Spectral Data<<<<<
801.071	28440
801.214	28542
801.356	28204
801.499	28139
801.641	27949
801.783	28010
801.926	28032
802.068	28002
802.211	27945
802.353	27907
802.496	27873
802.638	27701
802.78	27686
802.923	27671
803.065	27587
803.208	27610
803.35	27690
803.492	27736
803.635	27869
803.777	27671
803.919	27804
804.061	28090
804.204	27941
804.346	27842
804.488	27766
804.63	27842
804.773	27705
804.915	27918
805.057	28029
805.199	27972
805.341	27941
805.483	28082
805.626	28131
805.768	27972
805.91	28112
806.052	28086
806.194	27987
806.336	28135
806.478	28002
806.62	28059
806.762	28177
806.904	28291
807.046	28531
807.188	28394
807.33	28493
807.472	28557
807.614	28432
807.756	28557
807.898	28348
808.04	28325
808.182	28314
808.324	28432
808.465	28538
808.607	28637
808.749	28717
808.891	28828
809.033	28968
809.174	28820
809.316	28869
809.458	28831
809.6	28603
809.741	28828
809.883	28862
810.025	28980
810.166	29090
810.308	29083
810.45	28953
810.591	28809
810.733	28603
810.875	28710
811.016	28736
811.158	28733
811.299	28786
811.441	28812
811.582	28729
811.724	28774
811.865	28710
812.007	28729
812.148	28664
812.29	28831
812.431	28805
812.573	29064
812.714	29273
812.855	29231
812.997	29375
813.138	29531
813.279	29307
813.421	29292
813.562	29250
813.703	29060
813.845	28927
813.986	28664
814.127	28554
814.268	28428
814.41	28398
814.551	28443
814.692	28592
814.833	28325
814.974	28436
815.115	28447
815.256	28436
815.397	28219
815.539	28303
815.68	28291
815.821	28025
815.962	28192
816.103	28249
816.244	28097
816.385	28093
816.526	27987
816.666	27797
816.807	27827
816.948	27892
817.089	27903
817.23	27766
817.371	27713
817.512	27713
817.653	27603
817.793	27648
817.934	27736
818.075	27816
818.216	27755
818.356	27679
818.497	27641
818.638	27427
818.778	27488
818.919	27545
819.06	27526
819.2	27633
819.341	27736
819.481	27747
819.622	27876
819.762	28139
819.903	28040
820.043	27895
820.184	27930
820.324	27698
820.465	27789
820.605	27800
820.746	27888
820.886	27755
821.026	27743
821.167	27766
821.307	27846
821.447	27808
821.588	27660
821.728	27561
821.868	27450
822.008	27332
822.149	27211
822.289	27169
822.429	26948
822.569	26838
822.709	26937
822.849	26712
822.99	26819
823.13	26697
823.27	26705
823.41	26533
823.55	26343
823.69	26503
823.83	26507
823.97	26606
824.11	26286
824.25	26233
824.389	26332
824.529	26545
824.669	26400
824.809	26381
824.949	26556
825.089	26461
825.228	26385
825.368	26278
825.508	26176
825.648	26362
825.787	26221
825.927	26301
826.067	26084
826.206	26282
826.346	26187
826.485	26298
826.625	26221
826.765	26301
826.904	26229
827.044	25944
827.183	25989
827.323	25963
827.462	26008
827.601	25906
827.741	25837
827.88	26016
828.02	25852
828.159	25868
828.298	25788
828.437	25993
828.577	25875
828.716	26134
828.855	25852
828.994	25742
829.134	25696
829.273	25685
829.412	25597
829.551	25628
829.69	25719
829.829	25696
829.968	25670
830.107	25712
830.246	25601
830.385	25540
830.524	25563
830.663	25339
830.802	25350
830.941	25259
831.08	25160
831.219	25362
831.357	25327
831.496	25540
831.635	25187
831.774	25126
831.913	25156
832.051	25095
832.19	25065
832.329	25053
832.467	25008
832.606	24871
832.744	24806
832.883	24985
833.022	24844
833.16	24909
833.299	24970
833.437	24985
833.576	24977
833.714	24890
833.852	25019
833.991	25031
834.129	25053
834.267	25061
834.406	25012
834.544	25065
834.682	25000
834.821	24863
834.959	25137
835.097	24901
835.235	25034
835.373	25027
835.511	24901
835.65	24875
835.788	24882
835.926	24768
836.064	24627
836.202	24612
836.34	24905
836.478	24848
836.615	24768
836.753	24825
836.891	24730
837.029	24719
837.167	24684
837.305	24559
837.443	24700
837.58	24711
837.718	24726
837.856	24677
837.993	24608
838.131	24696
838.269	24528
838.406	24608
838.544	24445
838.681	24133
838.819	24228
838.956	24163
839.094	24178
839.231	24152
839.369	24232
839.506	24555
839.643	24391
839.781	24106
839.918	24076
840.055	24152
840.193	24053
840.33	23950
840.467	24129
840.604	24007
840.742	24304
840.879	23874
841.016	23935
841.153	23882
841.29	24030
841.427	23935
841.564	23935
841.701	24064
841.838	23874
841.975	23813
842.112	23946
842.249	23984
842.385	23802
842.522	23973
842.659	23802
842.796	23790
842.933	23817
843.069	23646
843.206	23604
843.343	23783
843.479	23798
843.616	23783
843.752	23562
843.889	23623
844.025	23649
844.162	23452
844.298	23699
844.435	23566
844.571	23501
844.708	23562
844.844	23649
844.98	23657
845.117	23566
845.253	23379
845.389	23334
845.525	23406
845.661	23509
845.798	23269
845.934	23372
846.07	23284
846.206	23235
846.342	23311
846.478	23273
846.614	23022
846.75	22862
846.886	22873
847.022	23041
847.158	22972
847.294	22820
847.429	23128
847.565	22942
847.701	23341
847.837	22721
847.972	22710
848.108	22755
848.244	22839
848.379	22668
848.515	22569
848.65	22599
848.786	22683
848.921	22516
849.057	22748
849.192	22717
849.328	22599
849.463	22580
849.598	22561
849.734	22508
849.869	22371
850.004	22253
850.14	22249
850.275	22299
850.41	22276
850.545	22348
850.68	22348
850.815	22257
850.95	22249
851.085	22596
851.22	22432
851.355	22246
851.49	22265
851.625	22398
851.76	22379
851.895	22356
852.03	22276
852.165	22303
852.299	22455
852.434	22405
852.569	22375
852.703	22299
852.838	22325
852.973	22531
853.107	22367
853.242	22211
853.376	22215
853.511	22082
853.645	22055
853.78	22257
853.914	22090
854.048	22120
854.183	22112
854.317	22207
854.451	22333
854.585	22105
854.72	22051
854.854	22234
854.988	22105
855.122	22211
855.256	22055
855.39	22196
855.524	22169
855.658	22211
855.792	22192
855.926	22177
856.06	22192
856.194	22230
856.327	22101
856.461	22082
856.595	22078
856.729	22154
856.862	22261
856.996	22185
857.13	22162
857.263	22310
857.397	22360
857.53	22002
857.664	22166
857.797	22314
857.931	22284
858.064	22246
858.197	22265
858.331	22082
858.464	22063
858.597	21960
858.731	22097
858.864	22063
858.997	22158
859.13	22131
859.263	22192
859.396	22268
859.529	22139
859.662	22131
859.795	22093
859.928	22215
860.061	22238
860.194	22348
860.327	22169
860.46	22154
860.592	22318
860.725	22329
860.858	22257
860.99	22067
861.123	22120
861.256	22200
861.388	22139
861.521	22820
861.653	21953
861.786	22021
861.918	22063
862.05	22070
862.183	21998
862.315	22097
862.447	22192
862.58	21964
862.712	22010
862.844	21876
862.976	22002
863.108	21979
863.24	22253
863.372	21766
863.504	21953
863.636	22010
863.768	21854
863.9	21915
864.032	21705
864.164	21835
864.296	21720
864.428	22040
864.559	22013
864.691	21865
864.823	21960
864.954	21873
865.086	21816
865.217	21804
865.349	21690
865.48	21728
865.612	21751
865.743	21873
865.875	21766
866.006	21690
866.137	21812
866.269	21660
866.4	21686
866.531	21610
866.662	21530
866.793	21774
866.924	21656
867.055	21610
867.186	21625
867.317	21526
867.448	21435
867.579	21652
867.71	21622
867.841	21519
867.972	21690
868.103	21660
868.233	21587
868.364	21641
868.495	21816
868.625	21930
868.756	21964
868.886	21819
869.017	21915
869.147	21911
869.278	22063
869.408	21903
869.539	21937
869.669	21972
869.799	21949
869.929	22063
870.06	22093
870.19	22196
870.32	22268
870.45	22196
870.58	22344
870.71	22493
870.84	22337
870.97	22181
871.1	22398
871.23	22436
871.36	22447
871.489	22352
871.619	22626
871.749	22557
871.879	22634
872.008	22474
872.138	22478
872.267	22508
872.397	22371
872.526	22455
872.656	22196
872.785	22234
872.915	22565
873.044	22489
873.173	22615
873.303	22603
873.432	22508
873.561	22497
873.69	22664
873.819	22512
873.948	22584
874.077	22516
874.206	22402
874.335	22618
874.464	22622
874.593	22782
874.722	22672
874.851	22858
874.979	22729
875.108	22759
875.237	22801
875.365	22721
875.494	22542
875.623	22649
875.751	22687
875.88	22744
876.008	22767
876.136	22946
876.265	23105
876.393	23067
876.521	23174
876.65	23292
876.778	23292
876.906	23044
877.034	23044
877.162	23052
877.29	22995
877.418	23105
877.546	23189
877.674	23067
877.802	23086
877.93	22995
878.058	23056
878.185	22953
878.313	23018
878.441	23086
878.568	23071
878.696	23124
878.824	23121
878.951	23132
879.079	23162
879.206	23356
879.333	23235
879.461	23136
879.588	23269
879.715	23265
879.842	23235
879.97	23223
880.097	22919
880.224	22938
880.351	22911
880.478	22972
880.605	22831
880.732	22900
880.859	23204
880.986	22885
881.112	23041
881.239	22831
881.366	22569
881.493	22569
881.619	22557
881.746	22527
881.872	22489
881.999	22462
882.125	22421
882.252	22466
882.378	22299
882.505	22542
882.631	22272
882.757	22246
882.883	22341
883.01	22219
883.136	22173
883.262	21987
883.388	21968
883.514	22204
883.64	22109
883.766	22135
883.892	21895
884.018	21964
884.143	22074
884.269	22131
884.395	21861
884.52	21808
884.646	21880
884.772	21724
884.897	21709
885.023	21975
885.148	21873
885.274	21816
885.399	21915
885.524	21739
885.65	21831
885.775	21766
885.9	21793
886.025	21895
886.15	21937
886.275	21698
886.4	21720
886.525	21724
886.65	21747
886.775	21797
886.9	21819
887.025	21975
887.149	21808
887.274	21583
887.399	21443
887.523	21641
887.648	21568
887.773	21519
887.897	21564
888.021	21530
888.146	21564
888.27	21530
888.395	21622
888.519	21633
888.643	21667
888.767	21591
888.891	21447
889.015	21275
889.139	21397
889.263	21363
889.387	21511
889.511	21526
889.635	21561
889.759	21397
889.883	21363
890.006	21401
890.13	21488
890.254	21351
890.377	21268
890.501	21135
890.624	21074
890.748	21199
890.871	21039
890.995	20929
891.118	20868
891.241	20952
891.364	20971
891.488	20948
891.611	20883
891.734	20811
891.857	20868
891.98	20952
892.103	20902
892.226	20925
892.349	20864
892.471	20712
892.594	20800
892.717	20708
892.839	20910
892.962	20792
893.085	20853
893.207	20815
893.33	20697
893.452	20689
893.575	20689
893.697	20667
893.819	20990
893.941	20914
894.064	20925
894.186	20830
894.308	20670
894.43	20864
894.552	20929
894.674	20868
894.796	20712
894.918	20785
895.04	20762
895.161	20925
895.283	20773
895.405	20674
895.526	20693
895.648	20739
895.769	20800
895.891	20659
896.012	20807
896.134	20891
896.255	20838
896.376	20697
896.498	20667
896.619	20800
896.74	20769
896.861	20857
896.982	21142
897.103	21272
897.224	21070
897.345	21062
897.466	20925
897.587	21024
897.708	21127
897.828	20899
897.949	20864
898.07	20914
898.19	20925
898.311	21081
898.431	20834
898.552	20963
898.672	20971
898.792	21047
898.913	21039
899.033	20720
899.153	20781
899.273	20716
899.393	20811
899.513	20670
899.633	20792
899.753	20773
899.873	20716
899.993	20750
900.113	20594
900.232	20868
900.352	20552
900.472	20552
900.591	20400
900.711	20484
900.83	20408
900.95	20526
901.069	20609
901.189	20423
901.308	20107
901.427	20088
901.546	20046
901.665	20084
901.784	20065
901.904	19917
902.023	19830
902.141	19601
902.26	19761
902.379	19746
902.498	19586
902.617	19453
902.735	19639
902.854	19571
902.973	19514
903.091	19255
903.21	19320
903.328	19190
903.446	19088
903.565	19034
903.683	19000
903.801	18935
903.919	18954
904.038	19042
904.156	18875
904.274	18848
904.392	18840
904.51	18772
904.627	18745
904.745	18859
904.863	18791
904.981	18692
905.098	18460
905.216	18612
905.334	18460
905.451	18456
905.569	18486
905.686	18574
905.803	18399
905.921	18194
906.038	18338
906.155	18296
906.272	18178
906.389	18136
906.506	18079
906.623	17958
906.74	18003
906.857	17828
906.974	17855
907.091	18064
907.208	18057
907.324	18022
907.441	17904
907.557	17687
907.674	17726
907.79	17634
907.907	17653
908.023	17741
908.139	17752
908.256	17581
908.372	17661
908.488	17459
908.604	17478
908.72	17459
908.836	17436
908.952	17387
909.068	17524
909.184	17459
909.3	17433
909.415	17417
909.531	17364
909.647	17337
909.762	17121
909.878	17140
909.993	17075
910.108	17067
910.224	17060
910.339	17098
910.454	17003
910.57	16873
910.685	16824
910.8	17121
910.915	17048
911.03	16847
911.145	16702
911.259	16672
911.374	16668
911.489	16637
911.604	16424
911.718	16470
911.833	16310
911.947	16352
912.062	16337
912.176	16474
912.291	16516
912.405	16314
912.519	16626
912.633	16622
912.748	16516
912.862	16462
912.976	16386
913.09	16120
913.204	16223
913.318	16295
913.431	16306
913.545	16211
913.659	16272
913.772	16162
913.886	16139
914	16078
914.113	16078
914.226	16204
914.34	16169
914.453	15960
914.566	15975
914.68	15937
914.793	15793
914.906	15705
915.019	15606
915.132	15584
915.245	15648
915.358	15637
915.47	15561
915.583	15736
915.696	15614
915.809	15709
915.921	15739
916.034	15557
916.146	15584
916.259	15515
916.371	15534
916.483	15576
916.595	15416
916.708	15564
916.82	15447
916.932	15393
917.044	15393
917.156	15412
917.268	15351
917.38	15272
917.491	15195
917.603	15237
917.715	15287
917.826	15317
917.938	15161
918.049	15150
918.161	15218
918.272	15203
918.384	15363
918.495	15161
918.606	15043
918.717	14941
918.828	15001
918.939	15154
919.05	14941
919.161	15009
919.272	14765
919.383	14929
919.494	15043
919.604	15199
919.715	15013
919.826	14880
919.936	14979
920.047	15005
920.157	14929
920.267	15146
920.378	14929
920.488	14849
920.598	15161
920.708	15173
920.818	15093
920.928	15127
921.038	15214
921.148	15256
921.258	14861
921.368	14853
921.477	14712
921.587	14686
921.697	14606
921.806	14674
921.916	14552
922.025	14332
922.134	14366
922.244	14362
922.353	14355
922.462	14214
922.571	14043
922.68	14054
922.789	14058
922.898	13909
923.007	13951
923.116	14035
923.224	13906
923.333	13841
923.442	13837
923.55	13795
923.659	13826
923.767	13818
923.876	13696
923.984	13738
924.092	13670
924.201	13727
924.309	13738
924.417	13594
924.525	13609
924.633	13662
924.741	14309
924.849	13430
924.956	13460
925.064	13308
925.172	13274
925.279	13308
925.387	13384
925.494	13289
925.602	13373
925.709	13396
925.816	13316
925.924	13301
926.031	13403
926.138	13255
926.245	13369
926.352	13316
926.459	13381
926.566	13396
926.673	13221
926.779	13099
926.886	13110
926.993	12951
927.099	12844
927.206	12886
927.312	12791
927.419	12935
927.525	12939
927.631	12951
927.737	12764
927.843	12753
927.95	12616
928.056	12715
928.162	12692
928.267	12738
928.373	13331
928.479	12783
928.585	12597
928.69	12669
928.796	12681
928.901	12639
929.007	12483
929.112	12536
929.218	12513
929.323	12376
929.428	12483
929.533	12589
929.638	12433
929.743	12384
929.848	12452
929.953	12357
930.058	12281
930.163	12136
930.267	12095
930.372	12353
930.477	12072
930.581	12319
930.685	12194
930.79	11988
930.894	12022
930.998	12030
931.103	12076
931.207	11752
931.311	11699
931.415	11657
931.519	11353
931.623	11337
