Data from test_V78500241_482.txt Node
Date: Fri Mar 25 15:45:08 CST 2022
User: usil
Spectrometer: V785-0024
Trigger mode: 0
Integration Time (sec): 4.000000E-1
Scans to average: 1
Nonlinearity correction enabled: false
Boxcar width: 0
Storing dark spectrum: false
XAxis mode: Wavelengths
Number of Pixels in Spectrum: 1024
>>>>>Begin Spectral Data<<<<<
801.071	27568
801.214	27454
801.356	27279
801.499	27142
801.641	27020
801.783	27024
801.926	27112
802.068	27081
802.211	26948
802.353	26902
802.496	26686
802.638	26762
802.78	26663
802.923	26613
803.065	26556
803.208	26739
803.35	26731
803.492	26758
803.635	26838
803.777	26750
803.919	26998
804.061	27127
804.204	26914
804.346	26883
804.488	26781
804.63	26781
804.773	26735
804.915	26857
805.057	27036
805.199	26819
805.341	26750
805.483	26982
805.626	26880
805.768	26743
805.91	27001
806.052	26906
806.194	26724
806.336	27096
806.478	27001
806.62	26933
806.762	27047
806.904	27389
807.046	27549
807.188	27408
807.33	27397
807.472	27321
807.614	27313
807.756	27359
807.898	27176
808.04	27142
808.182	27108
808.324	27230
808.465	27207
808.607	27420
808.749	27564
808.891	27690
809.033	27736
809.174	27701
809.316	27743
809.458	27526
809.6	27694
809.741	27774
809.883	27667
810.025	27812
810.166	27835
810.308	27831
810.45	27789
810.591	27690
810.733	27545
810.875	27515
811.016	27477
811.158	27591
811.299	27641
811.441	27747
811.582	27637
811.724	27728
811.865	27538
812.007	27663
812.148	27564
812.29	27591
812.431	27842
812.573	27880
812.714	28055
812.855	28154
812.997	28177
813.138	28314
813.279	28257
813.421	28109
813.562	27930
813.703	27865
813.845	27857
813.986	27431
814.127	27363
814.268	27218
814.41	27211
814.551	27218
814.692	27321
814.833	27199
814.974	27294
815.115	27218
815.256	27119
815.397	27013
815.539	27066
815.68	26925
815.821	27024
815.962	27032
816.103	27096
816.244	27112
816.385	26861
816.526	26815
816.666	26765
816.807	26503
816.948	26552
817.089	26617
817.23	26541
817.371	26446
817.512	26568
817.653	26522
817.793	26450
817.934	26511
818.075	26541
818.216	26720
818.356	26328
818.497	26434
818.638	26336
818.778	26313
818.919	26206
819.06	26328
819.2	26389
819.341	26488
819.481	26442
819.622	26579
819.762	26758
819.903	26788
820.043	26579
820.184	26488
820.324	26571
820.465	26724
820.605	26579
820.746	26556
820.886	26465
821.026	26629
821.167	26659
821.307	26735
821.447	26442
821.588	26473
821.728	26157
821.868	26168
822.008	25955
822.149	25940
822.289	25894
822.429	25647
822.569	25605
822.709	25723
822.849	25422
822.99	25556
823.13	25373
823.27	25335
823.41	25365
823.55	25221
823.69	25354
823.83	25304
823.97	25171
824.11	25126
824.25	25129
824.389	25091
824.529	25148
824.669	25046
824.809	25148
824.949	25213
825.089	25266
825.228	25050
825.368	24867
825.508	24916
825.648	24939
825.787	25027
825.927	24970
826.067	24848
826.206	25038
826.346	25061
826.485	25004
826.625	24833
826.765	25190
826.904	24996
827.044	24711
827.183	24753
827.323	24589
827.462	24654
827.601	24604
827.741	24677
827.88	24734
828.02	24563
828.159	24547
828.298	24563
828.437	24772
828.577	24658
828.716	24654
828.855	24597
828.994	24395
829.134	24422
829.273	24407
829.412	24300
829.551	24311
829.69	24410
829.829	24418
829.968	24460
830.107	24391
830.246	24395
830.385	24369
830.524	24342
830.663	24129
830.802	23996
830.941	24076
831.08	23965
831.219	23958
831.357	24125
831.496	24159
831.635	23942
831.774	23771
831.913	23935
832.051	23714
832.19	23691
832.329	23805
832.467	23661
832.606	23649
832.744	23558
832.883	23680
833.022	23611
833.16	23695
833.299	23699
833.437	23665
833.576	23767
833.714	23714
833.852	23733
833.991	23790
834.129	23775
834.267	23874
834.406	23657
834.544	23786
834.682	23726
834.821	23684
834.959	23733
835.097	23581
835.235	23726
835.373	23665
835.511	23558
835.65	23558
835.788	23604
835.926	23421
836.064	23410
836.202	23440
836.34	23391
836.478	23710
836.615	23512
836.753	23516
836.891	23684
837.029	23531
837.167	23429
837.305	23395
837.443	23421
837.58	23303
837.718	23326
837.856	23356
837.993	23311
838.131	23372
838.269	23147
838.406	23254
838.544	23246
838.681	22949
838.819	23041
838.956	22911
839.094	22831
839.231	22968
839.369	23044
839.506	23200
839.643	23189
839.781	22885
839.918	22908
840.055	22847
840.193	22782
840.33	22850
840.467	22778
840.604	22862
840.742	23052
840.879	22645
841.016	22713
841.153	22664
841.29	22782
841.427	22847
841.564	22778
841.701	22672
841.838	22672
841.975	22691
842.112	22740
842.249	22694
842.385	22512
842.522	22649
842.659	22523
842.796	22417
842.933	22497
843.069	22500
843.206	22497
843.343	22615
843.479	22504
843.616	22512
843.752	22310
843.889	22276
844.025	22398
844.162	22265
844.298	22322
844.435	22295
844.571	22253
844.708	22363
844.844	22371
844.98	22413
845.117	22375
845.253	22329
845.389	22219
845.525	22207
845.661	22109
845.798	21968
845.934	22090
846.07	22048
846.206	22078
846.342	22196
846.478	21949
846.614	21907
846.75	21694
846.886	21709
847.022	21880
847.158	21816
847.294	21751
847.429	21865
847.565	21694
847.701	21934
847.837	21397
847.972	21568
848.108	21485
848.244	21477
848.379	21443
848.515	21321
848.65	21199
848.786	21488
848.921	21332
849.057	21504
849.192	21515
849.328	21439
849.463	21207
849.598	21294
849.734	21211
849.869	21188
850.004	21142
850.14	21173
850.275	21161
850.41	21001
850.545	21062
850.68	20933
850.815	21062
850.95	21005
851.085	21207
851.22	21249
851.355	21036
851.49	21096
851.625	21005
851.76	21157
851.895	21146
852.03	21066
852.165	21195
852.299	21184
852.434	21245
852.569	21108
852.703	20944
852.838	21195
852.973	21131
853.107	21173
853.242	21043
853.376	20952
853.511	20788
853.645	20849
853.78	21017
853.914	21077
854.048	20952
854.183	20914
854.317	21051
854.451	21104
854.585	20982
854.72	20830
854.854	21100
854.988	20963
855.122	20937
855.256	20857
855.39	20788
855.524	20872
855.658	20891
855.792	20826
855.926	21005
856.06	20952
856.194	21024
856.327	20902
856.461	20769
856.595	20861
856.729	20883
856.862	21104
856.996	20994
857.13	21116
857.263	20948
857.397	20998
857.53	20982
857.664	20956
857.797	20876
857.931	21058
858.064	20876
858.197	21058
858.331	20944
858.464	20952
858.597	20701
858.731	20807
858.864	20842
858.997	20872
859.13	21009
859.263	21013
859.396	21020
859.529	20785
859.662	20979
859.795	20762
859.928	20990
860.061	21077
860.194	21058
860.327	20998
860.46	20994
860.592	21058
860.725	21032
860.858	20941
860.99	20895
861.123	20845
861.256	20929
861.388	20921
861.521	21564
861.653	20811
861.786	20720
861.918	20845
862.05	20697
862.183	20769
862.315	20811
862.447	20918
862.58	20815
862.712	20697
862.844	20598
862.976	20613
863.108	20739
863.24	21055
863.372	20560
863.504	20609
863.636	20560
863.768	20651
863.9	20644
864.032	20579
864.164	20667
864.296	20720
864.428	20769
864.559	20667
864.691	20598
864.823	20705
864.954	20526
865.086	20583
865.217	20549
865.349	20385
865.48	20590
865.612	20533
865.743	20629
865.875	20674
866.006	20362
866.137	20625
866.269	20427
866.4	20434
866.531	20469
866.662	20552
866.793	20533
866.924	20488
867.055	20556
867.186	20438
867.317	20404
867.448	20313
867.579	20400
867.71	20343
867.841	20495
867.972	20461
868.103	20488
868.233	20488
868.364	20393
868.495	20560
868.625	20674
868.756	20788
868.886	20564
869.017	20762
869.147	20792
869.278	20864
869.408	20785
869.539	20724
869.669	20773
869.799	20712
869.929	20811
870.06	20819
870.19	20963
870.32	20986
870.45	21093
870.58	21165
870.71	21154
870.84	21184
870.97	21013
871.1	21047
871.23	21279
871.36	21245
871.489	21249
871.619	21329
871.749	21393
871.879	21294
872.008	21370
872.138	21291
872.267	21260
872.397	21055
872.526	21077
872.656	21173
872.785	21203
872.915	21367
873.044	21351
873.173	21355
873.303	21355
873.432	21458
873.561	21439
873.69	21397
873.819	21241
873.948	21416
874.077	21340
874.206	21294
874.335	21424
874.464	21325
874.593	21572
874.722	21458
874.851	21587
874.979	21644
875.108	21656
875.237	21576
875.365	21450
875.494	21454
875.623	21686
875.751	21485
875.88	21553
876.008	21720
876.136	21846
876.265	22006
876.393	22147
876.521	22082
876.65	22021
876.778	21895
876.906	21934
877.034	21812
877.162	21979
877.29	21797
877.418	21884
877.546	22010
877.674	21991
877.802	21979
877.93	21838
878.058	21819
878.185	21724
878.313	21873
878.441	22040
878.568	21686
878.696	21880
878.824	21949
878.951	22059
879.079	22196
879.206	22162
879.333	22204
879.461	21975
879.588	22150
879.715	22029
879.842	22166
879.97	22006
880.097	21618
880.224	21808
880.351	21774
880.478	21831
880.605	21728
880.732	21614
880.859	21846
880.986	21781
881.112	21903
881.239	21648
881.366	21545
881.493	21370
881.619	21252
881.746	21374
881.872	21313
881.999	21344
882.125	21203
882.252	21291
882.378	21302
882.505	21420
882.631	21169
882.757	21096
882.883	21100
883.01	21032
883.136	20914
883.262	20960
883.388	20842
883.514	21062
883.64	21066
883.766	20853
883.892	20887
884.018	20857
884.143	20948
884.269	21116
884.395	20819
884.52	20648
884.646	20678
884.772	20659
884.897	20552
885.023	20682
885.148	20712
885.274	20769
885.399	20861
885.524	20659
885.65	20651
885.775	20655
885.9	20587
886.025	20716
886.15	20758
886.275	20716
886.4	20746
886.525	20602
886.65	20602
886.775	20492
886.9	20830
887.025	20937
887.149	20648
887.274	20461
887.399	20347
887.523	20526
887.648	20358
887.773	20431
887.897	20533
888.021	20571
888.146	20404
888.27	20473
888.395	20454
888.519	20476
888.643	20522
888.767	20621
888.891	20278
889.015	20240
889.139	20259
889.263	20202
889.387	20499
889.511	20507
889.635	20305
889.759	20221
889.883	20282
890.006	20248
890.13	20221
890.254	20256
890.377	20233
890.501	19883
890.624	19989
890.748	20027
890.871	20016
890.995	19742
891.118	19693
891.241	19932
891.364	19822
891.488	19913
891.611	19906
891.734	19830
891.857	19856
891.98	19822
892.103	19928
892.226	19849
892.349	19841
892.471	19651
892.594	19731
892.717	19738
892.839	19826
892.962	19814
893.085	19731
893.207	19704
893.33	19586
893.452	19582
893.575	19849
893.697	19655
893.819	19830
893.941	19913
894.064	19833
894.186	19647
894.308	19689
894.43	19780
894.552	19818
894.674	19788
894.796	19670
894.918	19769
895.04	19757
895.161	19822
895.283	19761
895.405	19723
895.526	19700
895.648	19738
895.769	19864
895.891	19746
896.012	19841
896.134	19826
896.255	19723
896.376	19765
896.498	19757
896.619	19769
896.74	19719
896.861	19833
896.982	20035
897.103	20259
897.224	20035
897.345	20016
897.466	19890
897.587	19970
897.708	20039
897.828	19993
897.949	19936
898.07	19776
898.19	19803
898.311	20050
898.431	19849
898.552	19951
898.672	20012
898.792	19967
898.913	19989
899.033	19837
899.153	19742
899.273	19655
899.393	19655
899.513	19849
899.633	19666
899.753	19822
899.873	19681
899.993	19704
900.113	19814
900.232	19563
900.352	19666
900.472	19613
900.591	19510
900.711	19460
900.83	19525
900.95	19624
901.069	19655
901.189	19434
901.308	19065
901.427	19164
901.546	19069
901.665	19175
901.784	19209
901.904	18966
902.023	18882
902.141	18753
902.26	18650
902.379	18749
902.498	18711
902.617	18700
902.735	18658
902.854	18665
902.973	18521
903.091	18452
903.21	18281
903.328	18254
903.446	18220
903.565	18213
903.683	18152
903.801	17984
903.919	18068
904.038	18068
904.156	17878
904.274	17961
904.392	17874
904.51	17859
904.627	17920
904.745	17935
904.863	17927
904.981	17760
905.098	17623
905.216	17585
905.334	17493
905.451	17608
905.569	17543
905.686	17524
905.803	17509
905.921	17414
906.038	17383
906.155	17372
906.272	17349
906.389	17231
906.506	17147
906.623	17155
906.74	17102
906.857	16984
906.974	16938
907.091	17109
907.208	17220
907.324	17185
907.441	17048
907.557	16793
907.674	16713
907.79	16691
907.907	16809
908.023	16877
908.139	16759
908.256	16641
908.372	16691
908.488	16653
908.604	16611
908.72	16596
908.836	16580
908.952	16565
909.068	16592
909.184	16550
909.3	16493
909.415	16554
909.531	16519
909.647	16333
909.762	16257
909.878	16166
909.993	16181
910.108	16173
910.224	16063
910.339	16204
910.454	16032
910.57	16055
910.685	15975
910.8	16242
910.915	16238
911.03	16055
911.145	15819
911.259	15793
911.374	15934
911.489	15736
911.604	15732
911.718	15431
911.833	15584
911.947	15595
912.062	15405
912.176	15591
912.291	15557
912.405	15614
912.519	15816
912.633	15812
912.748	15534
912.862	15568
912.976	15416
913.09	15325
913.204	15329
913.318	15279
913.431	15473
913.545	15469
913.659	15488
913.772	15340
913.886	15275
914	15127
914.113	15222
914.226	15268
914.34	15313
914.453	15093
914.566	15184
914.68	15066
914.793	15051
914.906	14929
915.019	14754
915.132	14781
915.245	14735
915.358	14933
915.47	14830
915.583	14800
915.696	14876
915.809	14990
915.921	14918
916.034	14716
916.146	14708
916.259	14693
916.371	14857
916.483	14800
916.595	14617
916.708	14651
916.82	14648
916.932	14655
917.044	14556
917.156	14636
917.268	14450
917.38	14381
917.491	14514
917.603	14514
917.715	14518
917.826	14549
917.938	14473
918.049	14385
918.161	14480
918.272	14583
918.384	14617
918.495	14358
918.606	14305
918.717	14206
918.828	14317
918.939	14275
919.05	14221
919.161	14244
919.272	14107
919.383	14077
919.494	14317
919.604	14450
919.715	14271
919.826	14183
919.936	14142
920.047	14210
920.157	14259
920.267	14415
920.378	14244
920.488	14164
920.598	14499
920.708	14606
920.818	14408
920.928	14374
921.038	14530
921.148	14575
921.258	14191
921.368	14100
921.477	14054
921.587	14077
921.697	13845
921.806	13997
921.916	13860
922.025	13616
922.134	13803
922.244	13521
922.353	13647
922.462	13658
922.571	13449
922.68	13362
922.789	13270
922.898	13308
923.007	13259
923.116	13422
923.224	13327
923.333	13244
923.442	13232
923.55	13141
923.659	13122
923.767	13187
923.876	13088
923.984	13187
924.092	13141
924.201	13065
924.309	13038
924.417	13069
924.525	12966
924.633	12920
924.741	13719
924.849	12745
924.956	12909
925.064	12734
925.172	12757
925.279	12730
925.387	12768
925.494	12662
925.602	12856
925.709	12662
925.816	12593
925.924	12753
926.031	12776
926.138	12639
926.245	12639
926.352	12582
926.459	12703
926.566	12817
926.673	12646
926.779	12464
926.886	12448
926.993	12403
927.099	12254
927.206	12273
927.312	12262
927.419	12357
927.525	12270
927.631	12296
927.737	12285
927.843	12144
927.95	11992
928.056	12091
928.162	12163
928.267	12216
928.373	12806
928.479	12235
928.585	11973
928.69	12060
928.796	12091
928.901	11984
929.007	11920
929.112	11950
929.218	12019
929.323	11965
929.428	11828
929.533	11988
929.638	11779
929.743	11897
929.848	11882
929.953	11752
930.058	11741
930.163	11501
930.267	11532
930.372	11699
930.477	11581
930.581	11745
930.685	11581
930.79	11539
930.894	11493
930.998	11474
931.103	11558
931.207	11216
931.311	11109
931.415	11010
931.519	10847
931.623	10809
