Data from test_V78500241_756.txt Node
Date: Fri Mar 25 15:47:02 CST 2022
User: usil
Spectrometer: V785-0024
Trigger mode: 0
Integration Time (sec): 4.000000E-1
Scans to average: 1
Nonlinearity correction enabled: false
Boxcar width: 0
Storing dark spectrum: false
XAxis mode: Wavelengths
Number of Pixels in Spectrum: 1024
>>>>>Begin Spectral Data<<<<<
801.071	28105
801.214	27972
801.356	27675
801.499	27755
801.641	27572
801.783	27557
801.926	27705
802.068	27572
802.211	27412
802.353	27576
802.496	27351
802.638	27268
802.78	27230
802.923	27169
803.065	27157
803.208	27317
803.35	27294
803.492	27447
803.635	27340
803.777	27291
803.919	27500
804.061	27797
804.204	27473
804.346	27488
804.488	27473
804.63	27439
804.773	27408
804.915	27572
805.057	27523
805.199	27675
805.341	27652
805.483	27603
805.626	27507
805.768	27447
805.91	27530
806.052	27549
806.194	27443
806.336	27705
806.478	27648
806.62	27564
806.762	27576
806.904	27914
807.046	28188
807.188	28025
807.33	27918
807.472	28112
807.614	27960
807.756	27911
807.898	27907
808.04	27884
808.182	27850
808.324	27861
808.465	27831
808.607	28112
808.749	28219
808.891	28253
809.033	28428
809.174	28284
809.316	28162
809.458	28303
809.6	28280
809.741	28470
809.883	28375
810.025	28637
810.166	28519
810.308	28508
810.45	28485
810.591	28432
810.733	28386
810.875	28280
811.016	28177
811.158	28109
811.299	28382
811.441	28440
811.582	28531
811.724	28363
811.865	28242
812.007	28188
812.148	28287
812.29	28329
812.431	28356
812.573	28588
812.714	28740
812.855	28725
812.997	28946
813.138	28965
813.279	28946
813.421	28942
813.562	28778
813.703	28550
813.845	28523
813.986	28200
814.127	28032
814.268	27968
814.41	28021
814.551	27903
814.692	28097
814.833	27975
814.974	27835
815.115	28006
815.256	27861
815.397	27922
815.539	27762
815.68	27755
815.821	27835
815.962	27652
816.103	27667
816.244	27675
816.385	27576
816.526	27534
816.666	27496
816.807	27150
816.948	27275
817.089	27439
817.23	27317
817.371	27272
817.512	27252
817.653	27203
817.793	27214
817.934	27241
818.075	27241
818.216	27165
818.356	27203
818.497	27085
818.638	26960
818.778	27039
818.919	27142
819.06	27009
819.2	27142
819.341	27119
819.481	27256
819.622	27382
819.762	27603
819.903	27534
820.043	27321
820.184	27408
820.324	27355
820.465	27329
820.605	27378
820.746	27412
820.886	27230
821.026	27329
821.167	27382
821.307	27420
821.447	27393
821.588	27245
821.728	27131
821.868	26857
822.008	26758
822.149	26769
822.289	26598
822.429	26499
822.569	26393
822.709	26503
822.849	26278
822.99	26180
823.13	26210
823.27	26176
823.41	26046
823.55	25883
823.69	25993
823.83	26031
823.97	25970
824.11	25894
824.25	25871
824.389	25925
824.529	25833
824.669	25944
824.809	26069
824.949	25997
825.089	25803
825.228	25883
825.368	25769
825.508	25670
825.648	25616
825.787	25723
825.927	25803
826.067	25738
826.206	25708
826.346	25734
826.485	25769
826.625	25753
826.765	25890
826.904	25845
827.044	25525
827.183	25514
827.323	25506
827.462	25594
827.601	25521
827.741	25457
827.88	25411
828.02	25460
828.159	25415
828.298	25544
828.437	25483
828.577	25487
828.716	25362
828.855	25358
828.994	25263
829.134	25126
829.273	25213
829.412	25202
829.551	25084
829.69	25046
829.829	25225
829.968	25331
830.107	25247
830.246	25168
830.385	25133
830.524	25141
830.663	24989
830.802	24935
830.941	24772
831.08	24631
831.219	24829
831.357	24867
831.496	24825
831.635	24715
831.774	24601
831.913	24585
832.051	24578
832.19	24566
832.329	24585
832.467	24467
832.606	24334
832.744	24407
832.883	24460
833.022	24376
833.16	24327
833.299	24475
833.437	24490
833.576	24559
833.714	24441
833.852	24551
833.991	24658
834.129	24696
834.267	24589
834.406	24403
834.544	24475
834.682	24467
834.821	24475
834.959	24688
835.097	24475
835.235	24441
835.373	24342
835.511	24479
835.65	24384
835.788	24361
835.926	24167
836.064	24174
836.202	24304
836.34	24365
836.478	24391
836.615	24292
836.753	24380
836.891	24445
837.029	24300
837.167	24399
837.305	24159
837.443	24194
837.58	24155
837.718	24369
837.856	24213
837.993	24148
838.131	24129
838.269	24041
838.406	24026
838.544	23961
838.681	23859
838.819	23718
838.956	23665
839.094	23783
839.231	23630
839.369	23958
839.506	23882
839.643	23927
839.781	23611
839.918	23585
840.055	23638
840.193	23570
840.33	23585
840.467	23524
840.604	23592
840.742	23836
840.879	23497
841.016	23528
841.153	23349
841.29	23486
841.427	23486
841.564	23623
841.701	23611
841.838	23482
841.975	23417
842.112	23433
842.249	23376
842.385	23258
842.522	23615
842.659	23383
842.796	23303
842.933	23208
843.069	23231
843.206	23200
843.343	23402
843.479	23395
843.616	23280
843.752	23094
843.889	22965
844.025	23189
844.162	23029
844.298	23216
844.435	23143
844.571	22999
844.708	23105
844.844	23166
844.98	23227
845.117	23155
845.253	23086
845.389	22984
845.525	22892
845.661	22957
845.798	22771
845.934	22850
846.07	22687
846.206	22713
846.342	22786
846.478	22869
846.614	22493
846.75	22459
846.886	22599
847.022	22573
847.158	22462
847.294	22588
847.429	22538
847.565	22451
847.701	22653
847.837	22055
847.972	22185
848.108	22322
848.244	22306
848.379	22112
848.515	22162
848.65	22131
848.786	22124
848.921	22109
849.057	22207
849.192	22280
849.328	22135
849.463	22063
849.598	22139
849.734	22010
849.869	21953
850.004	21850
850.14	21941
850.275	21850
850.41	21705
850.545	21797
850.68	21800
850.815	21774
850.95	21953
851.085	22032
851.22	22055
851.355	21869
851.49	21926
851.625	21774
851.76	21850
851.895	21865
852.03	21808
852.165	21861
852.299	21835
852.434	21975
852.569	21709
852.703	21895
852.838	21926
852.973	21991
853.107	21930
853.242	21800
853.376	21648
853.511	21523
853.645	21663
853.78	21800
853.914	21625
854.048	21641
854.183	21652
854.317	21880
854.451	21907
854.585	21690
854.72	21717
854.854	21911
854.988	21755
855.122	21694
855.256	21637
855.39	21629
855.524	21717
855.658	21755
855.792	21717
855.926	21800
856.06	21770
856.194	21762
856.327	21644
856.461	21656
856.595	21614
856.729	21583
856.862	21812
856.996	21641
857.13	21755
857.263	21850
857.397	21838
857.53	21736
857.664	21694
857.797	21679
857.931	21827
858.064	21709
858.197	21781
858.331	21728
858.464	21656
858.597	21519
858.731	21614
858.864	21667
858.997	21686
859.13	21747
859.263	21709
859.396	21842
859.529	21492
859.662	21660
859.795	21526
859.928	21682
860.061	21827
860.194	21892
860.327	21694
860.46	21747
860.592	21903
860.725	21903
860.858	21785
860.99	21762
861.123	21663
861.256	21591
861.388	21667
861.521	22314
861.653	21580
861.786	21420
861.918	21557
862.05	21603
862.183	21637
862.315	21667
862.447	21679
862.58	21469
862.712	21302
862.844	21462
862.976	21519
863.108	21545
863.24	21915
863.372	21332
863.504	21291
863.636	21332
863.768	21374
863.9	21302
864.032	21340
864.164	21382
864.296	21393
864.428	21492
864.559	21485
864.691	21325
864.823	21382
864.954	21412
865.086	21313
865.217	21291
865.349	21382
865.48	21226
865.612	21298
865.743	21416
865.875	21389
866.006	21138
866.137	21397
866.269	21359
866.4	21150
866.531	21249
866.662	21188
866.793	21188
866.924	21188
867.055	21199
867.186	21275
867.317	21081
867.448	21123
867.579	21252
867.71	21188
867.841	21157
867.972	21218
868.103	21233
868.233	21233
868.364	21237
868.495	21294
868.625	21500
868.756	21568
868.886	21488
869.017	21443
869.147	21488
869.278	21526
869.408	21344
869.539	21481
869.669	21576
869.799	21435
869.929	21652
870.06	21606
870.19	21755
870.32	21766
870.45	21838
870.58	21827
870.71	21888
870.84	21895
870.97	21755
871.1	21880
871.23	22067
871.36	22078
871.489	21903
871.619	22013
871.749	22048
871.879	22158
872.008	22173
872.138	21975
872.267	22109
872.397	21892
872.526	21880
872.656	21865
872.785	21907
872.915	22112
873.044	22044
873.173	22006
873.303	22128
873.432	22074
873.561	22158
873.69	22105
873.819	22150
873.948	22074
874.077	22154
874.206	21994
874.335	22154
874.464	22188
874.593	22356
874.722	22276
874.851	22284
874.979	22322
875.108	22249
875.237	22295
875.365	22306
875.494	22238
875.623	22344
875.751	22379
875.88	22284
876.008	22405
876.136	22451
876.265	22694
876.393	22717
876.521	22729
876.65	22835
876.778	22793
876.906	22736
877.034	22618
877.162	22577
877.29	22588
877.418	22778
877.546	22588
877.674	22596
877.802	22538
877.93	22622
878.058	22694
878.185	22474
878.313	22733
878.441	22569
878.568	22504
878.696	22618
878.824	22744
878.951	22691
879.079	22915
879.206	23006
879.333	22828
879.461	22679
879.588	22786
879.715	22752
879.842	22908
879.97	22771
880.097	22485
880.224	22447
880.351	22497
880.478	22531
880.605	22466
880.732	22508
880.859	22580
880.986	22523
881.112	22405
881.239	22329
881.366	22166
881.493	22128
881.619	22082
881.746	22048
881.872	22002
881.999	22010
882.125	22006
882.252	22067
882.378	22124
882.505	22116
882.631	21846
882.757	21671
882.883	21759
883.01	21797
883.136	21622
883.262	21686
883.388	21515
883.514	21766
883.64	21812
883.766	21633
883.892	21576
884.018	21576
884.143	21591
884.269	21778
884.395	21488
884.52	21454
884.646	21386
884.772	21306
884.897	21283
885.023	21325
885.148	21450
885.274	21511
885.399	21458
885.524	21405
885.65	21355
885.775	21298
885.9	21332
886.025	21401
886.15	21431
886.275	21386
886.4	21199
886.525	21348
886.65	21195
886.775	21363
886.9	21488
887.025	21618
887.149	21310
887.274	21264
887.399	21157
887.523	21013
887.648	21051
887.773	21001
887.897	21169
888.021	21176
888.146	21104
888.27	21237
888.395	21291
888.519	21268
888.643	21157
888.767	21207
888.891	20948
889.015	20956
889.139	21058
889.263	20948
889.387	20929
889.511	21020
889.635	20990
889.759	20834
889.883	20963
890.006	20921
890.13	21043
890.254	20895
890.377	20769
890.501	20727
890.624	20632
890.748	20819
890.871	20568
890.995	20469
891.118	20381
891.241	20408
891.364	20541
891.488	20617
891.611	20533
891.734	20537
891.857	20606
891.98	20507
892.103	20556
892.226	20579
892.349	20454
892.471	20404
892.594	20370
892.717	20408
892.839	20438
892.962	20400
893.085	20522
893.207	20404
893.33	20275
893.452	20290
893.575	20454
893.697	20400
893.819	20480
893.941	20686
894.064	20457
894.186	20282
894.308	20263
894.43	20492
894.552	20556
894.674	20518
894.796	20358
894.918	20412
895.04	20271
895.161	20438
895.283	20366
895.405	20324
895.526	20332
895.648	20427
895.769	20339
895.891	20385
896.012	20454
896.134	20560
896.255	20446
896.376	20355
896.498	20408
896.619	20499
896.74	20427
896.861	20358
896.982	20659
897.103	20826
897.224	20724
897.345	20590
897.466	20583
897.587	20743
897.708	20682
897.828	20655
897.949	20419
898.07	20431
898.19	20499
898.311	20701
898.431	20594
898.552	20590
898.672	20533
898.792	20651
898.913	20682
899.033	20583
899.153	20434
899.273	20237
899.393	20336
899.513	20537
899.633	20381
899.753	20358
899.873	20298
899.993	20366
900.113	20256
900.232	20259
900.352	20237
900.472	20168
900.591	20043
900.711	20252
900.83	20012
900.95	20301
901.069	20263
901.189	20100
901.308	19928
901.427	19799
901.546	19700
901.665	19784
901.784	19731
901.904	19582
902.023	19445
902.141	19293
902.26	19171
902.379	19259
902.498	19171
902.617	19137
902.735	19145
902.854	19194
902.973	19118
903.091	18810
903.21	18894
903.328	18916
903.446	18745
903.565	18684
903.683	18726
903.801	18585
903.919	18654
904.038	18684
904.156	18422
904.274	18490
904.392	18441
904.51	18395
904.627	18422
904.745	18437
904.863	18506
904.981	18296
905.098	18167
905.216	18098
905.334	18178
905.451	18129
905.569	18114
905.686	18174
905.803	18117
905.921	17923
906.038	17999
906.155	17912
906.272	17843
906.389	17817
906.506	17672
906.623	17733
906.74	17634
906.857	17554
906.974	17558
907.091	17649
907.208	17859
907.324	17642
907.441	17600
907.557	17448
907.674	17364
907.79	17322
907.907	17261
908.023	17478
908.139	17345
908.256	17341
908.372	17178
908.488	17227
908.604	17132
908.72	17056
908.836	17098
908.952	17075
909.068	17181
909.184	17200
909.3	17075
909.415	17197
909.531	16972
909.647	16839
909.762	16786
909.878	16778
909.993	16767
910.108	16744
910.224	16713
910.339	16771
910.454	16755
910.57	16523
910.685	16489
910.8	16820
910.915	16778
911.03	16615
911.145	16341
911.259	16356
911.374	16432
911.489	16314
911.604	16223
911.718	16040
911.833	16169
911.947	16105
912.062	15979
912.176	16124
912.291	16181
912.405	16173
912.519	16405
912.633	16215
912.748	16188
912.862	16143
912.976	15934
913.09	15823
913.204	15808
913.318	15979
913.431	15987
913.545	15979
913.659	16013
913.772	15873
913.886	15743
914	15785
914.113	15766
914.226	15774
914.34	15743
914.453	15492
914.566	15724
914.68	15568
914.793	15606
914.906	15386
915.019	15336
915.132	15245
915.245	15332
915.358	15363
915.47	15405
915.583	15310
915.696	15302
915.809	15435
915.921	15393
916.034	15291
916.146	15222
916.259	15214
916.371	15279
916.483	15203
916.595	15150
916.708	15131
916.82	15256
916.932	15058
917.044	15150
917.156	15058
917.268	14933
917.38	14975
917.491	14982
917.603	15066
917.715	14990
917.826	15020
917.938	14880
918.049	14777
918.161	14967
918.272	15028
918.384	15135
918.495	14834
918.606	14830
918.717	14629
918.828	14796
918.939	14876
919.05	14781
919.161	14667
919.272	14552
919.383	14621
919.494	14826
919.604	14815
919.715	14750
919.826	14514
919.936	14716
920.047	14815
920.157	14651
920.267	14853
920.378	14678
920.488	14610
920.598	14804
920.708	15028
920.818	14891
920.928	14769
921.038	15001
921.148	14952
921.258	14629
921.368	14533
921.477	14374
921.587	14461
921.697	14419
921.806	14434
921.916	14301
922.025	14081
922.134	14142
922.244	13967
922.353	14088
922.462	13913
922.571	13879
922.68	13818
922.789	13753
922.898	13753
923.007	13681
923.116	13696
923.224	13674
923.333	13655
923.442	13537
923.55	13567
923.659	13537
923.767	13620
923.876	13483
923.984	13613
924.092	13426
924.201	13388
924.309	13415
924.417	13422
924.525	13373
924.633	13331
924.741	14195
924.849	13228
924.956	13301
925.064	13187
925.172	13046
925.279	13095
925.387	13110
925.494	13133
925.602	13164
925.709	13141
925.816	13053
925.924	13072
926.031	13156
926.138	13046
926.245	13057
926.352	13004
926.459	13012
926.566	13149
926.673	12913
926.779	12863
926.886	12856
926.993	12696
927.099	12681
927.206	12623
927.312	12547
927.419	12700
927.525	12677
927.631	12726
927.737	12479
927.843	12593
927.95	12483
928.056	12536
928.162	12540
928.267	12471
928.373	13072
928.479	12578
928.585	12220
928.69	12365
928.796	12486
928.901	12456
929.007	12194
929.112	12334
929.218	12361
929.323	12201
929.428	12197
929.533	12353
929.638	12228
929.743	12197
929.848	12235
929.953	12167
930.058	12095
930.163	11901
930.267	11923
930.372	11973
930.477	11817
930.581	12091
930.685	11828
930.79	11798
930.894	11836
930.998	11874
931.103	11901
931.207	11539
931.311	11425
931.415	11383
931.519	11273
931.623	11185
