Data from test_V78500241_552.txt Node
Date: Fri Mar 25 15:45:37 CST 2022
User: usil
Spectrometer: V785-0024
Trigger mode: 0
Integration Time (sec): 4.000000E-1
Scans to average: 1
Nonlinearity correction enabled: false
Boxcar width: 0
Storing dark spectrum: false
XAxis mode: Wavelengths
Number of Pixels in Spectrum: 1024
>>>>>Begin Spectral Data<<<<<
801.071	27492
801.214	27412
801.356	27268
801.499	27024
801.641	26963
801.783	27009
801.926	27055
802.068	26857
802.211	26845
802.353	26781
802.496	26568
802.638	26575
802.78	26389
802.923	26526
803.065	26473
803.208	26552
803.35	26480
803.492	26632
803.635	26758
803.777	26678
803.919	26632
804.061	26982
804.204	26807
804.346	26807
804.488	26621
804.63	26788
804.773	26571
804.915	26743
805.057	26940
805.199	26701
805.341	26853
805.483	26788
805.626	26788
805.768	26579
805.91	26758
806.052	26849
806.194	26826
806.336	27096
806.478	26876
806.62	26842
806.762	26921
806.904	27142
807.046	27294
807.188	27245
807.33	27329
807.472	27317
807.614	27199
807.756	27161
807.898	27222
808.04	27184
808.182	27100
808.324	27188
808.465	27093
808.607	27256
808.749	27511
808.891	27477
809.033	27530
809.174	27530
809.316	27557
809.458	27481
809.6	27386
809.741	27557
809.883	27576
810.025	27705
810.166	27770
810.308	27682
810.45	27701
810.591	27717
810.733	27507
810.875	27500
811.016	27408
811.158	27450
811.299	27633
811.441	27507
811.582	27511
811.724	27443
811.865	27439
812.007	27412
812.148	27435
812.29	27466
812.431	27561
812.573	27728
812.714	27968
812.855	28101
812.997	28078
813.138	28143
813.279	28154
813.421	28135
813.562	27895
813.703	27850
813.845	27694
813.986	27321
814.127	27218
814.268	27332
814.41	27233
814.551	27169
814.692	27017
814.833	27032
814.974	27058
815.115	27093
815.256	26979
815.397	27013
815.539	26921
815.68	27036
815.821	26758
815.962	26956
816.103	26880
816.244	26777
816.385	26636
816.526	26697
816.666	26587
816.807	26450
816.948	26408
817.089	26727
817.23	26457
817.371	26423
817.512	26366
817.653	26442
817.793	26351
817.934	26492
818.075	26339
818.216	26431
818.356	26221
818.497	26225
818.638	26122
818.778	26172
818.919	26039
819.06	26180
819.2	26172
819.341	26374
819.481	26240
819.622	26545
819.762	26762
819.903	26667
820.043	26743
820.184	26370
820.324	26514
820.465	26629
820.605	26556
820.746	26484
820.886	26294
821.026	26404
821.167	26476
821.307	26473
821.447	26362
821.588	26317
821.728	26176
821.868	26008
822.008	25837
822.149	25849
822.289	25811
822.429	25616
822.569	25586
822.709	25548
822.849	25373
822.99	25407
823.13	25339
823.27	25274
823.41	25042
823.55	25110
823.69	25244
823.83	25179
823.97	25099
824.11	24916
824.25	25012
824.389	24905
824.529	25152
824.669	24928
824.809	25095
824.949	25091
825.089	25137
825.228	25110
825.368	24745
825.508	24844
825.648	24795
825.787	24913
825.927	24894
826.067	24852
826.206	24837
826.346	24810
826.485	24840
826.625	24791
826.765	24920
826.904	24837
827.044	24711
827.183	24593
827.323	24372
827.462	24722
827.601	24578
827.741	24441
827.88	24601
828.02	24528
828.159	24601
828.298	24578
828.437	24597
828.577	24433
828.716	24608
828.855	24479
828.994	24235
829.134	24319
829.273	24437
829.412	24136
829.551	24315
829.69	24300
829.829	24365
829.968	24365
830.107	24414
830.246	24117
830.385	24152
830.524	24144
830.663	24110
830.802	24057
830.941	23908
831.08	23843
831.219	23935
831.357	24022
831.496	24022
831.635	23813
831.774	23821
831.913	23760
832.051	23577
832.19	23592
832.329	23630
832.467	23474
832.606	23531
832.744	23528
832.883	23505
833.022	23391
833.16	23547
833.299	23699
833.437	23562
833.576	23581
833.714	23695
833.852	23585
833.991	23699
834.129	23798
834.267	23524
834.406	23566
834.544	23539
834.682	23634
834.821	23516
834.959	23649
835.097	23627
835.235	23668
835.373	23524
835.511	23592
835.65	23482
835.788	23528
835.926	23227
836.064	23337
836.202	23269
836.34	23395
836.478	23429
836.615	23349
836.753	23444
836.891	23467
837.029	23531
837.167	23414
837.305	23410
837.443	23349
837.58	23265
837.718	23315
837.856	23227
837.993	23208
838.131	23326
838.269	23170
838.406	23136
838.544	23128
838.681	22900
838.819	22965
838.956	22763
839.094	22679
839.231	22885
839.369	22866
839.506	23250
839.643	23022
839.781	22733
839.918	22668
840.055	22759
840.193	22729
840.33	22634
840.467	22748
840.604	22630
840.742	23071
840.879	22645
841.016	22607
841.153	22618
841.29	22736
841.427	22675
841.564	22824
841.701	22683
841.838	22523
841.975	22497
842.112	22580
842.249	22489
842.385	22447
842.522	22668
842.659	22379
842.796	22344
842.933	22382
843.069	22325
843.206	22367
843.343	22497
843.479	22382
843.616	22519
843.752	22318
843.889	22211
844.025	22249
844.162	22143
844.298	22147
844.435	22234
844.571	22139
844.708	22253
844.844	22348
844.98	22318
845.117	22226
845.253	22086
845.389	22147
845.525	22055
845.661	21975
845.798	21854
845.934	22055
846.07	21895
846.206	21873
846.342	22013
846.478	21964
846.614	21595
846.75	21564
846.886	21656
847.022	21637
847.158	21690
847.294	21625
847.429	21800
847.565	21576
847.701	22078
847.837	21336
847.972	21378
848.108	21454
848.244	21443
848.379	21386
848.515	21230
848.65	21237
848.786	21340
848.921	21222
849.057	21378
849.192	21370
849.328	21230
849.463	21268
849.598	21188
849.734	21036
849.869	21077
850.004	21192
850.14	21119
850.275	21131
850.41	20880
850.545	21024
850.68	21089
850.815	21062
850.95	20960
851.085	21203
851.22	21089
851.355	21043
851.49	20979
851.625	20975
851.76	20979
851.895	20921
852.03	20937
852.165	20868
852.299	21066
852.434	21157
852.569	21070
852.703	21005
852.838	20982
852.973	21138
853.107	21085
853.242	20902
853.376	20918
853.511	20667
853.645	20727
853.78	20963
853.914	20807
854.048	20743
854.183	20864
854.317	21009
854.451	21020
854.585	20864
854.72	20910
854.854	20925
854.988	20663
855.122	20853
855.256	20754
855.39	20792
855.524	20941
855.658	20883
855.792	20769
855.926	20910
856.06	20815
856.194	20998
856.327	20811
856.461	20876
856.595	20788
856.729	20750
856.862	20994
856.996	20804
857.13	20868
857.263	20857
857.397	20921
857.53	20811
857.664	20834
857.797	20937
857.931	20948
858.064	20868
858.197	20937
858.331	20861
858.464	20857
858.597	20823
858.731	20830
858.864	20769
858.997	20853
859.13	20777
859.263	20830
859.396	20891
859.529	20788
859.662	20838
859.795	20769
859.928	20788
860.061	20937
860.194	21055
860.327	20849
860.46	20902
860.592	20887
860.725	21001
860.858	21024
860.99	20792
861.123	20777
861.256	20861
861.388	20864
861.521	21332
861.653	20765
861.786	20716
861.918	20651
862.05	20663
862.183	20674
862.315	20689
862.447	20902
862.58	20670
862.712	20545
862.844	20587
862.976	20716
863.108	20693
863.24	21047
863.372	20446
863.504	20518
863.636	20560
863.768	20590
863.9	20587
864.032	20400
864.164	20632
864.296	20492
864.428	20598
864.559	20590
864.691	20613
864.823	20549
864.954	20499
865.086	20484
865.217	20461
865.349	20305
865.48	20404
865.612	20385
865.743	20625
865.875	20427
866.006	20412
866.137	20415
866.269	20476
866.4	20476
866.531	20404
866.662	20366
866.793	20377
866.924	20358
867.055	20427
867.186	20324
867.317	20381
867.448	20347
867.579	20358
867.71	20298
867.841	20267
867.972	20469
868.103	20457
868.233	20377
868.364	20358
868.495	20457
868.625	20552
868.756	20769
868.886	20503
869.017	20670
869.147	20788
869.278	20762
869.408	20659
869.539	20629
869.669	20659
869.799	20678
869.929	20754
870.06	20640
870.19	20963
870.32	20845
870.45	20963
870.58	21013
870.71	21260
870.84	21013
870.97	21036
871.1	21176
871.23	21355
871.36	21264
871.489	21154
871.619	21241
871.749	21169
871.879	21272
872.008	21294
872.138	21287
872.267	21180
872.397	21047
872.526	21070
872.656	21047
872.785	21028
872.915	21222
873.044	21378
873.173	21291
873.303	21336
873.432	21230
873.561	21351
873.69	21310
873.819	21321
873.948	21291
874.077	21264
874.206	21241
874.335	21264
874.464	21450
874.593	21504
874.722	21469
874.851	21519
874.979	21526
875.108	21504
875.237	21401
875.365	21325
875.494	21431
875.623	21603
875.751	21477
875.88	21656
876.008	21606
876.136	21595
876.265	21835
876.393	21922
876.521	21922
876.65	21987
876.778	21835
876.906	21842
877.034	21892
877.162	21827
877.29	21690
877.418	21831
877.546	21800
877.674	21762
877.802	21884
877.93	21751
878.058	21743
878.185	21671
878.313	21884
878.441	21922
878.568	21686
878.696	21823
878.824	21797
878.951	21937
879.079	21930
879.206	22044
879.333	22074
879.461	21907
879.588	21907
879.715	22010
879.842	22082
879.97	21804
880.097	21648
880.224	21682
880.351	21599
880.478	21633
880.605	21595
880.732	21644
880.859	21911
880.986	21789
881.112	21686
881.239	21572
881.366	21534
881.493	21348
881.619	21367
881.746	21256
881.872	21382
881.999	21226
882.125	21203
882.252	21321
882.378	21252
882.505	21268
882.631	21070
882.757	20967
882.883	20979
883.01	20887
883.136	20960
883.262	20830
883.388	20842
883.514	21001
883.64	20967
883.766	20830
883.892	20594
884.018	20792
884.143	20994
884.269	20986
884.395	20674
884.52	20632
884.646	20568
884.772	20522
884.897	20507
885.023	20670
885.148	20659
885.274	20750
885.399	20765
885.524	20648
885.65	20590
885.775	20598
885.9	20564
886.025	20689
886.15	20693
886.275	20621
886.4	20511
886.525	20503
886.65	20393
886.775	20507
886.9	20701
887.025	20765
887.149	20514
887.274	20461
887.399	20351
887.523	20370
887.648	20271
887.773	20225
887.897	20415
888.021	20396
888.146	20381
888.27	20469
888.395	20358
888.519	20381
888.643	20434
888.767	20526
888.891	20294
889.015	20199
889.139	20206
889.263	20164
889.387	20183
889.511	20412
889.635	20252
889.759	20168
889.883	20043
890.006	20084
890.13	20313
890.254	20050
890.377	20138
890.501	19909
890.624	19921
890.748	19890
890.871	19784
890.995	19772
891.118	19620
891.241	19746
891.364	19826
891.488	19890
891.611	19822
891.734	19807
891.857	19902
891.98	19746
892.103	19879
892.226	19712
892.349	19780
892.471	19613
892.594	19734
892.717	19742
892.839	19635
892.962	19715
893.085	19712
893.207	19712
893.33	19563
893.452	19670
893.575	19795
893.697	19586
893.819	19830
893.941	19868
894.064	19940
894.186	19655
894.308	19605
894.43	19791
894.552	19814
894.674	19765
894.796	19472
894.918	19647
895.04	19693
895.161	19814
895.283	19849
895.405	19586
895.526	19674
895.648	19658
895.769	19769
895.891	19613
896.012	19742
896.134	19708
896.255	19700
896.376	19571
896.498	19693
896.619	19772
896.74	19761
896.861	19868
896.982	19928
897.103	20103
897.224	19947
897.345	20020
897.466	19788
897.587	19871
897.708	19986
897.828	19913
897.949	19871
898.07	19734
898.19	19978
898.311	19993
898.431	19894
898.552	19883
898.672	19978
898.792	20054
898.913	19864
899.033	19803
899.153	19643
899.273	19635
899.393	19689
899.513	19772
899.633	19719
899.753	19727
899.873	19693
899.993	19712
900.113	19609
900.232	19586
900.352	19708
900.472	19567
900.591	19377
900.711	19502
900.83	19464
900.95	19457
901.069	19529
901.189	19327
901.308	19000
901.427	19076
901.546	19099
901.665	19118
901.784	19065
901.904	18894
902.023	18814
902.141	18684
902.26	18684
902.379	18688
902.498	18525
902.617	18544
902.735	18635
902.854	18464
902.973	18498
903.091	18376
903.21	18254
903.328	18277
903.446	18174
903.565	18083
903.683	17977
903.801	17961
903.919	18041
904.038	18053
904.156	17920
904.274	17897
904.392	17790
904.51	17764
904.627	17786
904.745	17878
904.863	17870
904.981	17562
905.098	17566
905.216	17490
905.334	17516
905.451	17573
905.569	17402
905.686	17486
905.803	17406
905.921	17258
906.038	17440
906.155	17349
906.272	17246
906.389	17216
906.506	17003
906.623	16984
906.74	17075
906.857	16968
906.974	16980
907.091	17071
907.208	17185
907.324	17045
907.441	16911
907.557	16854
907.674	16831
907.79	16752
907.907	16687
908.023	16835
908.139	16752
908.256	16729
908.372	16641
908.488	16653
908.604	16588
908.72	16447
908.836	16478
908.952	16451
909.068	16535
909.184	16607
909.3	16478
909.415	16497
909.531	16478
909.647	16207
909.762	16226
909.878	16139
909.993	16196
910.108	16219
910.224	16226
910.339	16219
910.454	16048
910.57	15945
910.685	15850
910.8	16242
910.915	16128
911.03	15930
911.145	15922
911.259	15793
911.374	15770
911.489	15622
911.604	15633
911.718	15469
911.833	15557
911.947	15439
912.062	15382
912.176	15542
912.291	15625
912.405	15572
912.519	15724
912.633	15641
912.748	15515
912.862	15580
912.976	15370
913.09	15169
913.204	15325
913.318	15329
913.431	15321
913.545	15351
913.659	15473
913.772	15272
913.886	15233
914	15154
914.113	15256
914.226	15245
914.34	15180
914.453	15028
914.566	15237
914.68	15001
914.793	14960
914.906	14872
915.019	14864
915.132	14716
915.245	14678
915.358	14845
915.47	14712
915.583	14701
915.696	14773
915.809	14838
915.921	14910
916.034	14781
916.146	14632
916.259	14727
916.371	14826
916.483	14735
916.595	14571
916.708	14587
916.82	14750
916.932	14636
917.044	14537
917.156	14693
917.268	14530
917.38	14370
917.491	14469
917.603	14377
917.715	14598
917.826	14556
917.938	14366
918.049	14225
918.161	14286
918.272	14594
918.384	14526
918.495	14412
918.606	14183
918.717	14161
918.828	14210
918.939	14259
919.05	14069
919.161	14153
919.272	14020
919.383	14096
919.494	14229
919.604	14408
919.715	14210
919.826	14145
919.936	14134
920.047	14294
920.157	14103
920.267	14282
920.378	14123
920.488	14134
920.598	14324
920.708	14541
920.818	14282
920.928	14275
921.038	14511
921.148	14492
921.258	14176
921.368	14058
921.477	13936
921.587	13795
921.697	13723
921.806	13951
921.916	13811
922.025	13616
922.134	13613
922.244	13575
922.353	13582
922.462	13472
922.571	13339
922.68	13308
922.789	13225
922.898	13190
923.007	13141
923.116	13270
923.224	13129
923.333	13129
923.442	13095
923.55	13015
923.659	13088
923.767	13095
923.876	12993
923.984	13095
924.092	13027
924.201	12947
924.309	12973
924.417	13091
924.525	12924
924.633	12837
924.741	13597
924.849	12715
924.956	12779
925.064	12665
925.172	12597
925.279	12730
925.387	12658
925.494	12730
925.602	12817
925.709	12700
925.816	12456
925.924	12665
926.031	12650
926.138	12509
926.245	12593
926.352	12540
926.459	12669
926.566	12719
926.673	12464
926.779	12460
926.886	12277
926.993	12254
927.099	12186
927.206	12125
927.312	12201
927.419	12262
927.525	12201
927.631	12266
927.737	12155
927.843	12114
927.95	11961
928.056	12144
928.162	12041
928.267	12209
928.373	12791
928.479	12182
928.585	11885
928.69	12015
928.796	12095
928.901	11973
929.007	11764
929.112	11897
929.218	11882
929.323	11821
929.428	11722
929.533	11897
929.638	11707
929.743	11790
929.848	11813
929.953	11813
930.058	11604
930.163	11516
930.267	11474
930.372	11672
930.477	11452
930.581	11646
930.685	11478
930.79	11379
930.894	11353
930.998	11303
931.103	11516
931.207	11181
931.311	11064
931.415	10892
931.519	10812
931.623	10721
