Data from test_V78500241_3237.txt Node
Date: Fri Mar 25 16:04:13 CST 2022
User: usil
Spectrometer: V785-0024
Trigger mode: 0
Integration Time (sec): 4.000000E-1
Scans to average: 1
Nonlinearity correction enabled: false
Boxcar width: 0
Storing dark spectrum: false
XAxis mode: Wavelengths
Number of Pixels in Spectrum: 1024
>>>>>Begin Spectral Data<<<<<
801.071	28949
801.214	28839
801.356	28786
801.499	28607
801.641	28596
801.783	28550
801.926	28500
802.068	28599
802.211	28432
802.353	28405
802.496	28367
802.638	28367
802.78	28143
802.923	28200
803.065	28200
803.208	28173
803.35	28169
803.492	28493
803.635	28405
803.777	28459
803.919	28481
804.061	28831
804.204	28592
804.346	28356
804.488	28337
804.63	28470
804.773	28500
804.915	28455
805.057	28550
805.199	28360
805.341	28599
805.483	28580
805.626	28645
805.768	28432
805.91	28729
806.052	28664
806.194	28561
806.336	28858
806.478	28755
806.62	28592
806.762	28649
806.904	28949
807.046	29140
807.188	29140
807.33	29277
807.472	29197
807.614	29056
807.756	29109
807.898	29010
808.04	28949
808.182	28896
808.324	29044
808.465	29292
808.607	29220
808.749	29318
808.891	29474
809.033	29421
809.174	29459
809.316	29341
809.458	29516
809.6	29181
809.741	29410
809.883	29436
810.025	29627
810.166	29817
810.308	29585
810.45	29585
810.591	29425
810.733	29482
810.875	29395
811.016	29307
811.158	29288
811.299	29467
811.441	29661
811.582	29531
811.724	29402
811.865	29398
812.007	29326
812.148	29459
812.29	29497
812.431	29634
812.573	29684
812.714	29817
812.855	29935
812.997	29935
813.138	30163
813.279	29973
813.421	30003
813.562	29931
813.703	29767
813.845	29619
813.986	29299
814.127	29155
814.268	29246
814.41	29044
814.551	29258
814.692	29067
814.833	29064
814.974	29067
815.115	28984
815.256	28995
815.397	28942
815.539	28980
815.68	28896
815.821	28771
815.962	28915
816.103	28892
816.244	28831
816.385	28752
816.526	28687
816.666	28592
816.807	28325
816.948	28455
817.089	28512
817.23	28394
817.371	28440
817.512	28428
817.653	28329
817.793	28284
817.934	28398
818.075	28459
818.216	28508
818.356	28322
818.497	28322
818.638	28223
818.778	28158
818.919	28211
819.06	28306
819.2	28265
819.341	28531
819.481	28421
819.622	28599
819.762	28717
819.903	28653
820.043	28630
820.184	28493
820.324	28546
820.465	28531
820.605	28596
820.746	28637
820.886	28466
821.026	28584
821.167	28474
821.307	28588
821.447	28424
821.588	28462
821.728	28265
821.868	28128
822.008	27895
822.149	27880
822.289	27899
822.429	27603
822.569	27709
822.709	27561
822.849	27595
822.99	27462
823.13	27424
823.27	27538
823.41	27310
823.55	27203
823.69	27275
823.83	27298
823.97	27233
824.11	27074
824.25	27074
824.389	27017
824.529	27017
824.669	27199
824.809	27176
824.949	27176
825.089	27138
825.228	27058
825.368	26895
825.508	26880
825.648	26929
825.787	26971
825.927	27123
826.067	27020
826.206	26948
826.346	27047
826.485	27070
826.625	26883
826.765	27005
826.904	26963
827.044	26838
827.183	26872
827.323	26629
827.462	26921
827.601	26625
827.741	26754
827.88	26739
828.02	26446
828.159	26533
828.298	26712
828.437	26724
828.577	26629
828.716	26804
828.855	26560
828.994	26351
829.134	26446
829.273	26366
829.412	26385
829.551	26355
829.69	26545
829.829	26332
829.968	26469
830.107	26503
830.246	26408
830.385	26282
830.524	26351
830.663	26210
830.802	26092
830.941	26062
831.08	25978
831.219	26092
831.357	26084
831.496	26221
831.635	26001
831.774	25871
831.913	25898
832.051	25715
832.19	25936
832.329	25803
832.467	25578
832.606	25559
832.744	25597
832.883	25582
833.022	25628
833.16	25704
833.299	25632
833.437	25590
833.576	25811
833.714	25830
833.852	25803
833.991	25791
834.129	25837
834.267	25799
834.406	25643
834.544	25849
834.682	25704
834.821	25666
834.959	25833
835.097	25742
835.235	25746
835.373	25761
835.511	25708
835.65	25609
835.788	25594
835.926	25312
836.064	25308
836.202	25373
836.34	25647
836.478	25658
836.615	25525
836.753	25715
836.891	25590
837.029	25457
837.167	25525
837.305	25339
837.443	25430
837.58	25324
837.718	25373
837.856	25350
837.993	25339
838.131	25365
838.269	25373
838.406	25350
838.544	25137
838.681	25012
838.819	25000
838.956	24783
839.094	24837
839.231	24848
839.369	24973
839.506	25301
839.643	25118
839.781	24856
839.918	24730
840.055	24958
840.193	24894
840.33	24726
840.467	24829
840.604	24749
840.742	24981
840.879	24601
841.016	24654
841.153	24612
841.29	24779
841.427	24688
841.564	24913
841.701	24772
841.838	24757
841.975	24536
842.112	24570
842.249	24517
842.385	24464
842.522	24665
842.659	24528
842.796	24422
842.933	24528
843.069	24464
843.206	24289
843.343	24532
843.479	24498
843.616	24540
843.752	24228
843.889	24407
844.025	24418
844.162	24319
844.298	24380
844.435	24106
844.571	24277
844.708	24296
844.844	24483
844.98	24505
845.117	24376
845.253	24258
845.389	24072
845.525	24239
845.661	24140
845.798	23920
845.934	24098
846.07	23992
846.206	24083
846.342	24011
846.478	23874
846.614	23863
846.75	23760
846.886	23668
847.022	23623
847.158	23794
847.294	23798
847.429	23756
847.565	23570
847.701	23980
847.837	23455
847.972	23429
848.108	23493
848.244	23478
848.379	23341
848.515	23372
848.65	23315
848.786	23235
848.921	23341
849.057	23429
849.192	23501
849.328	23326
849.463	23364
849.598	23368
849.734	23265
849.869	23280
850.004	23174
850.14	23033
850.275	23037
850.41	22980
850.545	23064
850.68	22934
850.815	23121
850.95	22911
851.085	23197
851.22	23121
851.355	23143
851.49	23094
851.625	23044
851.76	22987
851.895	23086
852.03	22949
852.165	23056
852.299	23223
852.434	23102
852.569	23052
852.703	23064
852.838	23117
852.973	23185
853.107	23216
853.242	23014
853.376	23067
853.511	22839
853.645	22885
853.78	23003
853.914	22854
854.048	22892
854.183	22953
854.317	23018
854.451	22987
854.585	22999
854.72	22904
854.854	22987
854.988	22946
855.122	22843
855.256	22790
855.39	22869
855.524	22972
855.658	23010
855.792	22965
855.926	23018
856.06	22835
856.194	22858
856.327	22797
856.461	22725
856.595	22824
856.729	22904
856.862	22923
856.996	22831
857.13	22976
857.263	23086
857.397	22934
857.53	22892
857.664	22961
857.797	22892
857.931	22961
858.064	23064
858.197	23018
858.331	22850
858.464	22953
858.597	22797
858.731	22911
858.864	22812
858.997	22824
859.13	22953
859.263	22953
859.396	22927
859.529	22991
859.662	22885
859.795	22812
859.928	22999
860.061	22987
860.194	23197
860.327	22968
860.46	22942
860.592	22927
860.725	23060
860.858	23113
860.99	22930
861.123	22755
861.256	22828
861.388	22847
861.521	23581
861.653	22675
861.786	22618
861.918	22698
862.05	22748
862.183	22847
862.315	22850
862.447	22991
862.58	22843
862.712	22698
862.844	22592
862.976	22630
863.108	22687
863.24	22991
863.372	22649
863.504	22592
863.636	22729
863.768	22615
863.9	22596
864.032	22550
864.164	22432
864.296	22588
864.428	22698
864.559	22557
864.691	22584
864.823	22557
864.954	22706
865.086	22519
865.217	22626
865.349	22386
865.48	22485
865.612	22508
865.743	22603
865.875	22546
866.006	22348
866.137	22485
866.269	22527
866.4	22402
866.531	22344
866.662	22348
866.793	22341
866.924	22489
867.055	22459
867.186	22512
867.317	22466
867.448	22310
867.579	22344
867.71	22295
867.841	22409
867.972	22379
868.103	22379
868.233	22402
868.364	22413
868.495	22554
868.625	22668
868.756	22752
868.886	22630
869.017	22694
869.147	22713
869.278	22687
869.408	22828
869.539	22710
869.669	22645
869.799	22653
869.929	22774
870.06	22767
870.19	22938
870.32	23010
870.45	23064
870.58	23056
870.71	23121
870.84	23124
870.97	23003
871.1	22987
871.23	23242
871.36	23227
871.489	23159
871.619	23197
871.749	23212
871.879	23273
872.008	23273
872.138	23258
872.267	23299
872.397	23113
872.526	23014
872.656	23121
872.785	23037
872.915	23277
873.044	23334
873.173	23239
873.303	23250
873.432	23200
873.561	23360
873.69	23307
873.819	23246
873.948	23391
874.077	23227
874.206	23273
874.335	23220
874.464	23391
874.593	23516
874.722	23406
874.851	23505
874.979	23471
875.108	23452
875.237	23330
875.365	23391
875.494	23421
875.623	23630
875.751	23410
875.88	23551
876.008	23672
876.136	23646
876.265	23889
876.393	24038
876.521	23859
876.65	23851
876.778	23863
876.906	23802
877.034	23779
877.162	23878
877.29	23745
877.418	23885
877.546	23859
877.674	23722
877.802	23863
877.93	23790
878.058	23783
878.185	23657
878.313	23748
878.441	23672
878.568	23653
878.696	23775
878.824	23775
878.951	23878
879.079	23984
879.206	24076
879.333	23965
879.461	23866
879.588	23813
879.715	24091
879.842	24095
879.97	23920
880.097	23767
880.224	23630
880.351	23680
880.478	23695
880.605	23646
880.732	23646
880.859	23859
880.986	23596
881.112	23699
881.239	23471
881.366	23235
881.493	23185
881.619	23258
881.746	23261
881.872	23311
881.999	23223
882.125	22957
882.252	23064
882.378	23029
882.505	23174
882.631	23067
882.757	22972
882.883	22980
883.01	22889
883.136	22866
883.262	22752
883.388	22790
883.514	22889
883.64	22850
883.766	22771
883.892	22698
884.018	22641
884.143	22820
884.269	22896
884.395	22573
884.52	22459
884.646	22474
884.772	22519
884.897	22379
885.023	22523
885.148	22698
885.274	22573
885.399	22485
885.524	22538
885.65	22398
885.775	22421
885.9	22500
886.025	22546
886.15	22569
886.275	22409
886.4	22474
886.525	22508
886.65	22417
886.775	22386
886.9	22577
887.025	22641
887.149	22459
887.274	22291
887.399	22242
887.523	22257
887.648	22249
887.773	22139
887.897	22166
888.021	22154
888.146	22013
888.27	22287
888.395	22363
888.519	22253
888.643	22219
888.767	22268
888.891	22185
889.015	22128
889.139	22082
889.263	21968
889.387	22166
889.511	22211
889.635	22147
889.759	21953
889.883	22044
890.006	21945
890.13	22185
890.254	21983
890.377	22006
890.501	21823
890.624	21622
890.748	21915
890.871	21564
890.995	21439
891.118	21618
891.241	21545
891.364	21549
891.488	21698
891.611	21587
891.734	21587
891.857	21511
891.98	21644
892.103	21454
892.226	21614
892.349	21591
892.471	21488
892.594	21424
892.717	21420
892.839	21313
892.962	21637
893.085	21549
893.207	21488
893.33	21389
893.452	21329
893.575	21511
893.697	21500
893.819	21526
893.941	21610
894.064	21496
894.186	21462
894.308	21397
894.43	21454
894.552	21637
894.674	21439
894.796	21367
894.918	21412
895.04	21401
895.161	21500
895.283	21504
895.405	21363
895.526	21431
895.648	21473
895.769	21302
895.891	21397
896.012	21553
896.134	21473
896.255	21386
896.376	21389
896.498	21367
896.619	21542
896.74	21340
896.861	21386
896.982	21743
897.103	21922
897.224	21622
897.345	21545
897.466	21576
897.587	21739
897.708	21656
897.828	21603
897.949	21523
898.07	21378
898.19	21492
898.311	21694
898.431	21553
898.552	21545
898.672	21686
898.792	21663
898.913	21557
899.033	21538
899.153	21389
899.273	21431
899.393	21348
899.513	21252
899.633	21272
899.753	21298
899.873	21218
899.993	21401
900.113	21329
900.232	21199
900.352	21279
900.472	21203
900.591	21150
900.711	21127
900.83	21135
900.95	21127
901.069	21313
901.189	20990
901.308	20792
901.427	20712
901.546	20602
901.665	20773
901.784	20674
901.904	20450
902.023	20419
902.141	20225
902.26	20263
902.379	20282
902.498	20111
902.617	20096
902.735	20229
902.854	20142
902.973	20031
903.091	19932
903.21	19875
903.328	19814
903.446	19830
903.565	19605
903.683	19594
903.801	19441
903.919	19556
904.038	19525
904.156	19384
904.274	19396
904.392	19339
904.51	19400
904.627	19445
904.745	19426
904.863	19369
904.981	19156
905.098	19114
905.216	19031
905.334	19095
905.451	19076
905.569	18935
905.686	19103
905.803	19046
905.921	18848
906.038	18962
906.155	18901
906.272	18703
906.389	18768
906.506	18612
906.623	18536
906.74	18585
906.857	18380
906.974	18391
907.091	18612
907.208	18589
907.324	18601
907.441	18559
907.557	18315
907.674	18190
907.79	18114
907.907	18247
908.023	18270
908.139	18266
908.256	18205
908.372	18087
908.488	18197
908.604	17984
908.72	17992
908.836	17912
908.952	18060
909.068	17950
909.184	18159
909.3	18007
909.415	17946
909.531	17973
909.647	17699
909.762	17775
909.878	17661
909.993	17634
910.108	17615
910.224	17581
910.339	17661
910.454	17505
910.57	17383
910.685	17398
910.8	17577
910.915	17623
911.03	17440
911.145	17288
911.259	17083
911.374	17265
911.489	17159
911.604	17048
911.718	17041
911.833	16957
911.947	16881
912.062	16847
912.176	16934
912.291	16892
912.405	17033
912.519	17090
912.633	17117
912.748	17010
912.862	16968
912.976	16877
913.09	16577
913.204	16736
913.318	16858
913.431	16889
913.545	16866
913.659	16786
913.772	16721
913.886	16672
914	16527
914.113	16660
914.226	16607
914.34	16641
914.453	16424
914.566	16603
914.68	16504
914.793	16344
914.906	16223
915.019	16169
915.132	16051
915.245	16109
915.358	16188
915.47	16116
915.583	16173
915.696	16211
915.809	16154
915.921	16211
916.034	16013
916.146	16021
916.259	16040
916.371	16101
916.483	16101
916.595	15975
916.708	16067
916.82	16048
916.932	15880
917.044	15892
917.156	15903
917.268	15827
917.38	15793
917.491	15739
917.603	15701
917.715	15766
917.826	15854
917.938	15656
918.049	15580
918.161	15614
918.272	15739
918.384	15747
918.495	15770
918.606	15428
918.717	15447
918.828	15557
918.939	15462
919.05	15332
919.161	15511
919.272	15294
919.383	15336
919.494	15511
919.604	15587
919.715	15507
919.826	15431
919.936	15374
920.047	15606
920.157	15481
920.267	15603
920.378	15530
920.488	15382
920.598	15561
920.708	15789
920.818	15572
920.928	15568
921.038	15717
921.148	15686
921.258	15454
921.368	15283
921.477	15169
921.587	15207
921.697	15024
921.806	15097
921.916	15013
922.025	14830
922.134	14815
922.244	14693
922.353	14804
922.462	14701
922.571	14590
922.68	14473
922.789	14537
922.898	14434
923.007	14396
923.116	14522
923.224	14393
923.333	14385
923.442	14336
923.55	14199
923.659	14290
923.767	14355
923.876	14119
923.984	14256
924.092	14237
924.201	14180
924.309	14191
924.417	14206
924.525	14138
924.633	14107
924.741	14857
924.849	13875
924.956	14039
925.064	13944
925.172	13696
925.279	13860
925.387	13849
925.494	13818
925.602	13917
925.709	13852
925.816	13776
925.924	13830
926.031	13780
926.138	13807
926.245	13837
926.352	13685
926.459	13696
926.566	13795
926.673	13719
926.779	13575
926.886	13483
926.993	13411
927.099	13365
927.206	13282
927.312	13324
927.419	13438
927.525	13365
927.631	13335
927.737	13164
927.843	13187
927.95	13019
928.056	13091
928.162	13149
928.267	13251
928.373	13727
928.479	13221
928.585	13008
928.69	13164
928.796	13209
928.901	13004
929.007	12810
929.112	12958
929.218	12966
929.323	12951
929.428	12943
929.533	12996
929.638	12787
929.743	12783
929.848	12837
929.953	12856
930.058	12692
930.163	12502
930.267	12570
930.372	12669
930.477	12441
930.581	12722
930.685	12532
930.79	12460
930.894	12464
930.998	12346
931.103	12471
931.207	12152
931.311	12060
931.415	11946
931.519	11764
931.623	11752
