Data from test_V78500241_2901.txt Node
Date: Fri Mar 25 16:01:53 CST 2022
User: usil
Spectrometer: V785-0024
Trigger mode: 0
Integration Time (sec): 4.000000E-1
Scans to average: 1
Nonlinearity correction enabled: false
Boxcar width: 0
Storing dark spectrum: false
XAxis mode: Wavelengths
Number of Pixels in Spectrum: 1024
>>>>>Begin Spectral Data<<<<<
801.071	29056
801.214	29044
801.356	28850
801.499	28740
801.641	28618
801.783	28489
801.926	28733
802.068	28535
802.211	28470
802.353	28542
802.496	28322
802.638	28390
802.78	28207
802.923	28185
803.065	28196
803.208	28147
803.35	28424
803.492	28409
803.635	28580
803.777	28436
803.919	28603
804.061	28888
804.204	28626
804.346	28493
804.488	28287
804.63	28599
804.773	28493
804.915	28580
805.057	28733
805.199	28618
805.341	28615
805.483	28596
805.626	28748
805.768	28523
805.91	28672
806.052	28767
806.194	28607
806.336	28729
806.478	28649
806.62	28634
806.762	28896
806.904	29098
807.046	29140
807.188	29025
807.33	29208
807.472	29315
807.614	29200
807.756	29003
807.898	29109
808.04	28786
808.182	28961
808.324	29006
808.465	29151
808.607	29303
808.749	29497
808.891	29383
809.033	29562
809.174	29383
809.316	29364
809.458	29349
809.6	29239
809.741	29577
809.883	29570
810.025	29691
810.166	29786
810.308	29767
810.45	29600
810.591	29608
810.733	29547
810.875	29444
811.016	29387
811.158	29330
811.299	29478
811.441	29611
811.582	29581
811.724	29448
811.865	29402
812.007	29315
812.148	29406
812.29	29531
812.431	29589
812.573	29779
812.714	29840
812.855	29980
812.997	30072
813.138	30144
813.279	30007
813.421	29935
813.562	29961
813.703	29741
813.845	29627
813.986	29463
814.127	29318
814.268	29166
814.41	29162
814.551	29204
814.692	29159
814.833	29258
814.974	29204
815.115	29166
815.256	29037
815.397	29037
815.539	29155
815.68	28957
815.821	28869
815.962	28866
816.103	28968
816.244	28892
816.385	28782
816.526	28706
816.666	28634
816.807	28523
816.948	28481
817.089	28641
817.23	28561
817.371	28409
817.512	28379
817.653	28322
817.793	28478
817.934	28421
818.075	28538
818.216	28588
818.356	28455
818.497	28417
818.638	28196
818.778	28265
818.919	28226
819.06	28443
819.2	28386
819.341	28504
819.481	28303
819.622	28554
819.762	28763
819.903	28691
820.043	28748
820.184	28641
820.324	28565
820.465	28653
820.605	28687
820.746	28611
820.886	28550
821.026	28538
821.167	28455
821.307	28706
821.447	28413
821.588	28234
821.728	28295
821.868	28223
822.008	28036
822.149	27998
822.289	27903
822.429	27603
822.569	27637
822.709	27648
822.849	27519
822.99	27507
823.13	27389
823.27	27511
823.41	27249
823.55	27203
823.69	27287
823.83	27439
823.97	27249
824.11	27062
824.25	26990
824.389	27188
824.529	27192
824.669	27017
824.809	27283
824.949	27287
825.089	27180
825.228	27310
825.368	27039
825.508	27020
825.648	27055
825.787	27112
825.927	27074
826.067	27001
826.206	27028
826.346	27043
826.485	27062
826.625	27009
826.765	27192
826.904	27039
827.044	26788
827.183	26735
827.323	26910
827.462	26743
827.601	26667
827.741	26731
827.88	26651
828.02	26712
828.159	26754
828.298	26754
828.437	26655
828.577	26697
828.716	26731
828.855	26644
828.994	26453
829.134	26473
829.273	26396
829.412	26419
829.551	26309
829.69	26324
829.829	26507
829.968	26579
830.107	26438
830.246	26453
830.385	26355
830.524	26294
830.663	26138
830.802	26103
830.941	26012
831.08	25986
831.219	25989
831.357	26164
831.496	26187
831.635	26069
831.774	25852
831.913	25940
832.051	25856
832.19	25708
832.329	25860
832.467	25795
832.606	25651
832.744	25689
832.883	25624
833.022	25658
833.16	25658
833.299	25769
833.437	25670
833.576	25845
833.714	25769
833.852	25849
833.991	25769
834.129	25826
834.267	25856
834.406	25864
834.544	25894
834.682	25727
834.821	25677
834.959	25928
835.097	25613
835.235	25807
835.373	25772
835.511	25734
835.65	25464
835.788	25776
835.926	25460
836.064	25441
836.202	25529
836.34	25666
836.478	25708
836.615	25327
836.753	25544
836.891	25521
837.029	25518
837.167	25422
837.305	25491
837.443	25396
837.58	25434
837.718	25476
837.856	25396
837.993	25365
838.131	25350
838.269	25225
838.406	25259
838.544	25023
838.681	25107
838.819	25110
838.956	24878
839.094	24848
839.231	25000
839.369	25038
839.506	25164
839.643	25057
839.781	24916
839.918	24760
840.055	24764
840.193	24817
840.33	24791
840.467	24738
840.604	24757
840.742	25031
840.879	24715
841.016	24650
841.153	24772
841.29	24817
841.427	24814
841.564	24745
841.701	24764
841.838	24684
841.975	24673
842.112	24639
842.249	24555
842.385	24547
842.522	24817
842.659	24642
842.796	24555
842.933	24555
843.069	24498
843.206	24479
843.343	24589
843.479	24498
843.616	24593
843.752	24121
843.889	24376
844.025	24407
844.162	24220
844.298	24266
844.435	24266
844.571	24323
844.708	24213
844.844	24471
844.98	24475
845.117	24460
845.253	24292
845.389	24205
845.525	24155
845.661	24133
845.798	24110
845.934	24076
846.07	24140
846.206	23973
846.342	24117
846.478	24007
846.614	23840
846.75	23794
846.886	23638
847.022	23882
847.158	23718
847.294	23790
847.429	23889
847.565	23619
847.701	24003
847.837	23360
847.972	23421
848.108	23467
848.244	23608
848.379	23406
848.515	23250
848.65	23242
848.786	23277
848.921	23239
849.057	23524
849.192	23433
849.328	23414
849.463	23273
849.598	23208
849.734	23307
849.869	23273
850.004	23083
850.14	23102
850.275	23052
850.41	22991
850.545	23052
850.68	23094
850.815	23185
850.95	23136
851.085	23296
851.22	23227
851.355	23124
851.49	23162
851.625	23014
851.76	22927
851.895	23029
852.03	23098
852.165	23083
852.299	23185
852.434	23299
852.569	23117
852.703	23067
852.838	23140
852.973	23155
853.107	23094
853.242	23018
853.376	22908
853.511	22797
853.645	22850
853.78	23098
853.914	22896
854.048	22911
854.183	22805
854.317	22927
854.451	23162
854.585	22908
854.72	22816
854.854	22908
854.988	22790
855.122	22892
855.256	22881
855.39	22949
855.524	23037
855.658	22953
855.792	23014
855.926	22904
856.06	22957
856.194	22831
856.327	22831
856.461	22805
856.595	22858
856.729	22923
856.862	23014
856.996	22999
857.13	22961
857.263	23094
857.397	23022
857.53	22911
857.664	22995
857.797	23052
857.931	23094
858.064	22759
858.197	23010
858.331	22885
858.464	22881
858.597	22843
858.731	22797
858.864	23010
858.997	22972
859.13	22904
859.263	22877
859.396	23113
859.529	22953
859.662	22866
859.795	22862
859.928	22930
860.061	22980
860.194	23178
860.327	22995
860.46	22869
860.592	23090
860.725	23079
860.858	23003
860.99	22995
861.123	22866
861.256	22733
861.388	22869
861.521	23657
861.653	22687
861.786	22691
861.918	22759
862.05	22717
862.183	22816
862.315	22809
862.447	22869
862.58	22877
862.712	22675
862.844	22538
862.976	22710
863.108	22725
863.24	23025
863.372	22588
863.504	22607
863.636	22531
863.768	22706
863.9	22634
864.032	22535
864.164	22664
864.296	22630
864.428	22725
864.559	22752
864.691	22542
864.823	22618
864.954	22641
865.086	22497
865.217	22478
865.349	22367
865.48	22554
865.612	22325
865.743	22565
865.875	22504
866.006	22386
866.137	22603
866.269	22569
866.4	22424
866.531	22485
866.662	22329
866.793	22402
866.924	22417
867.055	22497
867.186	22382
867.317	22500
867.448	22367
867.579	22470
867.71	22363
867.841	22337
867.972	22428
868.103	22287
868.233	22500
868.364	22371
868.495	22550
868.625	22679
868.756	22691
868.886	22542
869.017	22736
869.147	22759
869.278	22790
869.408	22702
869.539	22554
869.669	22740
869.799	22717
869.929	22675
870.06	22713
870.19	22991
870.32	22873
870.45	22957
870.58	23067
870.71	23083
870.84	23064
870.97	23003
871.1	23029
871.23	23166
871.36	23151
871.489	23159
871.619	23273
871.749	23296
871.879	23261
872.008	23273
872.138	23296
872.267	23185
872.397	23037
872.526	23079
872.656	23094
872.785	23220
872.915	23204
873.044	23410
873.173	23288
873.303	23398
873.432	23284
873.561	23402
873.69	23212
873.819	23391
873.948	23349
874.077	23227
874.206	23136
874.335	23269
874.464	23307
874.593	23554
874.722	23524
874.851	23566
874.979	23611
875.108	23535
875.237	23501
875.365	23452
875.494	23395
875.623	23535
875.751	23410
875.88	23551
876.008	23604
876.136	23695
876.265	23863
876.393	24053
876.521	23950
876.65	23996
876.778	23874
876.906	23832
877.034	23726
877.162	23832
877.29	23817
877.418	23828
877.546	23798
877.674	23866
877.802	23897
877.93	23760
878.058	23668
878.185	23775
878.313	23798
878.441	23847
878.568	23733
878.696	23661
878.824	23847
878.951	23931
879.079	24041
879.206	24087
879.333	24018
879.461	23878
879.588	23889
879.715	23863
879.842	24091
879.97	23931
880.097	23684
880.224	23547
880.351	23741
880.478	23703
880.605	23592
880.732	23581
880.859	23722
880.986	23600
881.112	23551
881.239	23520
881.366	23501
881.493	23356
881.619	23181
881.746	23121
881.872	23280
881.999	23143
882.125	23079
882.252	23250
882.378	23193
882.505	23307
882.631	23060
882.757	22892
882.883	22961
883.01	22892
883.136	22847
883.262	22801
883.388	22771
883.514	22862
883.64	22828
883.766	22755
883.892	22637
884.018	22702
884.143	22824
884.269	22843
884.395	22599
884.52	22497
884.646	22535
884.772	22550
884.897	22398
885.023	22561
885.148	22523
885.274	22767
885.399	22538
885.524	22504
885.65	22717
885.775	22546
885.9	22386
886.025	22588
886.15	22577
886.275	22440
886.4	22402
886.525	22485
886.65	22451
886.775	22386
886.9	22694
887.025	22637
887.149	22588
887.274	22333
887.399	22188
887.523	22082
887.648	22287
887.773	22131
887.897	22398
888.021	22341
888.146	22234
888.27	22215
888.395	22318
888.519	22211
888.643	22230
888.767	22200
888.891	22109
889.015	22067
889.139	22055
889.263	22051
889.387	22181
889.511	22223
889.635	22230
889.759	21968
889.883	21903
890.006	22128
890.13	22048
890.254	21930
890.377	21972
890.501	21774
890.624	21739
890.748	21846
890.871	21694
890.995	21622
891.118	21553
891.241	21660
891.364	21583
891.488	21637
891.611	21580
891.734	21568
891.857	21705
891.98	21644
892.103	21770
892.226	21500
892.349	21378
892.471	21428
892.594	21458
892.717	21492
892.839	21488
892.962	21443
893.085	21549
893.207	21443
893.33	21382
893.452	21401
893.575	21431
893.697	21386
893.819	21629
893.941	21648
894.064	21720
894.186	21287
894.308	21374
894.43	21526
894.552	21587
894.674	21458
894.796	21515
894.918	21462
895.04	21370
895.161	21561
895.283	21439
895.405	21424
895.526	21477
895.648	21431
895.769	21454
895.891	21553
896.012	21450
896.134	21542
896.255	21443
896.376	21359
896.498	21386
896.619	21462
896.74	21435
896.861	21515
896.982	21701
897.103	21903
897.224	21736
897.345	21705
897.466	21580
897.587	21690
897.708	21766
897.828	21572
897.949	21526
898.07	21359
898.19	21576
898.311	21675
898.431	21568
898.552	21606
898.672	21690
898.792	21667
898.913	21553
899.033	21450
899.153	21370
899.273	21386
899.393	21378
899.513	21382
899.633	21279
899.753	21382
899.873	21268
899.993	21412
900.113	21294
900.232	21344
900.352	21173
900.472	21123
900.591	21047
900.711	21104
900.83	21058
900.95	21283
901.069	21157
901.189	21017
901.308	20731
901.427	20712
901.546	20724
901.665	20659
901.784	20655
901.904	20575
902.023	20431
902.141	20168
902.26	20206
902.379	20278
902.498	20142
902.617	20183
902.735	20259
902.854	20062
902.973	20092
903.091	19833
903.21	19822
903.328	19887
903.446	19689
903.565	19662
903.683	19605
903.801	19518
903.919	19575
904.038	19537
904.156	19434
904.274	19441
904.392	19499
904.51	19343
904.627	19381
904.745	19449
904.863	19445
904.981	19156
905.098	18996
905.216	19107
905.334	19053
905.451	19008
905.569	18993
905.686	18981
905.803	19042
905.921	18825
906.038	18867
906.155	18837
906.272	18749
906.389	18806
906.506	18623
906.623	18517
906.74	18502
906.857	18490
906.974	18483
907.091	18582
907.208	18665
907.324	18661
907.441	18540
907.557	18311
907.674	18346
907.79	18095
907.907	18155
908.023	18197
908.139	18239
908.256	18270
908.372	18197
908.488	18174
908.604	18015
908.72	17840
908.836	17950
908.952	17874
909.068	18003
909.184	18140
909.3	17946
909.415	18011
909.531	17942
909.647	17718
909.762	17699
909.878	17687
909.993	17790
910.108	17665
910.224	17596
910.339	17615
910.454	17520
910.57	17444
910.685	17459
910.8	17600
910.915	17767
911.03	17459
911.145	17318
911.259	17376
911.374	17315
911.489	17242
911.604	17094
911.718	16984
911.833	17022
911.947	16885
912.062	16930
912.176	16953
912.291	17014
912.405	16972
912.519	17132
912.633	17178
912.748	17048
912.862	16976
912.976	16767
913.09	16801
913.204	16801
913.318	16824
913.431	16908
913.545	16850
913.659	16831
913.772	16653
913.886	16573
914	16508
914.113	16561
914.226	16622
914.34	16596
914.453	16424
914.566	16538
914.68	16485
914.793	16306
914.906	16169
915.019	16268
915.132	16071
915.245	16051
915.358	16162
915.47	16185
915.583	16173
915.696	16124
915.809	16280
915.921	16268
916.034	16124
916.146	16097
916.259	16105
916.371	16139
916.483	16082
916.595	15949
916.708	16017
916.82	15930
916.932	16002
917.044	15899
917.156	15945
917.268	15785
917.38	15755
917.491	15686
917.603	15720
917.715	15759
917.826	15816
917.938	15698
918.049	15526
918.161	15743
918.272	15865
918.384	15804
918.495	15663
918.606	15557
918.717	15424
918.828	15580
918.939	15545
919.05	15363
919.161	15526
919.272	15313
919.383	15443
919.494	15500
919.604	15686
919.715	15431
919.826	15351
919.936	15485
920.047	15469
920.157	15504
920.267	15603
920.378	15458
920.488	15481
920.598	15591
920.708	15770
920.818	15545
920.928	15614
921.038	15694
921.148	15686
921.258	15386
921.368	15317
921.477	15230
921.587	15157
921.697	14986
921.806	15226
921.916	15013
922.025	14849
922.134	14750
922.244	14693
922.353	14891
922.462	14743
922.571	14693
922.68	14404
922.789	14412
922.898	14431
923.007	14393
923.116	14473
923.224	14442
923.333	14450
923.442	14252
923.55	14210
923.659	14240
923.767	14358
923.876	14229
923.984	14332
924.092	14145
924.201	14214
924.309	14077
924.417	14240
924.525	14058
924.633	14111
924.741	15009
924.849	13955
924.956	13986
925.064	13833
925.172	13685
925.279	13845
925.387	13746
925.494	13769
925.602	13925
925.709	13814
925.816	13597
925.924	13723
926.031	13791
926.138	13822
926.245	13856
926.352	13685
926.459	13761
926.566	13753
926.673	13662
926.779	13499
926.886	13514
926.993	13339
927.099	13354
927.206	13304
927.312	13263
927.419	13411
927.525	13301
927.631	13358
927.737	13259
927.843	13145
927.95	13027
928.056	13225
928.162	13240
928.267	13225
928.373	13818
928.479	13190
928.585	12913
928.69	13110
928.796	13129
928.901	12966
929.007	12810
929.112	12973
929.218	12920
929.323	12848
929.428	12848
929.533	12913
929.638	12783
929.743	12776
929.848	12684
929.953	12730
930.058	12696
930.163	12544
930.267	12540
930.372	12722
930.477	12456
930.581	12681
930.685	12525
930.79	12403
930.894	12357
930.998	12273
931.103	12422
931.207	12102
931.311	12049
931.415	11931
931.519	11718
931.623	11684
