Data from test_V78500241_2728.txt Node
Date: Fri Mar 25 16:00:41 CST 2022
User: usil
Spectrometer: V785-0024
Trigger mode: 0
Integration Time (sec): 4.000000E-1
Scans to average: 1
Nonlinearity correction enabled: false
Boxcar width: 0
Storing dark spectrum: false
XAxis mode: Wavelengths
Number of Pixels in Spectrum: 1024
>>>>>Begin Spectral Data<<<<<
801.071	28752
801.214	28710
801.356	28645
801.499	28580
801.641	28417
801.783	28356
801.926	28329
802.068	28398
802.211	28234
802.353	28314
802.496	28017
802.638	28246
802.78	27937
802.923	27983
803.065	28002
803.208	28147
803.35	28181
803.492	28147
803.635	28329
803.777	28181
803.919	28322
804.061	28615
804.204	28356
804.346	28253
804.488	28246
804.63	28322
804.773	28169
804.915	28478
805.057	28424
805.199	28390
805.341	28455
805.483	28519
805.626	28512
805.768	28337
805.91	28474
806.052	28546
806.194	28382
806.336	28584
806.478	28443
806.62	28561
806.762	28527
806.904	28881
807.046	28984
807.188	28934
807.33	28919
807.472	29064
807.614	28862
807.756	29003
807.898	28759
808.04	28683
808.182	28713
808.324	28809
808.465	28957
808.607	29056
808.749	29132
808.891	29105
809.033	29417
809.174	29337
809.316	29292
809.458	29197
809.6	29181
809.741	29345
809.883	29284
810.025	29379
810.166	29406
810.308	29341
810.45	29337
810.591	29223
810.733	29140
810.875	29189
811.016	29105
811.158	29170
811.299	29185
811.441	29372
811.582	29391
811.724	29181
811.865	29052
812.007	29071
812.148	29117
812.29	29200
812.431	29349
812.573	29566
812.714	29505
812.855	29745
812.997	29836
813.138	29935
813.279	29653
813.421	29821
813.562	29611
813.703	29444
813.845	29375
813.986	29109
814.127	28953
814.268	28946
814.41	28839
814.551	28858
814.692	28877
814.833	28763
814.974	28888
815.115	28858
815.256	28721
815.397	28847
815.539	28771
815.68	28729
815.821	28660
815.962	28786
816.103	28641
816.244	28474
816.385	28584
816.526	28561
816.666	28226
816.807	28097
816.948	28371
817.089	28306
817.23	28265
817.371	28173
817.512	28238
817.653	28116
817.793	28109
817.934	28223
818.075	28299
818.216	28253
818.356	28177
818.497	28067
818.638	27956
818.778	27987
818.919	28112
819.06	27949
819.2	28086
819.341	28166
819.481	28124
819.622	28295
819.762	28710
819.903	28455
820.043	28436
820.184	28356
820.324	28329
820.465	28390
820.605	28238
820.746	28390
820.886	28166
821.026	28253
821.167	28356
821.307	28344
821.447	28253
821.588	28128
821.728	27994
821.868	27899
822.008	27724
822.149	27850
822.289	27652
822.429	27469
822.569	27496
822.709	27458
822.849	27135
822.99	27146
823.13	27154
823.27	27176
823.41	26994
823.55	26956
823.69	26994
823.83	26948
823.97	27074
824.11	26815
824.25	26823
824.389	26857
824.529	27066
824.669	26796
824.809	26868
824.949	27051
825.089	26963
825.228	26986
825.368	26674
825.508	26731
825.648	26758
825.787	26659
825.927	26933
826.067	26678
826.206	26674
826.346	26834
826.485	26762
826.625	26804
826.765	26830
826.904	26777
827.044	26495
827.183	26670
827.323	26480
827.462	26393
827.601	26465
827.741	26473
827.88	26568
828.02	26320
828.159	26393
828.298	26526
828.437	26396
828.577	26419
828.716	26602
828.855	26511
828.994	26016
829.134	26069
829.273	26256
829.412	26126
829.551	26111
829.69	26126
829.829	26252
829.968	26172
830.107	26176
830.246	26054
830.385	26043
830.524	26016
830.663	25989
830.802	25856
830.941	25750
831.08	25784
831.219	25860
831.357	25803
831.496	25989
831.635	25708
831.774	25753
831.913	25628
832.051	25582
832.19	25556
832.329	25727
832.467	25392
832.606	25544
832.744	25491
832.883	25441
833.022	25449
833.16	25407
833.299	25240
833.437	25419
833.576	25552
833.714	25559
833.852	25499
833.991	25605
834.129	25666
834.267	25518
834.406	25483
834.544	25514
834.682	25491
834.821	25453
834.959	25594
835.097	25460
835.235	25453
835.373	25540
835.511	25415
835.65	25301
835.788	25278
835.926	25110
836.064	25126
836.202	25221
836.34	25232
836.478	25479
836.615	25289
836.753	25255
836.891	25415
837.029	25312
837.167	25350
837.305	25141
837.443	25118
837.58	25122
837.718	25179
837.856	25107
837.993	25008
838.131	25129
838.269	25061
838.406	25084
838.544	25065
838.681	24817
838.819	24741
838.956	24623
839.094	24555
839.231	24631
839.369	24700
839.506	24939
839.643	24867
839.781	24521
839.918	24517
840.055	24559
840.193	24612
840.33	24471
840.467	24513
840.604	24639
840.742	24749
840.879	24418
841.016	24445
841.153	24471
841.29	24768
841.427	24483
841.564	24456
841.701	24601
841.838	24464
841.975	24410
842.112	24426
842.249	24327
842.385	24289
842.522	24460
842.659	24330
842.796	24224
842.933	24178
843.069	24311
843.206	24201
843.343	24266
843.479	24353
843.616	24308
843.752	24026
843.889	24076
844.025	24114
844.162	24030
844.298	24079
844.435	24102
844.571	23965
844.708	24053
844.844	24224
844.98	24159
845.117	24125
845.253	24060
845.389	24007
845.525	23901
845.661	23859
845.798	23798
845.934	23832
846.07	23668
846.206	23726
846.342	23878
846.478	23611
846.614	23615
846.75	23478
846.886	23452
847.022	23474
847.158	23509
847.294	23531
847.429	23478
847.565	23455
847.701	23748
847.837	23277
847.972	23239
848.108	23398
848.244	23284
848.379	23147
848.515	23064
848.65	23124
848.786	23151
848.921	23113
849.057	23193
849.192	23200
849.328	23105
849.463	23151
849.598	22995
849.734	23048
849.869	22911
850.004	22805
850.14	22976
850.275	22740
850.41	22755
850.545	22866
850.68	22672
850.815	22942
850.95	22923
851.085	22961
851.22	22900
851.355	22866
851.49	22869
851.625	22862
851.76	22736
851.895	22744
852.03	22729
852.165	22915
852.299	22938
852.434	22843
852.569	22839
852.703	22885
852.838	22809
852.973	22965
853.107	22881
853.242	22767
853.376	22634
853.511	22485
853.645	22641
853.78	22721
853.914	22683
854.048	22634
854.183	22653
854.317	22702
854.451	22843
854.585	22656
854.72	22622
854.854	22782
854.988	22710
855.122	22569
855.256	22466
855.39	22622
855.524	22752
855.658	22790
855.792	22634
855.926	22641
856.06	22611
856.194	22786
856.327	22485
856.461	22592
856.595	22611
856.729	22664
856.862	22771
856.996	22672
857.13	22698
857.263	22809
857.397	22771
857.53	22713
857.664	22763
857.797	22759
857.931	22740
858.064	22729
858.197	22797
858.331	22691
858.464	22603
858.597	22618
858.731	22641
858.864	22596
858.997	22717
859.13	22763
859.263	22649
859.396	22752
859.529	22725
859.662	22618
859.795	22630
859.928	22573
860.061	22793
860.194	22904
860.327	22660
860.46	22611
860.592	22744
860.725	22820
860.858	22755
860.99	22672
861.123	22531
861.256	22550
861.388	22561
861.521	23315
861.653	22516
861.786	22508
861.918	22440
862.05	22356
862.183	22531
862.315	22698
862.447	22622
862.58	22478
862.712	22371
862.844	22417
862.976	22432
863.108	22436
863.24	22774
863.372	22352
863.504	22360
863.636	22440
863.768	22413
863.9	22424
864.032	22409
864.164	22177
864.296	22474
864.428	22424
864.559	22394
864.691	22405
864.823	22497
864.954	22371
865.086	22238
865.217	22276
865.349	22249
865.48	22295
865.612	22196
865.743	22310
865.875	22280
866.006	22234
866.137	22192
866.269	22246
866.4	22223
866.531	22143
866.662	22150
866.793	22093
866.924	22192
867.055	22253
867.186	22204
867.317	22093
867.448	22067
867.579	22063
867.71	22090
867.841	22177
867.972	22166
868.103	22147
868.233	22192
868.364	22139
868.495	22325
868.625	22356
868.756	22394
868.886	22375
869.017	22360
869.147	22466
869.278	22447
869.408	22478
869.539	22341
869.669	22363
869.799	22394
869.929	22489
870.06	22519
870.19	22649
870.32	22710
870.45	22790
870.58	22744
870.71	22892
870.84	22949
870.97	22729
871.1	22786
871.23	22881
871.36	22999
871.489	22850
871.619	22957
871.749	22957
871.879	22999
872.008	23178
872.138	23060
872.267	22961
872.397	22828
872.526	22782
872.656	22889
872.785	22877
872.915	23060
873.044	23208
873.173	23025
873.303	23029
873.432	23102
873.561	23208
873.69	23102
873.819	23094
873.948	23086
874.077	23052
874.206	22949
874.335	23025
874.464	23109
874.593	23387
874.722	23261
874.851	23261
874.979	23322
875.108	23318
875.237	23212
875.365	23147
875.494	23090
875.623	23318
875.751	23159
875.88	23307
876.008	23402
876.136	23376
876.265	23589
876.393	23752
876.521	23767
876.65	23714
876.778	23668
876.906	23425
877.034	23558
877.162	23600
877.29	23539
877.418	23543
877.546	23604
877.674	23623
877.802	23630
877.93	23558
878.058	23490
878.185	23395
878.313	23509
878.441	23642
878.568	23478
878.696	23505
878.824	23604
878.951	23600
879.079	23828
879.206	23893
879.333	23691
879.461	23623
879.588	23722
879.715	23676
879.842	23893
879.97	23828
880.097	23292
880.224	23360
880.351	23231
880.478	23372
880.605	23452
880.732	23376
880.859	23501
880.986	23444
881.112	23505
881.239	23296
881.366	23109
881.493	23185
881.619	22991
881.746	23029
881.872	23048
881.999	22919
882.125	22911
882.252	22885
882.378	22927
882.505	23003
882.631	22862
882.757	22672
882.883	22675
883.01	22649
883.136	22615
883.262	22470
883.388	22546
883.514	22649
883.64	22634
883.766	22554
883.892	22413
884.018	22478
884.143	22588
884.269	22603
884.395	22360
884.52	22128
884.646	22280
884.772	22215
884.897	22162
885.023	22230
885.148	22398
885.274	22466
885.399	22299
885.524	22333
885.65	22329
885.775	22265
885.9	22280
886.025	22409
886.15	22413
886.275	22333
886.4	22139
886.525	22223
886.65	22268
886.775	22162
886.9	22226
887.025	22424
887.149	22204
887.274	22036
887.399	22143
887.523	21991
887.648	22025
887.773	21911
887.897	22051
888.021	22112
888.146	21861
888.27	22086
888.395	22044
888.519	22021
888.643	21964
888.767	22025
888.891	21926
889.015	21793
889.139	21911
889.263	21736
889.387	21922
889.511	22025
889.635	21857
889.759	21759
889.883	21827
890.006	21728
890.13	21785
890.254	21785
890.377	21686
890.501	21671
890.624	21530
890.748	21679
890.871	21336
890.995	21344
891.118	21477
891.241	21458
891.364	21450
891.488	21393
891.611	21340
891.734	21382
891.857	21466
891.98	21416
892.103	21408
892.226	21389
892.349	21336
892.471	21127
892.594	21363
892.717	21260
892.839	21169
892.962	21272
893.085	21275
893.207	21272
893.33	21108
893.452	21275
893.575	21218
893.697	21241
893.819	21473
893.941	21435
894.064	21382
894.186	21169
894.308	21222
894.43	21317
894.552	21401
894.674	21176
894.796	21119
894.918	21306
895.04	21093
895.161	21260
895.283	21313
895.405	21165
895.526	21207
895.648	21226
895.769	21420
895.891	21298
896.012	21256
896.134	21279
896.255	21211
896.376	21222
896.498	21207
896.619	21275
896.74	21157
896.861	21374
896.982	21576
897.103	21610
897.224	21420
897.345	21481
897.466	21405
897.587	21374
897.708	21583
897.828	21450
897.949	21336
898.07	21294
898.19	21336
898.311	21348
898.431	21370
898.552	21473
898.672	21454
898.792	21477
898.913	21420
899.033	21325
899.153	21279
899.273	21074
899.393	21154
899.513	21195
899.633	21104
899.753	21283
899.873	21062
899.993	21138
900.113	21112
900.232	21135
900.352	21047
900.472	20956
900.591	20944
900.711	20853
900.83	20845
900.95	21074
901.069	21020
901.189	20750
901.308	20537
901.427	20533
901.546	20480
901.665	20526
901.784	20434
901.904	20396
902.023	20317
902.141	20164
902.26	20005
902.379	20046
902.498	20020
902.617	19902
902.735	19951
902.854	19906
902.973	19791
903.091	19620
903.21	19635
903.328	19700
903.446	19491
903.565	19407
903.683	19483
903.801	19278
903.919	19407
904.038	19377
904.156	19221
904.274	19282
904.392	19141
904.51	19137
904.627	19118
904.745	19156
904.863	19236
904.981	19061
905.098	18848
905.216	18806
905.334	18878
905.451	18897
905.569	18749
905.686	18848
905.803	18848
905.921	18627
906.038	18730
906.155	18563
906.272	18544
906.389	18475
906.506	18388
906.623	18429
906.74	18235
906.857	18167
906.974	18266
907.091	18380
907.208	18429
907.324	18365
907.441	18315
907.557	18102
907.674	18098
907.79	18102
907.907	17961
908.023	18159
908.139	18133
908.256	18011
908.372	17927
908.488	17840
908.604	17794
908.72	17714
908.836	17752
908.952	17760
909.068	17859
909.184	17908
909.3	17874
909.415	17798
909.531	17851
909.647	17589
909.762	17414
909.878	17474
909.993	17551
910.108	17421
910.224	17376
910.339	17539
910.454	17280
910.57	17178
910.685	17193
910.8	17406
910.915	17391
911.03	17231
911.145	17178
911.259	17075
911.374	17029
911.489	17018
911.604	16980
911.718	16790
911.833	16763
911.947	16710
912.062	16637
912.176	16843
912.291	16805
912.405	16679
912.519	16938
912.633	16999
912.748	16820
912.862	16755
912.976	16630
913.09	16546
913.204	16687
913.318	16634
913.431	16748
913.545	16706
913.659	16641
913.772	16554
913.886	16382
914	16409
914.113	16443
914.226	16504
914.34	16459
914.453	16284
914.566	16344
914.68	16348
914.793	16234
914.906	16131
915.019	15857
915.132	15945
915.245	15934
915.358	16055
915.47	16040
915.583	15964
915.696	15960
915.809	15991
915.921	16025
916.034	15850
916.146	15827
916.259	15827
916.371	15937
916.483	15918
916.595	15751
916.708	15800
916.82	15766
916.932	15732
917.044	15694
917.156	15732
917.268	15553
917.38	15504
917.491	15504
917.603	15526
917.715	15641
917.826	15705
917.938	15530
918.049	15408
918.161	15557
918.272	15690
918.384	15610
918.495	15629
918.606	15325
918.717	15355
918.828	15287
918.939	15340
919.05	15245
919.161	15321
919.272	15036
919.383	15199
919.494	15302
919.604	15644
919.715	15359
919.826	15165
919.936	15165
920.047	15260
920.157	15233
920.267	15450
920.378	15332
920.488	15218
920.598	15462
920.708	15523
920.818	15325
920.928	15401
921.038	15485
921.148	15450
921.258	15173
921.368	15104
921.477	14998
921.587	14948
921.697	14872
921.806	15028
921.916	14861
922.025	14765
922.134	14613
922.244	14644
922.353	14731
922.462	14530
922.571	14495
922.68	14362
922.789	14259
922.898	14263
923.007	14092
923.116	14362
923.224	14172
923.333	14225
923.442	14142
923.55	14123
923.659	14073
923.767	14012
923.876	14043
923.984	14145
924.092	13951
924.201	14081
924.309	14039
924.417	13921
924.525	13921
924.633	14001
924.741	14834
924.849	13715
924.956	13742
925.064	13719
925.172	13559
925.279	13639
925.387	13662
925.494	13605
925.602	13765
925.709	13700
925.816	13537
925.924	13578
926.031	13674
926.138	13510
926.245	13601
926.352	13495
926.459	13575
926.566	13643
926.673	13544
926.779	13464
926.886	13343
926.993	13251
927.099	13145
927.206	13095
927.312	13088
927.419	13213
927.525	13179
927.631	13236
927.737	13046
927.843	13076
927.95	12920
928.056	12958
928.162	13038
928.267	12977
928.373	13464
928.479	13065
928.585	12878
928.69	12935
928.796	13050
928.901	12833
929.007	12669
929.112	12878
929.218	12844
929.323	12734
929.428	12734
929.533	12894
929.638	12665
929.743	12734
929.848	12703
929.953	12635
930.058	12502
930.163	12464
930.267	12494
930.372	12506
930.477	12330
930.581	12604
930.685	12441
930.79	12239
930.894	12289
930.998	12330
931.103	12346
931.207	11958
931.311	11969
931.415	11748
931.519	11684
931.623	11726
