Data from test_V78500241_3224.txt Node
Date: Fri Mar 25 16:04:08 CST 2022
User: usil
Spectrometer: V785-0024
Trigger mode: 0
Integration Time (sec): 4.000000E-1
Scans to average: 1
Nonlinearity correction enabled: false
Boxcar width: 0
Storing dark spectrum: false
XAxis mode: Wavelengths
Number of Pixels in Spectrum: 1024
>>>>>Begin Spectral Data<<<<<
801.071	28740
801.214	28634
801.356	28630
801.499	28497
801.641	28356
801.783	28428
801.926	28394
802.068	28375
802.211	28166
802.353	28124
802.496	28021
802.638	28036
802.78	28131
802.923	28010
803.065	27911
803.208	28173
803.35	27975
803.492	28169
803.635	28124
803.777	28185
803.919	28337
804.061	28497
804.204	28367
804.346	28211
804.488	28268
804.63	28314
804.773	28150
804.915	28314
805.057	28337
805.199	28356
805.341	28432
805.483	28470
805.626	28436
805.768	28223
805.91	28341
806.052	28447
806.194	28436
806.336	28611
806.478	28417
806.62	28447
806.762	28588
806.904	28801
807.046	28961
807.188	28698
807.33	28888
807.472	28949
807.614	28778
807.756	28854
807.898	28812
808.04	28592
808.182	28752
808.324	28641
808.465	28820
808.607	29086
808.749	29322
808.891	29258
809.033	29227
809.174	29193
809.316	29166
809.458	29121
809.6	29185
809.741	29060
809.883	29269
810.025	29353
810.166	29493
810.308	29391
810.45	29391
810.591	29414
810.733	29220
810.875	29231
811.016	29227
811.158	28995
811.299	29235
811.441	29280
811.582	29280
811.724	29303
811.865	29311
812.007	29136
812.148	29132
812.29	29193
812.431	29398
812.573	29505
812.714	29570
812.855	29699
812.997	29722
813.138	29946
813.279	29828
813.421	29828
813.562	29653
813.703	29543
813.845	29520
813.986	29121
814.127	29121
814.268	28698
814.41	28892
814.551	28854
814.692	28942
814.833	28858
814.974	28763
815.115	28923
815.256	28691
815.397	28949
815.539	28668
815.68	28755
815.821	28607
815.962	28771
816.103	28660
816.244	28596
816.385	28447
816.526	28401
816.666	28306
816.807	28150
816.948	28139
817.089	28329
817.23	28242
817.371	28078
817.512	28109
817.653	28158
817.793	28234
817.934	28333
818.075	28204
818.216	28116
818.356	28265
818.497	28128
818.638	27869
818.778	28025
818.919	27865
819.06	28048
819.2	28154
819.341	28143
819.481	28162
819.622	28329
819.762	28409
819.903	28428
820.043	28329
820.184	28333
820.324	28276
820.465	28390
820.605	28303
820.746	28291
820.886	28162
821.026	28348
821.167	28272
821.307	28390
821.447	28192
821.588	28090
821.728	28044
821.868	27842
822.008	27679
822.149	27766
822.289	27614
822.429	27363
822.569	27386
822.709	27336
822.849	27199
822.99	27252
823.13	27199
823.27	27138
823.41	26925
823.55	26940
823.69	27100
823.83	27013
823.97	27001
824.11	26925
824.25	26815
824.389	26724
824.529	26956
824.669	26807
824.809	27123
824.949	26986
825.089	26872
825.228	26971
825.368	26712
825.508	26552
825.648	26792
825.787	26644
825.927	26811
826.067	26769
826.206	26777
826.346	26701
826.485	26944
826.625	26819
826.765	26914
826.904	26872
827.044	26511
827.183	26571
827.323	26514
827.462	26644
827.601	26438
827.741	26374
827.88	26370
828.02	26328
828.159	26476
828.298	26495
828.437	26609
828.577	26442
828.716	26686
828.855	26358
828.994	26157
829.134	26271
829.273	26214
829.412	26081
829.551	26065
829.69	26164
829.829	26073
829.968	26233
830.107	26214
830.246	26164
830.385	26058
830.524	26103
830.663	25978
830.802	25822
830.941	25909
831.08	25795
831.219	25852
831.357	26027
831.496	26005
831.635	25807
831.774	25681
831.913	25689
832.051	25525
832.19	25582
832.329	25590
832.467	25502
832.606	25495
832.744	25396
832.883	25441
833.022	25453
833.16	25556
833.299	25400
833.437	25476
833.576	25582
833.714	25590
833.852	25616
833.991	25677
834.129	25590
834.267	25544
834.406	25422
834.544	25544
834.682	25651
834.821	25339
834.959	25670
835.097	25445
835.235	25537
835.373	25441
835.511	25407
835.65	25381
835.788	25392
835.926	25168
836.064	25137
836.202	25160
836.34	25331
836.478	25346
836.615	25297
836.753	25369
836.891	25403
837.029	25327
837.167	25213
837.305	25198
837.443	25198
837.58	25232
837.718	25232
837.856	25244
837.993	25065
838.131	25133
838.269	24977
838.406	25137
838.544	24943
838.681	24795
838.819	24791
838.956	24730
839.094	24700
839.231	24745
839.369	24738
839.506	24958
839.643	24909
839.781	24661
839.918	24639
840.055	24745
840.193	24604
840.33	24448
840.467	24479
840.604	24620
840.742	24757
840.879	24357
841.016	24456
841.153	24509
841.29	24551
841.427	24616
841.564	24661
841.701	24422
841.838	24342
841.975	24483
842.112	24372
842.249	24296
842.385	24327
842.522	24513
842.659	24319
842.796	24304
842.933	24304
843.069	24220
843.206	24327
843.343	24258
843.479	24422
843.616	24152
843.752	24079
843.889	24034
844.025	24239
844.162	24083
844.298	24152
844.435	24053
844.571	23878
844.708	24106
844.844	24292
844.98	24289
845.117	24159
845.253	24003
845.389	23882
845.525	24057
845.661	23923
845.798	23802
845.934	23946
846.07	23790
846.206	23752
846.342	23885
846.478	23752
846.614	23558
846.75	23376
846.886	23372
847.022	23573
847.158	23653
847.294	23467
847.429	23448
847.565	23368
847.701	23699
847.837	23265
847.972	23239
848.108	23296
848.244	23235
848.379	23109
848.515	23128
848.65	22999
848.786	23242
848.921	23147
849.057	23265
849.192	23197
849.328	23166
849.463	23159
849.598	23025
849.734	22927
849.869	22934
850.004	22862
850.14	22869
850.275	22809
850.41	22831
850.545	22691
850.68	22915
850.815	22858
850.95	22839
851.085	23033
851.22	22858
851.355	22877
851.49	22850
851.625	22748
851.76	22915
851.895	22816
852.03	22717
852.165	22736
852.299	23018
852.434	22980
852.569	23041
852.703	22843
852.838	22805
852.973	22961
853.107	22953
853.242	22740
853.376	22763
853.511	22550
853.645	22603
853.78	22767
853.914	22790
854.048	22596
854.183	22683
854.317	22706
854.451	22896
854.585	22733
854.72	22607
854.854	22774
854.988	22630
855.122	22740
855.256	22615
855.39	22664
855.524	22744
855.658	22805
855.792	22763
855.926	22744
856.06	22763
856.194	22828
856.327	22653
856.461	22531
856.595	22592
856.729	22607
856.862	22786
856.996	22683
857.13	22847
857.263	22752
857.397	22801
857.53	22683
857.664	22645
857.797	22607
857.931	22755
858.064	22630
858.197	22675
858.331	22698
858.464	22577
858.597	22569
858.731	22637
858.864	22607
858.997	22691
859.13	22706
859.263	22622
859.396	22843
859.529	22744
859.662	22615
859.795	22554
859.928	22679
860.061	22767
860.194	22839
860.327	22824
860.46	22713
860.592	22816
860.725	22793
860.858	22824
860.99	22771
861.123	22531
861.256	22599
861.388	22725
861.521	23410
861.653	22596
861.786	22447
861.918	22485
862.05	22569
862.183	22668
862.315	22660
862.447	22664
862.58	22474
862.712	22462
862.844	22223
862.976	22390
863.108	22455
863.24	22580
863.372	22287
863.504	22390
863.636	22356
863.768	22356
863.9	22382
864.032	22291
864.164	22242
864.296	22402
864.428	22470
864.559	22367
864.691	22462
864.823	22314
864.954	22443
865.086	22447
865.217	22215
865.349	22192
865.48	22284
865.612	22230
865.743	22386
865.875	22242
866.006	22230
866.137	22249
866.269	22360
866.4	22211
866.531	22261
866.662	22162
866.793	22223
866.924	22116
867.055	22234
867.186	22234
867.317	22150
867.448	22097
867.579	22063
867.71	22025
867.841	22013
867.972	22169
868.103	22204
868.233	22257
868.364	22162
868.495	22291
868.625	22440
868.756	22565
868.886	22478
869.017	22440
869.147	22478
869.278	22508
869.408	22405
869.539	22402
869.669	22462
869.799	22386
869.929	22519
870.06	22481
870.19	22653
870.32	22816
870.45	22672
870.58	22847
870.71	22843
870.84	22942
870.97	22828
871.1	22774
871.23	23018
871.36	22949
871.489	22896
871.619	23022
871.749	23117
871.879	23105
872.008	23166
872.138	23064
872.267	23090
872.397	22919
872.526	22858
872.656	22858
872.785	22919
872.915	23147
873.044	23117
873.173	22984
873.303	23132
873.432	23052
873.561	23147
873.69	23128
873.819	23029
873.948	23071
874.077	23102
874.206	23010
874.335	22957
874.464	23299
874.593	23307
874.722	23208
874.851	23311
874.979	23330
875.108	23277
875.237	23162
875.365	23079
875.494	23235
875.623	23284
875.751	23193
875.88	23273
876.008	23326
876.136	23444
876.265	23642
876.393	23836
876.521	23756
876.65	23851
876.778	23737
876.906	23630
877.034	23661
877.162	23634
877.29	23710
877.418	23623
877.546	23714
877.674	23604
877.802	23596
877.93	23642
878.058	23459
878.185	23493
878.313	23516
878.441	23592
878.568	23372
878.696	23482
878.824	23646
878.951	23699
879.079	23703
879.206	23996
879.333	23927
879.461	23695
879.588	23733
879.715	23764
879.842	23840
879.97	23760
880.097	23512
880.224	23433
880.351	23501
880.478	23436
880.605	23463
880.732	23501
880.859	23623
880.986	23436
881.112	23391
881.239	23090
881.366	23067
881.493	23067
881.619	22919
881.746	23056
881.872	22908
881.999	23048
882.125	22896
882.252	22991
882.378	22911
882.505	23113
882.631	22847
882.757	22725
882.883	22725
883.01	22656
883.136	22618
883.262	22497
883.388	22546
883.514	22664
883.64	22653
883.766	22554
883.892	22417
884.018	22455
884.143	22691
884.269	22687
884.395	22314
884.52	22211
884.646	22276
884.772	22390
884.897	22169
885.023	22295
885.148	22360
885.274	22379
885.399	22421
885.524	22181
885.65	22329
885.775	22356
885.9	22215
886.025	22409
886.15	22375
886.275	22162
886.4	22128
886.525	22150
886.65	22143
886.775	22158
886.9	22314
887.025	22356
887.149	22261
887.274	22025
887.399	22006
887.523	22040
887.648	21842
887.773	21865
887.897	22204
888.021	22017
888.146	21930
888.27	22105
888.395	22040
888.519	21895
888.643	22120
888.767	22051
888.891	22051
889.015	21869
889.139	21838
889.263	21842
889.387	21911
889.511	22044
889.635	21968
889.759	21857
889.883	21739
890.006	21778
890.13	21895
890.254	21709
890.377	21736
890.501	21580
890.624	21488
890.748	21766
890.871	21408
890.995	21287
891.118	21275
891.241	21374
891.364	21291
891.488	21637
891.611	21374
891.734	21363
891.857	21279
891.98	21359
892.103	21393
892.226	21351
892.349	21245
892.471	21131
892.594	21287
892.717	21249
892.839	21146
892.962	21184
893.085	21416
893.207	21165
893.33	21135
893.452	21108
893.575	21203
893.697	21074
893.819	21424
893.941	21469
894.064	21351
894.186	21146
894.308	21036
894.43	21386
894.552	21405
894.674	21302
894.796	21142
894.918	21184
895.04	21173
895.161	21222
895.283	21256
895.405	21203
895.526	21131
895.648	21192
895.769	21230
895.891	21302
896.012	21302
896.134	21298
896.255	21370
896.376	21169
896.498	21161
896.619	21294
896.74	21119
896.861	21211
896.982	21641
897.103	21652
897.224	21507
897.345	21363
897.466	21428
897.587	21424
897.708	21355
897.828	21485
897.949	21473
898.07	21256
898.19	21272
898.311	21351
898.431	21428
898.552	21412
898.672	21477
898.792	21549
898.913	21439
899.033	21321
899.153	21199
899.273	20990
899.393	21241
899.513	21291
899.633	21264
899.753	21123
899.873	21135
899.993	21157
900.113	21123
900.232	21173
900.352	20990
900.472	20876
900.591	20921
900.711	21013
900.83	20948
900.95	20925
901.069	20975
901.189	20655
901.308	20606
901.427	20415
901.546	20484
901.665	20545
901.784	20362
901.904	20267
902.023	20298
902.141	20153
902.26	19955
902.379	20077
902.498	19955
902.617	19845
902.735	20096
902.854	19879
902.973	19909
903.091	19540
903.21	19655
903.328	19559
903.446	19537
903.565	19483
903.683	19441
903.801	19263
903.919	19430
904.038	19445
904.156	19240
904.274	19297
904.392	19179
904.51	19156
904.627	19175
904.745	19274
904.863	19156
904.981	18970
905.098	18867
905.216	18825
905.334	18886
905.451	18901
905.569	18894
905.686	18863
905.803	18821
905.921	18749
906.038	18700
906.155	18559
906.272	18483
906.389	18589
906.506	18380
906.623	18380
906.74	18357
906.857	18228
906.974	18220
907.091	18471
907.208	18460
907.324	18410
907.441	18262
907.557	17996
907.674	18072
907.79	18015
907.907	18057
908.023	18171
908.139	17954
908.256	18068
908.372	18053
908.488	17923
908.604	17882
908.72	17764
908.836	17798
908.952	17718
909.068	17874
909.184	17942
909.3	17805
909.415	17836
909.531	17729
909.647	17604
909.762	17573
909.878	17524
909.993	17551
910.108	17448
910.224	17372
910.339	17528
910.454	17334
910.57	17372
910.685	17288
910.8	17452
910.915	17478
911.03	17356
911.145	17128
911.259	17022
911.374	17045
911.489	17045
911.604	16938
911.718	16774
911.833	16854
911.947	16755
912.062	16702
912.176	16850
912.291	16771
912.405	16850
912.519	16949
912.633	17022
912.748	16694
912.862	16759
912.976	16641
913.09	16493
913.204	16656
913.318	16653
913.431	16774
913.545	16687
913.659	16683
913.772	16508
913.886	16394
914	16303
914.113	16478
914.226	16375
914.34	16424
914.453	16303
914.566	16417
914.68	16215
914.793	16322
914.906	16036
915.019	15987
915.132	15949
915.245	15972
915.358	16078
915.47	15918
915.583	15949
915.696	16051
915.809	16093
915.921	16090
916.034	15915
916.146	15804
916.259	15835
916.371	15899
916.483	15926
916.595	15854
916.708	15770
916.82	15854
916.932	15701
917.044	15751
917.156	15728
917.268	15637
917.38	15599
917.491	15568
917.603	15622
917.715	15682
917.826	15606
917.938	15637
918.049	15485
918.161	15454
918.272	15591
918.384	15705
918.495	15606
918.606	15344
918.717	15340
918.828	15336
918.939	15382
919.05	15272
919.161	15287
919.272	15195
919.383	15081
919.494	15291
919.604	15443
919.715	15279
919.826	15233
919.936	15245
920.047	15237
920.157	15252
920.267	15496
920.378	15370
920.488	15275
920.598	15424
920.708	15641
920.818	15340
920.928	15488
921.038	15580
921.148	15462
921.258	15249
921.368	15218
921.477	15100
921.587	15009
921.697	14830
921.806	14963
921.916	14807
922.025	14727
922.134	14754
922.244	14613
922.353	14602
922.462	14526
922.571	14457
922.68	14313
922.789	14347
922.898	14393
923.007	14221
923.116	14320
923.224	14206
923.333	14282
923.442	14119
923.55	14149
923.659	14191
923.767	14130
923.876	14031
923.984	14046
924.092	14008
924.201	14081
924.309	14081
924.417	14126
924.525	13856
924.633	13868
924.741	14674
924.849	13757
924.956	13795
925.064	13715
925.172	13715
925.279	13643
925.387	13715
925.494	13670
925.602	13845
925.709	13719
925.816	13548
925.924	13575
926.031	13563
926.138	13575
926.245	13655
926.352	13529
926.459	13655
926.566	13685
926.673	13434
926.779	13464
926.886	13381
926.993	13247
927.099	13107
927.206	13202
927.312	13183
927.419	13217
927.525	13263
927.631	13217
927.737	13069
927.843	13069
927.95	12985
928.056	12954
928.162	13053
928.267	13012
928.373	13578
928.479	13057
928.585	12814
928.69	12905
928.796	12962
928.901	12840
929.007	12745
929.112	12844
929.218	12791
929.323	12726
929.428	12711
929.533	12882
929.638	12681
929.743	12681
929.848	12696
929.953	12585
930.058	12544
930.163	12243
930.267	12319
930.372	12555
930.477	12365
930.581	12532
930.685	12445
930.79	12216
930.894	12319
930.998	12216
931.103	12330
931.207	11973
931.311	11977
931.415	11836
931.519	11608
931.623	11566
