Data from test_V78500241_1608.txt Node
Date: Fri Mar 25 15:52:56 CST 2022
User: usil
Spectrometer: V785-0024
Trigger mode: 0
Integration Time (sec): 4.000000E-1
Scans to average: 1
Nonlinearity correction enabled: false
Boxcar width: 0
Storing dark spectrum: false
XAxis mode: Wavelengths
Number of Pixels in Spectrum: 1024
>>>>>Begin Spectral Data<<<<<
801.071	28097
801.214	28135
801.356	27907
801.499	27884
801.641	27762
801.783	27618
801.926	27793
802.068	27690
802.211	27728
802.353	27641
802.496	27458
802.638	27340
802.78	27332
802.923	27279
803.065	27218
803.208	27279
803.35	27443
803.492	27488
803.635	27660
803.777	27519
803.919	27561
804.061	27911
804.204	27728
804.346	27526
804.488	27549
804.63	27568
804.773	27507
804.915	27549
805.057	27679
805.199	27606
805.341	27770
805.483	27797
805.626	27701
805.768	27545
805.91	27743
806.052	27778
806.194	27743
806.336	27865
806.478	27793
806.62	27694
806.762	27774
806.904	28143
807.046	28306
807.188	28200
807.33	28207
807.472	28276
807.614	28204
807.756	28272
807.898	28166
808.04	27972
808.182	27937
808.324	27987
808.465	28188
808.607	28333
808.749	28470
808.891	28481
809.033	28535
809.174	28573
809.316	28280
809.458	28421
809.6	28352
809.741	28470
809.883	28645
810.025	28755
810.166	28706
810.308	28611
810.45	28630
810.591	28466
810.733	28413
810.875	28344
811.016	28268
811.158	28390
811.299	28417
811.441	28580
811.582	28394
811.724	28443
811.865	28379
812.007	28417
812.148	28375
812.29	28382
812.431	28527
812.573	28782
812.714	28843
812.855	28930
812.997	29143
813.138	29181
813.279	29079
813.421	28904
813.562	28934
813.703	28706
813.845	28626
813.986	28390
814.127	28204
814.268	28131
814.41	28223
814.551	28036
814.692	28166
814.833	27998
814.974	28147
815.115	28150
815.256	28086
815.397	27975
815.539	27884
815.68	27854
815.821	27922
815.962	27876
816.103	27827
816.244	27762
816.385	27698
816.526	27701
816.666	27454
816.807	27348
816.948	27492
817.089	27526
817.23	27462
817.371	27511
817.512	27424
817.653	27401
817.793	27275
817.934	27408
818.075	27393
818.216	27431
818.356	27302
818.497	27283
818.638	27100
818.778	27127
818.919	27161
819.06	27218
819.2	27241
819.341	27332
819.481	27370
819.622	27427
819.762	27736
819.903	27526
820.043	27583
820.184	27454
820.324	27507
820.465	27667
820.605	27519
820.746	27386
820.886	27245
821.026	27545
821.167	27507
821.307	27618
821.447	27412
821.588	27355
821.728	27188
821.868	27096
822.008	27051
822.149	26842
822.289	26956
822.429	26689
822.569	26461
822.709	26659
822.849	26362
822.99	26423
823.13	26320
823.27	26366
823.41	26195
823.55	26115
823.69	26332
823.83	26157
823.97	26115
824.11	26012
824.25	26054
824.389	25970
824.529	26008
824.669	26073
824.809	26126
824.949	26111
825.089	26016
825.228	26157
825.368	25822
825.508	25860
825.648	25944
825.787	25852
825.927	25963
826.067	25921
826.206	25761
826.346	25970
826.485	25871
826.625	25997
826.765	26035
826.904	25894
827.044	25597
827.183	25655
827.323	25643
827.462	25723
827.601	25537
827.741	25533
827.88	25632
828.02	25533
828.159	25635
828.298	25601
828.437	25578
828.577	25449
828.716	25689
828.855	25392
828.994	25362
829.134	25430
829.273	25415
829.412	25228
829.551	25183
829.69	25206
829.829	25316
829.968	25346
830.107	25384
830.246	25282
830.385	25088
830.524	25240
830.663	25164
830.802	25027
830.941	24897
831.08	24833
831.219	24894
831.357	24962
831.496	25023
831.635	24913
831.774	24783
831.913	24821
832.051	24684
832.19	24696
832.329	24665
832.467	24654
832.606	24593
832.744	24391
832.883	24582
833.022	24498
833.16	24612
833.299	24642
833.437	24631
833.576	24555
833.714	24665
833.852	24700
833.991	24711
834.129	24783
834.267	24612
834.406	24642
834.544	24650
834.682	24627
834.821	24467
834.959	24825
835.097	24490
835.235	24703
835.373	24525
835.511	24700
835.65	24517
835.788	24399
835.926	24239
836.064	24235
836.202	24194
836.34	24513
836.478	24479
836.615	24399
836.753	24498
836.891	24391
837.029	24559
837.167	24380
837.305	24350
837.443	24311
837.58	24224
837.718	24361
837.856	24197
837.993	24159
838.131	24281
838.269	24140
838.406	24232
838.544	24117
838.681	23904
838.819	23866
838.956	23756
839.094	23805
839.231	23817
839.369	23923
839.506	24186
839.643	24022
839.781	23726
839.918	23642
840.055	23737
840.193	23817
840.33	23589
840.467	23786
840.604	23699
840.742	23942
840.879	23558
841.016	23638
841.153	23570
841.29	23714
841.427	23619
841.564	23737
841.701	23577
841.838	23573
841.975	23520
842.112	23524
842.249	23360
842.385	23501
842.522	23615
842.659	23585
842.796	23528
842.933	23356
843.069	23406
843.206	23379
843.343	23417
843.479	23368
843.616	23417
843.752	23086
843.889	23322
844.025	23353
844.162	23307
844.298	23254
844.435	23143
844.571	23181
844.708	23216
844.844	23383
844.98	23398
845.117	23364
845.253	23132
845.389	23170
845.525	23041
845.661	22980
845.798	22862
845.934	22984
846.07	22896
846.206	22930
846.342	23071
846.478	22934
846.614	22702
846.75	22577
846.886	22653
847.022	22755
847.158	22786
847.294	22603
847.429	22767
847.565	22596
847.701	22908
847.837	22500
847.972	22405
848.108	22577
848.244	22489
848.379	22386
848.515	22242
848.65	22303
848.786	22238
848.921	22261
849.057	22329
849.192	22219
849.328	22417
849.463	22249
849.598	22257
849.734	22063
849.869	22154
850.004	22067
850.14	22185
850.275	21956
850.41	21800
850.545	22036
850.68	21972
850.815	22017
850.95	21895
851.085	22185
851.22	22067
851.355	21941
851.49	21987
851.625	21983
851.76	21934
851.895	21880
852.03	21972
852.165	21953
852.299	22036
852.434	22101
852.569	22082
852.703	21956
852.838	22036
852.973	22101
853.107	22070
853.242	21816
853.376	21854
853.511	21797
853.645	21873
853.78	21922
853.914	21831
854.048	21903
854.183	21835
854.317	21827
854.451	21979
854.585	21842
854.72	21778
854.854	21926
854.988	21686
855.122	21812
855.256	21797
855.39	21827
855.524	21876
855.658	21861
855.792	21880
855.926	21793
856.06	21842
856.194	21861
856.327	21781
856.461	21835
856.595	21698
856.729	21838
856.862	21953
856.996	21899
857.13	21865
857.263	22013
857.397	22059
857.53	21728
857.664	21816
857.797	21876
857.931	21979
858.064	21846
858.197	21869
858.331	21884
858.464	21766
858.597	21736
858.731	21766
858.864	21774
858.997	21774
859.13	21785
859.263	21717
859.396	21827
859.529	21892
859.662	21682
859.795	21861
859.928	21842
860.061	21953
860.194	21945
860.327	21930
860.46	21804
860.592	22021
860.725	21930
860.858	21907
860.99	21842
861.123	21797
861.256	21736
861.388	21785
861.521	22462
861.653	21534
861.786	21549
861.918	21671
862.05	21724
862.183	21698
862.315	21759
862.447	21861
862.58	21717
862.712	21576
862.844	21519
862.976	21648
863.108	21622
863.24	21979
863.372	21511
863.504	21625
863.636	21538
863.768	21367
863.9	21557
864.032	21412
864.164	21439
864.296	21519
864.428	21720
864.559	21530
864.691	21576
864.823	21591
864.954	21504
865.086	21534
865.217	21462
865.349	21363
865.48	21344
865.612	21614
865.743	21545
865.875	21450
866.006	21450
866.137	21439
866.269	21389
866.4	21298
866.531	21386
866.662	21424
866.793	21279
866.924	21310
867.055	21507
867.186	21260
867.317	21192
867.448	21298
867.579	21298
867.71	21176
867.841	21230
867.972	21367
868.103	21306
868.233	21321
868.364	21298
868.495	21420
868.625	21736
868.756	21701
868.886	21553
869.017	21549
869.147	21660
869.278	21800
869.408	21545
869.539	21671
869.669	21652
869.799	21690
869.929	21633
870.06	21747
870.19	21888
870.32	21964
870.45	21895
870.58	21964
870.71	22067
870.84	22112
870.97	21972
871.1	21907
871.23	22223
871.36	22242
871.489	22032
871.619	22177
871.749	22230
871.879	22268
872.008	22238
872.138	22291
872.267	22230
872.397	22002
872.526	21979
872.656	22086
872.785	22090
872.915	22295
873.044	22261
873.173	22249
873.303	22090
873.432	22348
873.561	22402
873.69	22329
873.819	22287
873.948	22367
874.077	22246
874.206	22234
874.335	22112
874.464	22325
874.593	22489
874.722	22481
874.851	22352
874.979	22512
875.108	22363
875.237	22424
875.365	22329
875.494	22394
875.623	22523
875.751	22363
875.88	22413
876.008	22577
876.136	22615
876.265	22881
876.393	23022
876.521	23044
876.65	22972
876.778	22771
876.906	22873
877.034	22816
877.162	22774
877.29	22763
877.418	22820
877.546	22790
877.674	22809
877.802	22881
877.93	22733
878.058	22797
878.185	22607
878.313	22580
878.441	22687
878.568	22565
878.696	22774
878.824	22755
878.951	22774
879.079	23029
879.206	23136
879.333	22991
879.461	22782
879.588	22778
879.715	22946
879.842	23033
879.97	22831
880.097	22565
880.224	22546
880.351	22672
880.478	22516
880.605	22516
880.732	22626
880.859	22816
880.986	22577
881.112	22744
881.239	22474
881.366	22421
881.493	22143
881.619	22166
881.746	22322
881.872	22150
881.999	22067
882.125	22147
882.252	22139
882.378	22185
882.505	22360
882.631	21968
882.757	21941
882.883	21861
883.01	21861
883.136	21789
883.262	21705
883.388	21663
883.514	21827
883.64	21907
883.766	21797
883.892	21587
884.018	21679
884.143	21895
884.269	21831
884.395	21534
884.52	21564
884.646	21469
884.772	21496
884.897	21329
885.023	21534
885.148	21595
885.274	21496
885.399	21625
885.524	21507
885.65	21500
885.775	21466
885.9	21564
886.025	21580
886.15	21515
886.275	21443
886.4	21412
886.525	21431
886.65	21401
886.775	21454
886.9	21572
887.025	21717
887.149	21595
887.274	21291
887.399	21135
887.523	21332
887.648	21249
887.773	21127
887.897	21374
888.021	21184
888.146	21112
888.27	21363
888.395	21272
888.519	21329
888.643	21207
888.767	21306
888.891	21089
889.015	20982
889.139	21093
889.263	21062
889.387	21100
889.511	21298
889.635	21211
889.759	21062
889.883	20952
890.006	20979
890.13	21081
890.254	20952
890.377	21112
890.501	20876
890.624	20682
890.748	20804
890.871	20716
890.995	20678
891.118	20575
891.241	20625
891.364	20598
891.488	20674
891.611	20476
891.734	20621
891.857	20629
891.98	20556
892.103	20629
892.226	20594
892.349	20636
892.471	20343
892.594	20461
892.717	20495
892.839	20473
892.962	20473
893.085	20602
893.207	20507
893.33	20351
893.452	20427
893.575	20511
893.697	20480
893.819	20621
893.941	20678
894.064	20571
894.186	20514
894.308	20393
894.43	20530
894.552	20655
894.674	20556
894.796	20393
894.918	20454
895.04	20355
895.161	20609
895.283	20609
895.405	20594
895.526	20594
895.648	20579
895.769	20564
895.891	20533
896.012	20678
896.134	20564
896.255	20473
896.376	20461
896.498	20511
896.619	20537
896.74	20530
896.861	20511
896.982	20842
897.103	20849
897.224	20731
897.345	20712
897.466	20754
897.587	20705
897.708	20758
897.828	20864
897.949	20640
898.07	20511
898.19	20590
898.311	20796
898.431	20651
898.552	20617
898.672	20731
898.792	20864
898.913	20644
899.033	20644
899.153	20674
899.273	20404
899.393	20537
899.513	20495
899.633	20476
899.753	20556
899.873	20362
899.993	20533
900.113	20427
900.232	20465
900.352	20305
900.472	20210
900.591	20134
900.711	20317
900.83	20176
900.95	20320
901.069	20351
901.189	20172
901.308	19894
901.427	19833
901.546	19791
901.665	19890
901.784	19738
901.904	19727
902.023	19605
902.141	19388
902.26	19362
902.379	19362
902.498	19415
902.617	19304
902.735	19331
902.854	19251
902.973	19266
903.091	19114
903.21	19004
903.328	18989
903.446	18863
903.565	18814
903.683	18848
903.801	18700
903.919	18821
904.038	18730
904.156	18604
904.274	18707
904.392	18540
904.51	18509
904.627	18570
904.745	18631
904.863	18604
904.981	18426
905.098	18174
905.216	18197
905.334	18235
905.451	18300
905.569	18247
905.686	18251
905.803	18171
905.921	18022
906.038	18136
906.155	18030
906.272	17866
906.389	18003
906.506	17695
906.623	17745
906.74	17691
906.857	17710
906.974	17634
907.091	17775
907.208	17847
907.324	17752
907.441	17726
907.557	17417
907.674	17490
907.79	17486
907.907	17512
908.023	17532
908.139	17577
908.256	17368
908.372	17459
908.488	17299
908.604	17235
908.72	17227
908.836	17189
908.952	17075
909.068	17162
909.184	17398
909.3	17326
909.415	17235
909.531	17246
909.647	16873
909.762	16866
909.878	16850
909.993	17003
910.108	16835
910.224	16797
910.339	16889
910.454	16729
910.57	16649
910.685	16596
910.8	16790
910.915	16843
911.03	16698
911.145	16538
911.259	16500
911.374	16382
911.489	16474
911.604	16314
911.718	16265
911.833	16173
911.947	16086
912.062	16086
912.176	16204
912.291	16226
912.405	16185
912.519	16348
912.633	16314
912.748	16306
912.862	16173
912.976	16002
913.09	15941
913.204	16101
913.318	15983
913.431	16040
913.545	16147
913.659	16219
913.772	15964
913.886	15823
914	15804
914.113	15808
914.226	15915
914.34	15793
914.453	15614
914.566	15975
914.68	15675
914.793	15759
914.906	15481
915.019	15507
915.132	15481
915.245	15485
915.358	15496
915.47	15420
915.583	15507
915.696	15355
915.809	15705
915.921	15595
916.034	15454
916.146	15332
916.259	15195
916.371	15462
916.483	15424
916.595	15279
916.708	15195
916.82	15256
916.932	15268
917.044	15188
917.156	15214
917.268	15081
917.38	15131
917.491	15009
917.603	15116
917.715	15142
917.826	15112
917.938	15058
918.049	14944
918.161	14975
918.272	15116
918.384	15020
918.495	14933
918.606	14910
918.717	14659
918.828	14792
918.939	14804
919.05	14758
919.161	14826
919.272	14518
919.383	14640
919.494	14823
919.604	15104
919.715	14853
919.826	14788
919.936	14758
920.047	14857
920.157	14758
920.267	14967
920.378	14697
920.488	14727
920.598	14975
920.708	15157
920.818	14887
920.928	14887
921.038	15055
921.148	15070
921.258	14792
921.368	14659
921.477	14450
921.587	14442
921.697	14374
921.806	14530
921.916	14381
922.025	14210
922.134	14183
922.244	14062
922.353	14244
922.462	14016
922.571	13921
922.68	13875
922.789	13818
922.898	13757
923.007	13780
923.116	13738
923.224	13780
923.333	13715
923.442	13609
923.55	13666
923.659	13696
923.767	13677
923.876	13575
923.984	13715
924.092	13525
924.201	13499
924.309	13491
924.417	13537
924.525	13415
924.633	13422
924.741	14393
924.849	13266
924.956	13430
925.064	13171
925.172	13194
925.279	13175
925.387	13247
925.494	13183
925.602	13301
925.709	13171
925.816	13091
925.924	13217
926.031	13194
926.138	13137
926.245	13103
926.352	13034
926.459	13244
926.566	13133
926.673	13080
926.779	12996
926.886	12962
926.993	12764
927.099	12722
927.206	12749
927.312	12696
927.419	12722
927.525	12783
927.631	12764
927.737	12726
927.843	12570
927.95	12448
928.056	12551
928.162	12578
928.267	12627
928.373	13312
928.479	12722
928.585	12403
928.69	12566
928.796	12536
928.901	12433
929.007	12277
929.112	12452
929.218	12407
929.323	12308
929.428	12292
929.533	12403
929.638	12308
929.743	12232
929.848	12285
929.953	12209
930.058	12155
930.163	11996
930.267	11923
930.372	12110
930.477	11923
930.581	12167
930.685	11992
930.79	11901
930.894	11832
930.998	11946
931.103	11912
931.207	11642
931.311	11562
931.415	11509
931.519	11353
931.623	11212
