Data from test_V78500241_2.txt Node
Date: Fri Mar 25 15:41:48 CST 2022
User: usil
Spectrometer: V785-0024
Trigger mode: 0
Integration Time (sec): 4.000000E-1
Scans to average: 1
Nonlinearity correction enabled: false
Boxcar width: 0
Storing dark spectrum: false
XAxis mode: Wavelengths
Number of Pixels in Spectrum: 1024
>>>>>Begin Spectral Data<<<<<
801.071	27123
801.214	27146
801.356	26830
801.499	26716
801.641	26556
801.783	26670
801.926	26393
802.068	26552
802.211	26286
802.353	26457
802.496	26267
802.638	26138
802.78	26142
802.923	26050
803.065	25849
803.208	25932
803.35	26096
803.492	26168
803.635	26275
803.777	25963
803.919	26039
804.061	26328
804.204	26218
804.346	25928
804.488	25883
804.63	25993
804.773	25894
804.915	26039
805.057	26054
805.199	26054
805.341	26024
805.483	26138
805.626	26024
805.768	25875
805.91	26065
806.052	26073
806.194	25909
806.336	26263
806.478	26027
806.62	26054
806.762	26191
806.904	26214
807.046	26526
807.188	26320
807.33	26237
807.472	26328
807.614	26267
807.756	26355
807.898	26145
808.04	26103
808.182	26058
808.324	26142
808.465	26084
808.607	26317
808.749	26389
808.891	26594
809.033	26640
809.174	26556
809.316	26579
809.458	26511
809.6	26396
809.741	26583
809.883	26476
810.025	26769
810.166	26651
810.308	26648
810.45	26526
810.591	26621
810.733	26442
810.875	26252
811.016	26233
811.158	26195
811.299	26473
811.441	26560
811.582	26453
811.724	26415
811.865	26328
812.007	26259
812.148	26332
812.29	26252
812.431	26427
812.573	26674
812.714	26807
812.855	26819
812.997	26807
813.138	26876
813.279	26891
813.421	26632
813.562	26762
813.703	26632
813.845	26278
813.986	26100
814.127	25928
814.268	25917
814.41	25864
814.551	25791
814.692	25963
814.833	25864
814.974	25750
815.115	25799
815.256	25738
815.397	25727
815.539	25632
815.68	25658
815.821	25540
815.962	25567
816.103	25582
816.244	25479
816.385	25221
816.526	25278
816.666	25076
816.807	25015
816.948	25145
817.089	25034
817.23	24909
817.371	24856
817.512	24916
817.653	24844
817.793	24791
817.934	24783
818.075	24913
818.216	24802
818.356	24871
818.497	24589
818.638	24532
818.778	24384
818.919	24486
819.06	24677
819.2	24707
819.341	24848
819.481	24798
819.622	25027
819.762	24992
819.903	25012
820.043	24829
820.184	24814
820.324	24856
820.465	24875
820.605	24722
820.746	24882
820.886	24749
821.026	24741
821.167	24760
821.307	24901
821.447	24783
821.588	24764
821.728	24502
821.868	24346
822.008	24083
822.149	24155
822.289	24186
822.429	23859
822.569	23870
822.709	23779
822.849	23703
822.99	23699
823.13	23577
823.27	23649
823.41	23501
823.55	23467
823.69	23223
823.83	23524
823.97	23318
824.11	23178
824.25	23090
824.389	23151
824.529	23220
824.669	23022
824.809	23242
824.949	23277
825.089	23269
825.228	23208
825.368	23006
825.508	23003
825.648	22980
825.787	22877
825.927	23033
826.067	22831
826.206	22942
826.346	22980
826.485	23052
826.625	22900
826.765	22987
826.904	22961
827.044	22668
827.183	22557
827.323	22485
827.462	22691
827.601	22592
827.741	22527
827.88	22512
828.02	22333
828.159	22546
828.298	22550
828.437	22580
828.577	22485
828.716	22626
828.855	22485
828.994	22360
829.134	22337
829.273	22367
829.412	22207
829.551	22200
829.69	22226
829.829	22181
829.968	22284
830.107	22291
830.246	22177
830.385	22074
830.524	22185
830.663	22051
830.802	21937
830.941	21724
831.08	21941
831.219	21907
831.357	21880
831.496	22013
831.635	21835
831.774	21694
831.913	21561
832.051	21545
832.19	21454
832.329	21496
832.467	21534
832.606	21355
832.744	21336
832.883	21348
833.022	21355
833.16	21363
833.299	21351
833.437	21389
833.576	21450
833.714	21428
833.852	21447
833.991	21412
834.129	21526
834.267	21428
834.406	21408
834.544	21504
834.682	21416
834.821	21230
834.959	21538
835.097	21454
835.235	21348
835.373	21389
835.511	21393
835.65	21230
835.788	21165
835.926	21180
836.064	21116
836.202	21043
836.34	21336
836.478	21317
836.615	21192
836.753	21222
836.891	21260
837.029	21154
837.167	21340
837.305	21138
837.443	21116
837.58	21020
837.718	21176
837.856	21062
837.993	21150
838.131	21104
838.269	20929
838.406	21005
838.544	20895
838.681	20941
838.819	20792
838.956	20454
839.094	20530
839.231	20602
839.369	20716
839.506	20990
839.643	20609
839.781	20617
839.918	20492
840.055	20438
840.193	20362
840.33	20469
840.467	20526
840.604	20533
840.742	20731
840.879	20324
841.016	20328
841.153	20313
841.29	20412
841.427	20408
841.564	20336
841.701	20374
841.838	20347
841.975	20157
842.112	20317
842.249	20271
842.385	20237
842.522	20317
842.659	20138
842.796	20031
842.933	20111
843.069	20111
843.206	20012
843.343	20092
843.479	19978
843.616	20050
843.752	19875
843.889	19868
844.025	19967
844.162	19803
844.298	19921
844.435	19780
844.571	19841
844.708	19761
844.844	19997
844.98	19830
845.117	20020
845.253	19856
845.389	19784
845.525	19780
845.661	19643
845.798	19655
845.934	19715
846.07	19502
846.206	19635
846.342	19635
846.478	19525
846.614	19449
846.75	19270
846.886	19194
847.022	19411
847.158	19160
847.294	19392
847.429	19369
847.565	19198
847.701	19441
847.837	19084
847.972	19084
848.108	19065
848.244	18954
848.379	19012
848.515	18696
848.65	18871
848.786	18916
848.921	18871
849.057	19004
849.192	19072
849.328	18939
849.463	19012
849.598	18772
849.734	18741
849.869	18684
850.004	18612
850.14	18608
850.275	18635
850.41	18597
850.545	18601
850.68	18673
850.815	18604
850.95	18559
851.085	18726
851.22	18608
851.355	18544
851.49	18437
851.625	18452
851.76	18525
851.895	18494
852.03	18422
852.165	18498
852.299	18540
852.434	18650
852.569	18654
852.703	18517
852.838	18563
852.973	18623
853.107	18688
853.242	18460
853.376	18403
853.511	18334
853.645	18300
853.78	18464
853.914	18346
854.048	18384
854.183	18372
854.317	18304
854.451	18448
854.585	18334
854.72	18350
854.854	18365
854.988	18300
855.122	18308
855.256	18216
855.39	18483
855.524	18429
855.658	18388
855.792	18407
855.926	18410
856.06	18399
856.194	18471
856.327	18224
856.461	18262
856.595	18353
856.729	18407
856.862	18445
856.996	18334
857.13	18429
857.263	18452
857.397	18490
857.53	18464
857.664	18388
857.797	18395
857.931	18513
858.064	18334
858.197	18506
858.331	18372
858.464	18243
858.597	18190
858.731	18285
858.864	18353
858.997	18266
859.13	18376
859.263	18369
859.396	18384
859.529	18209
859.662	18270
859.795	18235
859.928	18334
860.061	18429
860.194	18433
860.327	18384
860.46	18247
860.592	18327
860.725	18407
860.858	18441
860.99	18262
861.123	18190
861.256	18243
861.388	18270
861.521	18829
861.653	18136
861.786	18114
861.918	18220
862.05	18243
862.183	18399
862.315	18342
862.447	18399
862.58	18384
862.712	18140
862.844	18060
862.976	18182
863.108	18133
863.24	18334
863.372	17969
863.504	18015
863.636	18072
863.768	18114
863.9	18053
864.032	17939
864.164	17946
864.296	18026
864.428	18087
864.559	18045
864.691	18030
864.823	18079
864.954	17988
865.086	18019
865.217	18015
865.349	17988
865.48	17901
865.612	17920
865.743	18076
865.875	17923
866.006	17988
866.137	17939
866.269	17920
866.4	17805
866.531	17950
866.662	17790
866.793	17847
866.924	17840
867.055	17798
867.186	17874
867.317	17885
867.448	17809
867.579	17999
867.71	17760
867.841	17893
867.972	17878
868.103	17843
868.233	17912
868.364	17756
868.495	18053
868.625	18110
868.756	18167
868.886	18057
869.017	18057
869.147	18228
869.278	18186
869.408	18148
869.539	18129
869.669	18205
869.799	18190
869.929	18311
870.06	18148
870.19	18391
870.32	18334
870.45	18521
870.58	18551
870.71	18635
870.84	18597
870.97	18566
871.1	18540
871.23	18726
871.36	18688
871.489	18589
871.619	18688
871.749	18654
871.879	18669
872.008	18859
872.138	18856
872.267	18772
872.397	18623
872.526	18532
872.656	18578
872.785	18620
872.915	18665
873.044	18920
873.173	18795
873.303	18863
873.432	18787
873.561	18909
873.69	18787
873.819	18833
873.948	18939
874.077	18696
874.206	18703
874.335	18730
874.464	18817
874.593	19012
874.722	19027
874.851	19118
874.979	19034
875.108	19076
875.237	19160
875.365	18928
875.494	18993
875.623	19148
875.751	19053
875.88	19072
876.008	19232
876.136	19285
876.265	19415
876.393	19594
876.521	19571
876.65	19537
876.778	19453
876.906	19327
877.034	19320
877.162	19225
877.29	19384
877.418	19422
877.546	19438
877.674	19499
877.802	19464
877.93	19384
878.058	19396
878.185	19335
878.313	19365
878.441	19388
878.568	19312
878.696	19339
878.824	19453
878.951	19575
879.079	19582
879.206	19655
879.333	19616
879.461	19411
879.588	19441
879.715	19708
879.842	19731
879.97	19582
880.097	19236
880.224	19381
880.351	19301
880.478	19388
880.605	19247
880.732	19251
880.859	19556
880.986	19343
881.112	19259
881.239	19152
881.366	19000
881.493	18962
881.619	18920
881.746	18882
881.872	18890
881.999	18958
882.125	18795
882.252	18977
882.378	18886
882.505	18981
882.631	18783
882.757	18707
882.883	18738
883.01	18715
883.136	18734
883.262	18612
883.388	18517
883.514	18639
883.64	18703
883.766	18688
883.892	18448
884.018	18566
884.143	18642
884.269	18738
884.395	18486
884.52	18258
884.646	18369
884.772	18171
884.897	18163
885.023	18330
885.148	18418
885.274	18372
885.399	18452
885.524	18414
885.65	18289
885.775	18247
885.9	18300
886.025	18353
886.15	18403
886.275	18281
886.4	18281
886.525	18224
886.65	18273
886.775	18216
886.9	18422
887.025	18479
887.149	18350
887.274	18155
887.399	18110
887.523	18034
887.648	17996
887.773	18022
887.897	18178
888.021	18095
888.146	18003
888.27	18205
888.395	18182
888.519	18159
888.643	18247
888.767	18129
888.891	17999
889.015	17923
889.139	17996
889.263	17893
889.387	18011
889.511	18205
889.635	18015
889.759	17832
889.883	17893
890.006	17908
890.13	18125
890.254	17885
890.377	17870
890.501	17638
890.624	17775
890.748	17699
890.871	17589
890.995	17429
891.118	17452
891.241	17562
891.364	17558
891.488	17573
891.611	17554
891.734	17611
891.857	17585
891.98	17608
892.103	17585
892.226	17547
892.349	17543
892.471	17372
892.594	17482
892.717	17543
892.839	17509
892.962	17512
893.085	17524
893.207	17452
893.33	17398
893.452	17311
893.575	17524
893.697	17497
893.819	17687
893.941	17642
894.064	17585
894.186	17402
894.308	17444
894.43	17608
894.552	17691
894.674	17684
894.796	17471
894.918	17520
895.04	17562
895.161	17551
895.283	17547
895.405	17406
895.526	17585
895.648	17406
895.769	17509
895.891	17570
896.012	17729
896.134	17657
896.255	17642
896.376	17638
896.498	17512
896.619	17581
896.74	17649
896.861	17649
896.982	17980
897.103	18174
897.224	18026
897.345	17946
897.466	17786
897.587	17847
897.708	18011
897.828	17927
897.949	17836
898.07	17703
898.19	17832
898.311	17893
898.431	17767
898.552	17855
898.672	17901
898.792	17901
898.913	17756
899.033	17703
899.153	17600
899.273	17505
899.393	17642
899.513	17646
899.633	17566
899.753	17619
899.873	17554
899.993	17657
900.113	17429
900.232	17642
900.352	17528
900.472	17372
900.591	17349
900.711	17452
900.83	17414
900.95	17429
901.069	17604
901.189	17315
901.308	17094
901.427	17075
901.546	17048
901.665	17113
901.784	17071
901.904	16923
902.023	16843
902.141	16672
902.26	16637
902.379	16691
902.498	16641
902.617	16538
902.735	16569
902.854	16508
902.973	16394
903.091	16265
903.21	16109
903.328	16310
903.446	16181
903.565	16116
903.683	16158
903.801	16029
903.919	16071
904.038	16078
904.156	15751
904.274	15846
904.392	15873
904.51	15835
904.627	15854
904.745	15831
904.863	15953
904.981	15660
905.098	15485
905.216	15485
905.334	15618
905.451	15644
905.569	15458
905.686	15549
905.803	15557
905.921	15329
906.038	15473
906.155	15355
906.272	15199
906.389	15154
906.506	15013
906.623	15097
906.74	15039
906.857	14941
906.974	14925
907.091	15127
907.208	15184
907.324	15112
907.441	15070
907.557	14807
907.674	14838
907.79	14678
907.907	14739
908.023	14796
908.139	14823
908.256	14613
908.372	14632
908.488	14667
908.604	14484
908.72	14408
908.836	14537
908.952	14347
909.068	14484
909.184	14492
909.3	14514
909.415	14530
909.531	14385
909.647	14180
909.762	14195
909.878	14100
909.993	14195
910.108	14157
910.224	14115
910.339	14092
910.454	14054
910.57	13967
910.685	13959
910.8	14233
910.915	14202
911.03	13993
911.145	13845
911.259	13753
911.374	13814
911.489	13761
911.604	13689
911.718	13658
911.833	13499
911.947	13468
912.062	13445
912.176	13594
912.291	13556
912.405	13655
912.519	13807
912.633	13708
912.748	13571
912.862	13552
912.976	13354
913.09	13324
913.204	13293
913.318	13396
913.431	13487
913.545	13449
913.659	13491
913.772	13320
913.886	13320
914	13187
914.113	13369
914.226	13343
914.34	13297
914.453	13107
914.566	13324
914.68	13183
914.793	13152
914.906	12909
915.019	12901
915.132	12966
915.245	12909
915.358	12939
915.47	12897
915.583	12935
915.696	12958
915.809	12970
915.921	13046
916.034	12913
916.146	12795
916.259	12772
916.371	12867
916.483	12844
916.595	12779
916.708	12760
916.82	12665
916.932	12787
917.044	12772
917.156	12719
917.268	12662
917.38	12547
917.491	12620
917.603	12574
917.715	12620
917.826	12821
917.938	12642
918.049	12502
918.161	12650
918.272	12798
918.384	12711
918.495	12627
918.606	12464
918.717	12365
918.828	12486
918.939	12566
919.05	12429
919.161	12429
919.272	12247
919.383	12304
919.494	12490
919.604	12616
919.715	12372
919.826	12369
919.936	12403
920.047	12448
920.157	12418
920.267	12593
920.378	12498
920.488	12315
920.598	12654
920.708	12684
920.818	12555
920.928	12445
921.038	12684
921.148	12677
921.258	12407
921.368	12292
921.477	12220
921.587	12083
921.697	11992
921.806	12148
921.916	12121
922.025	11901
922.134	11813
922.244	11817
922.353	12003
922.462	11771
922.571	11570
922.68	11528
922.789	11463
922.898	11558
923.007	11417
923.116	11611
923.224	11379
923.333	11463
923.442	11417
923.55	11372
923.659	11353
923.767	11455
923.876	11334
923.984	11376
924.092	11292
924.201	11356
924.309	11277
924.417	11322
924.525	11220
924.633	11201
924.741	12205
924.849	11006
924.956	11204
925.064	11079
925.172	10923
925.279	10968
925.387	11037
925.494	11018
925.602	11189
925.709	11102
925.816	10900
925.924	11067
926.031	11029
926.138	11025
926.245	11006
926.352	10877
926.459	11086
926.566	11071
926.673	10915
926.779	10873
926.886	10809
926.993	10630
927.099	10645
927.206	10656
927.312	10573
927.419	10683
927.525	10694
927.631	10694
927.737	10588
927.843	10554
927.95	10398
928.056	10455
928.162	10538
928.267	10596
928.373	11220
928.479	10656
928.585	10257
928.69	10474
928.796	10550
928.901	10360
929.007	10344
929.112	10402
929.218	10291
929.323	10337
929.428	10337
929.533	10440
929.638	10284
929.743	10249
929.848	10344
929.953	10303
930.058	10242
930.163	10105
930.267	10006
930.372	10128
930.477	10029
930.581	10181
930.685	10025
930.79	9827
930.894	9953
930.998	9861
931.103	9949
931.207	9663
931.311	9553
931.415	9523
931.519	9367
931.623	9363
