Data from test_V78500241_3017.txt Node
Date: Fri Mar 25 16:02:42 CST 2022
User: usil
Spectrometer: V785-0024
Trigger mode: 0
Integration Time (sec): 4.000000E-1
Scans to average: 1
Nonlinearity correction enabled: false
Boxcar width: 0
Storing dark spectrum: false
XAxis mode: Wavelengths
Number of Pixels in Spectrum: 1024
>>>>>Begin Spectral Data<<<<<
801.071	28481
801.214	28660
801.356	28360
801.499	28147
801.641	28097
801.783	28013
801.926	28169
802.068	28051
802.211	28082
802.353	28112
802.496	27968
802.638	28029
802.78	27880
802.923	27747
803.065	27698
803.208	27705
803.35	27876
803.492	28021
803.635	28147
803.777	28017
803.919	28116
804.061	28280
804.204	28112
804.346	27937
804.488	28029
804.63	28131
804.773	27975
804.915	28280
805.057	28299
805.199	28078
805.341	28211
805.483	28299
805.626	28185
805.768	28006
805.91	28280
806.052	28284
806.194	28162
806.336	28500
806.478	28215
806.62	28341
806.762	28386
806.904	28519
807.046	28805
807.188	28740
807.33	28691
807.472	28767
807.614	28618
807.756	28725
807.898	28649
808.04	28424
808.182	28436
808.324	28542
808.465	28588
808.607	28767
808.749	28831
808.891	29041
809.033	29109
809.174	29006
809.316	28915
809.458	28888
809.6	28892
809.741	29018
809.883	29094
810.025	29166
810.166	29334
810.308	29132
810.45	29181
810.591	29280
810.733	29018
810.875	28919
811.016	28850
811.158	28835
811.299	29098
811.441	29094
811.582	29067
811.724	28991
811.865	28911
812.007	29086
812.148	29060
812.29	28995
812.431	29227
812.573	29258
812.714	29197
812.855	29562
812.997	29459
813.138	29794
813.279	29680
813.421	29486
813.562	29459
813.703	29303
813.845	29159
813.986	29048
814.127	28809
814.268	28702
814.41	28683
814.551	28729
814.692	28755
814.833	28504
814.974	28691
815.115	28683
815.256	28485
815.397	28523
815.539	28557
815.68	28546
815.821	28333
815.962	28527
816.103	28466
816.244	28360
816.385	28352
816.526	28280
816.666	28074
816.807	27873
816.948	28021
817.089	28074
817.23	28025
817.371	27934
817.512	27994
817.653	27930
817.793	27850
817.934	27846
818.075	27914
818.216	27880
818.356	27747
818.497	27770
818.638	27561
818.778	27698
818.919	27709
819.06	27698
819.2	27914
819.341	27964
819.481	27922
819.622	28090
819.762	28131
819.903	28276
820.043	28154
820.184	28116
820.324	28120
820.465	28067
820.605	28162
820.746	28029
820.886	27994
821.026	27945
821.167	27994
821.307	28147
821.447	28010
821.588	27953
821.728	27762
821.868	27797
822.008	27481
822.149	27348
822.289	27427
822.429	27195
822.569	27165
822.709	27188
822.849	27058
822.99	27043
823.13	26944
823.27	26876
823.41	26834
823.55	26735
823.69	26811
823.83	26781
823.97	26735
824.11	26617
824.25	26549
824.389	26552
824.529	26602
824.669	26583
824.809	26781
824.949	26845
825.089	26587
825.228	26750
825.368	26370
825.508	26503
825.648	26503
825.787	26522
825.927	26541
826.067	26408
826.206	26446
826.346	26602
826.485	26408
826.625	26419
826.765	26708
826.904	26568
827.044	26396
827.183	26282
827.323	26286
827.462	26298
827.601	26122
827.741	26153
827.88	26237
828.02	26157
828.159	26187
828.298	26183
828.437	26210
828.577	26103
828.716	26210
828.855	26134
828.994	25841
829.134	25864
829.273	26005
829.412	25776
829.551	25769
829.69	25997
829.829	25951
829.968	25997
830.107	25947
830.246	26020
830.385	25852
830.524	25769
830.663	25799
830.802	25563
830.941	25594
831.08	25377
831.219	25780
831.357	25655
831.496	25655
831.635	25472
831.774	25388
831.913	25316
832.051	25225
832.19	25206
832.329	25343
832.467	25183
832.606	25187
832.744	25168
832.883	25046
833.022	25228
833.16	25183
833.299	25202
833.437	25255
833.576	25247
833.714	25126
833.852	25274
833.991	25289
834.129	25339
834.267	25228
834.406	25316
834.544	25316
834.682	25335
834.821	25278
834.959	25350
835.097	25259
835.235	25225
835.373	25259
835.511	25190
835.65	25095
835.788	25187
835.926	24905
836.064	24924
836.202	24821
836.34	25042
836.478	25198
836.615	25072
836.753	25118
836.891	25183
837.029	25137
837.167	25008
837.305	24924
837.443	24935
837.58	24768
837.718	25019
837.856	24939
837.993	24837
838.131	24920
838.269	24711
838.406	24753
838.544	24753
838.681	24642
838.819	24658
838.956	24330
839.094	24380
839.231	24486
839.369	24593
839.506	24677
839.643	24627
839.781	24391
839.918	24273
840.055	24327
840.193	24270
840.33	24308
840.467	24296
840.604	24270
840.742	24490
840.879	24224
841.016	24372
841.153	24205
841.29	24334
841.427	24213
841.564	24182
841.701	24281
841.838	24209
841.975	24159
842.112	24186
842.249	24049
842.385	24041
842.522	24422
842.659	24083
842.796	24045
842.933	23984
843.069	23984
843.206	23870
843.343	24091
843.479	24064
843.616	24038
843.752	23942
843.889	23847
844.025	23908
844.162	23630
844.298	23790
844.435	23836
844.571	23775
844.708	23901
844.844	23889
844.98	23958
845.117	23923
845.253	23802
845.389	23771
845.525	23729
845.661	23630
845.798	23528
845.934	23608
846.07	23402
846.206	23539
846.342	23638
846.478	23455
846.614	23269
846.75	23246
846.886	23204
847.022	23258
847.158	23223
847.294	23478
847.429	23212
847.565	23273
847.701	23528
847.837	22965
847.972	22972
848.108	22980
848.244	23067
848.379	22991
848.515	22934
848.65	22816
848.786	22858
848.921	22915
849.057	23056
849.192	22873
849.328	22744
849.463	22900
849.598	22801
849.734	22786
849.869	22698
850.004	22630
850.14	22740
850.275	22615
850.41	22542
850.545	22557
850.68	22611
850.815	22763
850.95	22588
851.085	22786
851.22	22733
851.355	22687
851.49	22744
851.625	22630
851.76	22569
851.895	22584
852.03	22455
852.165	22607
852.299	22569
852.434	22790
852.569	22653
852.703	22542
852.838	22790
852.973	22820
853.107	22694
853.242	22485
853.376	22348
853.511	22322
853.645	22421
853.78	22634
853.914	22417
854.048	22394
854.183	22272
854.317	22386
854.451	22664
854.585	22440
854.72	22462
854.854	22596
854.988	22451
855.122	22493
855.256	22242
855.39	22432
855.524	22512
855.658	22451
855.792	22379
855.926	22512
856.06	22417
856.194	22599
856.327	22363
856.461	22360
856.595	22253
856.729	22402
856.862	22535
856.996	22428
857.13	22474
857.263	22523
857.397	22557
857.53	22390
857.664	22478
857.797	22527
857.931	22436
858.064	22462
858.197	22565
858.331	22421
858.464	22436
858.597	22402
858.731	22466
858.864	22421
858.997	22276
859.13	22424
859.263	22478
859.396	22599
859.529	22379
859.662	22485
859.795	22360
859.928	22417
860.061	22538
860.194	22706
860.327	22561
860.46	22466
860.592	22519
860.725	22641
860.858	22569
860.99	22584
861.123	22382
861.256	22211
861.388	22382
861.521	23212
861.653	22310
861.786	22055
861.918	22314
862.05	22299
862.183	22379
862.315	22428
862.447	22409
862.58	22352
862.712	22063
862.844	22112
862.976	22158
863.108	22192
863.24	22611
863.372	22150
863.504	22226
863.636	22112
863.768	22169
863.9	22109
864.032	22124
864.164	21998
864.296	22158
864.428	22242
864.559	22295
864.691	22200
864.823	22112
864.954	22086
865.086	22169
865.217	22090
865.349	21953
865.48	21998
865.612	22082
865.743	22173
865.875	22078
866.006	22086
866.137	22032
866.269	22063
866.4	22055
866.531	21941
866.662	21842
866.793	21972
866.924	21960
867.055	22002
867.186	22048
867.317	21876
867.448	21895
867.579	21816
867.71	21991
867.841	21888
867.972	21960
868.103	21941
868.233	22040
868.364	21983
868.495	22021
868.625	22169
868.756	22196
868.886	22112
869.017	22280
869.147	22265
869.278	22367
869.408	22306
869.539	22226
869.669	22101
869.799	22215
869.929	22421
870.06	22432
870.19	22493
870.32	22523
870.45	22634
870.58	22447
870.71	22672
870.84	22801
870.97	22698
871.1	22599
871.23	22702
871.36	22790
871.489	22771
871.619	22797
871.749	22900
871.879	22694
872.008	22824
872.138	22854
872.267	22793
872.397	22717
872.526	22706
872.656	22588
872.785	22641
872.915	22771
873.044	22949
873.173	22778
873.303	22816
873.432	22873
873.561	22892
873.69	22927
873.819	22809
873.948	22957
874.077	22790
874.206	22744
874.335	22793
874.464	22869
874.593	23044
874.722	22999
874.851	23022
874.979	23105
875.108	23060
875.237	22930
875.365	23029
875.494	23029
875.623	23010
875.751	23060
875.88	22946
876.008	23105
876.136	23250
876.265	23417
876.393	23741
876.521	23531
876.65	23604
876.778	23467
876.906	23318
877.034	23345
877.162	23398
877.29	23322
877.418	23463
877.546	23459
877.674	23360
877.802	23349
877.93	23299
878.058	23326
878.185	23288
878.313	23318
878.441	23296
878.568	23197
878.696	23421
878.824	23459
878.951	23448
879.079	23551
879.206	23733
879.333	23642
879.461	23398
879.588	23467
879.715	23493
879.842	23680
879.97	23414
880.097	23307
880.224	23250
880.351	23288
880.478	23159
880.605	23162
880.732	23121
880.859	23452
880.986	23356
881.112	23326
881.239	23136
881.366	22968
881.493	22809
881.619	22790
881.746	22831
881.872	22721
881.999	22767
882.125	22588
882.252	22934
882.378	22740
882.505	22771
882.631	22645
882.757	22481
882.883	22455
883.01	22512
883.136	22474
883.262	22287
883.388	22318
883.514	22424
883.64	22519
883.766	22360
883.892	22173
884.018	22200
884.143	22546
884.269	22394
884.395	22143
884.52	21945
884.646	22173
884.772	22013
884.897	22013
885.023	22093
885.148	22177
885.274	22261
885.399	22162
885.524	21994
885.65	22143
885.775	22040
885.9	22032
886.025	22166
886.15	21968
886.275	21975
886.4	21945
886.525	22025
886.65	22120
886.775	22105
886.9	22055
887.025	22272
887.149	22090
887.274	21941
887.399	21766
887.523	21880
887.648	21713
887.773	21736
887.897	21907
888.021	21880
888.146	21819
888.27	21892
888.395	21888
888.519	21823
888.643	21812
888.767	21789
888.891	21835
889.015	21633
889.139	21751
889.263	21481
889.387	21720
889.511	21827
889.635	21698
889.759	21622
889.883	21492
890.006	21618
890.13	21739
890.254	21610
890.377	21504
890.501	21378
890.624	21367
890.748	21428
890.871	21275
890.995	21317
891.118	21161
891.241	21154
891.364	21062
891.488	21393
891.611	21188
891.734	21279
891.857	21226
891.98	21154
892.103	21184
892.226	21119
892.349	21127
892.471	20986
892.594	21138
892.717	21173
892.839	20979
892.962	21047
893.085	21119
893.207	20986
893.33	21051
893.452	21066
893.575	21070
893.697	21096
893.819	21104
893.941	21367
894.064	21108
894.186	20975
894.308	20941
894.43	21157
894.552	21329
894.674	21154
894.796	20967
894.918	20979
895.04	20994
895.161	21161
895.283	21001
895.405	21013
895.526	21043
895.648	21116
895.769	21093
895.891	21024
896.012	21142
896.134	21017
896.255	21024
896.376	20967
896.498	21055
896.619	20933
896.74	21020
896.861	21062
896.982	21386
897.103	21462
897.224	21291
897.345	21199
897.466	21142
897.587	21294
897.708	21397
897.828	21260
897.949	21089
898.07	21100
898.19	21081
898.311	21359
898.431	21188
898.552	21336
898.672	21298
898.792	21241
898.913	21256
899.033	21230
899.153	20937
899.273	20944
899.393	20899
899.513	21074
899.633	20933
899.753	21009
899.873	20952
899.993	20921
900.113	20918
900.232	20944
900.352	20887
900.472	20777
900.591	20705
900.711	20769
900.83	20678
900.95	20762
901.069	20826
901.189	20606
901.308	20434
901.427	20240
901.546	20347
901.665	20377
901.784	20374
901.904	20233
902.023	20157
902.141	19936
902.26	19822
902.379	20027
902.498	19780
902.617	19826
902.735	19883
902.854	19769
902.973	19677
903.091	19563
903.21	19552
903.328	19586
903.446	19343
903.565	19377
903.683	19316
903.801	19194
903.919	19312
904.038	19152
904.156	19065
904.274	18996
904.392	19012
904.51	18913
904.627	18951
904.745	19080
904.863	19099
904.981	18760
905.098	18738
905.216	18757
905.334	18726
905.451	18722
905.569	18734
905.686	18749
905.803	18631
905.921	18528
906.038	18494
906.155	18509
906.272	18338
906.389	18414
906.506	18205
906.623	18216
906.74	18232
906.857	18228
906.974	18091
907.091	18327
907.208	18262
907.324	18197
907.441	18201
907.557	18030
907.674	17889
907.79	17893
907.907	17996
908.023	17897
908.139	17874
908.256	17824
908.372	17741
908.488	17737
908.604	17760
908.72	17684
908.836	17592
908.952	17615
909.068	17608
909.184	17646
909.3	17748
909.415	17630
909.531	17573
909.647	17429
909.762	17398
909.878	17296
909.993	17337
910.108	17242
910.224	17235
910.339	17387
910.454	17151
910.57	17124
910.685	17113
910.8	17387
910.915	17303
911.03	17124
911.145	16923
911.259	16938
911.374	16889
911.489	16828
911.604	16774
911.718	16687
911.833	16687
911.947	16649
912.062	16516
912.176	16740
912.291	16702
912.405	16752
912.519	16873
912.633	16759
912.748	16801
912.862	16603
912.976	16360
913.09	16318
913.204	16394
913.318	16443
913.431	16459
913.545	16500
913.659	16542
913.772	16428
913.886	16246
914	16204
914.113	16386
914.226	16417
914.34	16303
914.453	16158
914.566	16200
914.68	16200
914.793	16071
914.906	15934
915.019	15911
915.132	15888
915.245	15907
915.358	15926
915.47	15770
915.583	15850
915.696	15812
915.809	15869
915.921	15968
916.034	15728
916.146	15755
916.259	15759
916.371	15926
916.483	15797
916.595	15717
916.708	15686
916.82	15690
916.932	15622
917.044	15629
917.156	15587
917.268	15488
917.38	15542
917.491	15454
917.603	15454
917.715	15511
917.826	15545
917.938	15287
918.049	15359
918.161	15367
918.272	15553
918.384	15458
918.495	15370
918.606	15310
918.717	15093
918.828	15256
918.939	15173
919.05	15123
919.161	15260
919.272	15013
919.383	15070
919.494	15218
919.604	15351
919.715	15169
919.826	15074
919.936	15074
920.047	15230
920.157	15207
920.267	15298
920.378	15218
920.488	15051
920.598	15340
920.708	15416
920.818	15317
920.928	15256
921.038	15370
921.148	15416
921.258	15188
921.368	15055
921.477	14933
921.587	14842
921.697	14731
921.806	14868
921.916	14769
922.025	14640
922.134	14556
922.244	14427
922.353	14587
922.462	14473
922.571	14317
922.68	14214
922.789	14225
922.898	14218
923.007	14138
923.116	14229
923.224	14134
923.333	14081
923.442	14008
923.55	13982
923.659	14008
923.767	14012
923.876	13932
923.984	14024
924.092	13898
924.201	13932
924.309	13799
924.417	13845
924.525	13795
924.633	13811
924.741	14568
924.849	13632
924.956	13769
925.064	13605
925.172	13483
925.279	13578
925.387	13457
925.494	13487
925.602	13582
925.709	13559
925.816	13457
925.924	13468
926.031	13590
926.138	13487
926.245	13441
926.352	13381
926.459	13491
926.566	13521
926.673	13476
926.779	13327
926.886	13255
926.993	13274
927.099	13069
927.206	13129
927.312	12928
927.419	13118
927.525	13137
927.631	13095
927.737	13012
927.843	13015
927.95	12810
928.056	12932
928.162	12897
928.267	12943
928.373	13537
928.479	12924
928.585	12753
928.69	12897
928.796	12909
928.901	12806
929.007	12620
929.112	12772
929.218	12715
929.323	12688
929.428	12597
929.533	12749
929.638	12589
929.743	12563
929.848	12650
929.953	12566
930.058	12612
930.163	12296
930.267	12391
930.372	12540
930.477	12296
930.581	12448
930.685	12376
930.79	12243
930.894	12129
930.998	12178
931.103	12350
931.207	11927
931.311	11908
931.415	11802
931.519	11623
931.623	11551
