Data from test_V78500241_1929.txt Node
Date: Fri Mar 25 15:55:09 CST 2022
User: usil
Spectrometer: V785-0024
Trigger mode: 0
Integration Time (sec): 4.000000E-1
Scans to average: 1
Nonlinearity correction enabled: false
Boxcar width: 0
Storing dark spectrum: false
XAxis mode: Wavelengths
Number of Pixels in Spectrum: 1024
>>>>>Begin Spectral Data<<<<<
801.071	28618
801.214	28455
801.356	28424
801.499	28314
801.641	28188
801.783	28352
801.926	28211
802.068	28070
802.211	28051
802.353	27983
802.496	27953
802.638	27865
802.78	27755
802.923	27648
803.065	27675
803.208	27755
803.35	27975
803.492	27968
803.635	28021
803.777	27975
803.919	28124
804.061	28459
804.204	28074
804.346	28105
804.488	27884
804.63	28021
804.773	28055
804.915	28109
805.057	28196
805.199	28010
805.341	28128
805.483	28276
805.626	28363
805.768	28147
805.91	28166
806.052	28226
806.194	28105
806.336	28504
806.478	28188
806.62	28211
806.762	28390
806.904	28519
807.046	28752
807.188	28771
807.33	28550
807.472	28713
807.614	28603
807.756	28618
807.898	28519
808.04	28470
808.182	28554
808.324	28725
808.465	28637
808.607	28805
808.749	28934
808.891	29022
809.033	29098
809.174	28949
809.316	28877
809.458	28953
809.6	28934
809.741	28968
809.883	29079
810.025	29212
810.166	29250
810.308	29261
810.45	29178
810.591	29124
810.733	29033
810.875	28835
811.016	28881
811.158	28786
811.299	28999
811.441	28957
811.582	29003
811.724	28919
811.865	28953
812.007	28930
812.148	29006
812.29	28900
812.431	29227
812.573	29212
812.714	29277
812.855	29543
812.997	29608
813.138	29657
813.279	29657
813.421	29478
813.562	29345
813.703	29246
813.845	29227
813.986	28801
814.127	28721
814.268	28649
814.41	28831
814.551	28656
814.692	28603
814.833	28653
814.974	28474
815.115	28721
815.256	28500
815.397	28443
815.539	28421
815.68	28538
815.821	28470
815.962	28531
816.103	28481
816.244	28356
816.385	28215
816.526	28352
816.666	28048
816.807	27869
816.948	27953
817.089	28029
817.23	28017
817.371	27926
817.512	27888
817.653	27949
817.793	27926
817.934	27842
818.075	27987
818.216	27987
818.356	27892
818.497	27865
818.638	27774
818.778	27519
818.919	27728
819.06	27778
819.2	27827
819.341	27953
819.481	27937
819.622	28013
819.762	28432
819.903	28185
820.043	28021
820.184	28162
820.324	28040
820.465	28192
820.605	28169
820.746	28013
820.886	27892
821.026	28078
821.167	27987
821.307	28120
821.447	27972
821.588	27728
821.728	27812
821.868	27568
822.008	27427
822.149	27511
822.289	27477
822.429	27135
822.569	27085
822.709	27085
822.849	26937
822.99	26986
823.13	26967
823.27	26956
823.41	26792
823.55	26697
823.69	26777
823.83	26819
823.97	26663
824.11	26590
824.25	26484
824.389	26549
824.529	26769
824.669	26545
824.809	26724
824.949	26689
825.089	26701
825.228	26670
825.368	26480
825.508	26320
825.648	26453
825.787	26499
825.927	26427
826.067	26423
826.206	26396
826.346	26522
826.485	26457
826.625	26571
826.765	26511
826.904	26461
827.044	26130
827.183	26248
827.323	26229
827.462	26164
827.601	26221
827.741	26119
827.88	26199
828.02	26027
828.159	26263
828.298	26229
828.437	26195
828.577	26084
828.716	26096
828.855	26122
828.994	25887
829.134	25708
829.273	25890
829.412	25818
829.551	25944
829.69	25837
829.829	25784
829.968	25898
830.107	25921
830.246	25909
830.385	25795
830.524	25757
830.663	25731
830.802	25563
830.941	25575
831.08	25358
831.219	25468
831.357	25628
831.496	25586
831.635	25430
831.774	25331
831.913	25396
832.051	25263
832.19	25202
832.329	25179
832.467	25148
832.606	25133
832.744	25015
832.883	25053
833.022	25019
833.16	25141
833.299	25137
833.437	25084
833.576	25202
833.714	25103
833.852	25213
833.991	25221
834.129	25160
834.267	25312
834.406	25228
834.544	25209
834.682	25152
834.821	25034
834.959	25449
835.097	25137
835.235	25308
835.373	25202
835.511	25217
835.65	25091
835.788	25194
835.926	24833
836.064	24821
836.202	24814
836.34	25019
836.478	25038
836.615	24973
836.753	25072
836.891	25053
837.029	25061
837.167	24909
837.305	24966
837.443	24947
837.58	24882
837.718	24890
837.856	24661
837.993	24760
838.131	24791
838.269	24719
838.406	24707
838.544	24776
838.681	24471
838.819	24422
838.956	24327
839.094	24273
839.231	24384
839.369	24574
839.506	24707
839.643	24661
839.781	24292
839.918	24323
840.055	24159
840.193	24311
840.33	24148
840.467	24213
840.604	24311
840.742	24460
840.879	24205
841.016	24171
841.153	24087
841.29	24308
841.427	24167
841.564	24235
841.701	24159
841.838	24190
841.975	23931
842.112	24136
842.249	24015
842.385	24038
842.522	24224
842.659	24106
842.796	24098
842.933	23969
843.069	23851
843.206	23916
843.343	23904
843.479	24095
843.616	24030
843.752	23741
843.889	23699
844.025	23798
844.162	23710
844.298	23836
844.435	23714
844.571	23657
844.708	23798
844.844	23908
844.98	23767
845.117	23798
845.253	23642
845.389	23520
845.525	23642
845.661	23581
845.798	23467
845.934	23486
846.07	23558
846.206	23585
846.342	23600
846.478	23501
846.614	23284
846.75	23128
846.886	23220
847.022	23223
847.158	23151
847.294	23212
847.429	23231
847.565	23159
847.701	23395
847.837	22999
847.972	22869
848.108	22949
848.244	23048
848.379	22915
848.515	22839
848.65	22839
848.786	22748
848.921	22733
849.057	22854
849.192	22858
849.328	22858
849.463	22793
849.598	22797
849.734	22645
849.869	22584
850.004	22607
850.14	22626
850.275	22554
850.41	22443
850.545	22459
850.68	22516
850.815	22550
850.95	22626
851.085	22725
851.22	22649
851.355	22470
851.49	22519
851.625	22527
851.76	22447
851.895	22402
852.03	22523
852.165	22500
852.299	22497
852.434	22584
852.569	22721
852.703	22641
852.838	22653
852.973	22603
853.107	22641
853.242	22569
853.376	22348
853.511	22299
853.645	22409
853.78	22386
853.914	22333
854.048	22246
854.183	22382
854.317	22485
854.451	22607
854.585	22516
854.72	22329
854.854	22421
854.988	22295
855.122	22371
855.256	22211
855.39	22242
855.524	22352
855.658	22436
855.792	22390
855.926	22440
856.06	22421
856.194	22371
856.327	22382
856.461	22322
856.595	22363
856.729	22276
856.862	22504
856.996	22462
857.13	22440
857.263	22478
857.397	22554
857.53	22295
857.664	22394
857.797	22310
857.931	22478
858.064	22382
858.197	22497
858.331	22257
858.464	22207
858.597	22268
858.731	22276
858.864	22215
858.997	22360
859.13	22363
859.263	22348
859.396	22379
859.529	22303
859.662	22314
859.795	22295
859.928	22413
860.061	22519
860.194	22653
860.327	22493
860.46	22291
860.592	22588
860.725	22577
860.858	22455
860.99	22367
861.123	22173
861.256	22329
861.388	22375
861.521	23102
861.653	22192
861.786	22154
861.918	22261
862.05	22265
862.183	22150
862.315	22207
862.447	22299
862.58	22344
862.712	21994
862.844	22070
862.976	22147
863.108	22219
863.24	22535
863.372	21953
863.504	22128
863.636	22067
863.768	22097
863.9	22017
864.032	22006
864.164	22116
864.296	21994
864.428	22154
864.559	21991
864.691	22131
864.823	22010
864.954	22074
865.086	22147
865.217	21926
865.349	21975
865.48	22025
865.612	21972
865.743	22139
865.875	21949
866.006	21899
866.137	21831
866.269	21964
866.4	21915
866.531	21789
866.662	21865
866.793	21937
866.924	21808
867.055	21899
867.186	21842
867.317	21968
867.448	21793
867.579	21781
867.71	21778
867.841	21690
867.972	21861
868.103	21842
868.233	21956
868.364	22006
868.495	22063
868.625	22059
868.756	22329
868.886	22135
869.017	22162
869.147	22280
869.278	22284
869.408	22150
869.539	21991
869.669	22341
869.799	22196
869.929	22284
870.06	22150
870.19	22402
870.32	22265
870.45	22443
870.58	22516
870.71	22417
870.84	22656
870.97	22596
871.1	22413
871.23	22645
871.36	22691
871.489	22611
871.619	22767
871.749	22626
871.879	22763
872.008	22828
872.138	22694
872.267	22557
872.397	22577
872.526	22466
872.656	22538
872.785	22557
872.915	22812
873.044	22672
873.173	22786
873.303	22881
873.432	22930
873.561	22816
873.69	22740
873.819	22721
873.948	22782
874.077	22858
874.206	22569
874.335	22626
874.464	22892
874.593	22862
874.722	22976
874.851	22984
874.979	22934
875.108	22934
875.237	22835
875.365	22793
875.494	23079
875.623	22987
875.751	22957
875.88	23044
876.008	23128
876.136	23094
876.265	23345
876.393	23493
876.521	23482
876.65	23280
876.778	23448
876.906	23197
877.034	23258
877.162	23307
877.29	23315
877.418	23178
877.546	23200
877.674	23254
877.802	23315
877.93	23277
878.058	23239
878.185	23014
878.313	23242
878.441	23334
878.568	23140
878.696	23280
878.824	23322
878.951	23562
879.079	23421
879.206	23619
879.333	23452
879.461	23356
879.588	23429
879.715	23398
879.842	23486
879.97	23280
880.097	23006
880.224	23128
880.351	23235
880.478	23136
880.605	23071
880.732	23105
880.859	23376
880.986	23121
881.112	23178
881.239	22972
881.366	22904
881.493	22744
881.619	22687
881.746	22664
881.872	22607
881.999	22668
882.125	22557
882.252	22577
882.378	22584
882.505	22793
882.631	22569
882.757	22337
882.883	22432
883.01	22268
883.136	22230
883.262	22185
883.388	22219
883.514	22314
883.64	22333
883.766	22181
883.892	22261
884.018	22192
884.143	22230
884.269	22337
884.395	21979
884.52	21983
884.646	22055
884.772	21915
884.897	21918
885.023	21892
885.148	22105
885.274	22131
885.399	22044
885.524	21972
885.65	22006
885.775	22101
885.9	21895
886.025	22124
886.15	21998
886.275	21861
886.4	21869
886.525	21857
886.65	21945
886.775	21873
886.9	21945
887.025	22059
887.149	21915
887.274	21907
887.399	21785
887.523	21728
887.648	21865
887.773	21656
887.897	21770
888.021	21694
888.146	21663
888.27	21808
888.395	21888
888.519	21861
888.643	21770
888.767	21728
888.891	21622
889.015	21447
889.139	21580
889.263	21561
889.387	21675
889.511	21770
889.635	21595
889.759	21511
889.883	21363
890.006	21637
890.13	21709
890.254	21412
890.377	21473
890.501	21370
890.624	21272
890.748	21306
890.871	21294
890.995	21089
891.118	21036
891.241	21009
891.364	21055
891.488	21157
891.611	21066
891.734	21207
891.857	21055
891.98	21093
892.103	21070
892.226	21112
892.349	20998
892.471	20823
892.594	20975
892.717	21127
892.839	20899
892.962	20925
893.085	21028
893.207	20948
893.33	20853
893.452	20937
893.575	21009
893.697	20906
893.819	21123
893.941	21074
894.064	21062
894.186	20807
894.308	20910
894.43	21036
894.552	21131
894.674	21127
894.796	20830
894.918	20963
895.04	21017
895.161	20960
895.283	20963
895.405	20849
895.526	20963
895.648	20876
895.769	21024
895.891	20902
896.012	20986
896.134	20952
896.255	20910
896.376	20823
896.498	20986
896.619	20975
896.74	20937
896.861	20925
896.982	21332
897.103	21386
897.224	21180
897.345	21070
897.466	21230
897.587	21100
897.708	21329
897.828	21260
897.949	21093
898.07	21024
898.19	21070
898.311	21150
898.431	21150
898.552	21077
898.672	21188
898.792	21233
898.913	21077
899.033	21013
899.153	20944
899.273	20777
899.393	20842
899.513	20925
899.633	20781
899.753	20941
899.873	20750
899.993	20883
900.113	20861
900.232	20826
900.352	20754
900.472	20842
900.591	20575
900.711	20773
900.83	20648
900.95	20724
901.069	20689
901.189	20526
901.308	20343
901.427	20218
901.546	20271
901.665	20126
901.784	20339
901.904	20168
902.023	19902
902.141	19742
902.26	19795
902.379	19879
902.498	19791
902.617	19685
902.735	19742
902.854	19677
902.973	19594
903.091	19396
903.21	19460
903.328	19407
903.446	19266
903.565	19247
903.683	19221
903.801	19076
903.919	19095
904.038	19133
904.156	18901
904.274	19008
904.392	18867
904.51	18890
904.627	18920
904.745	18943
904.863	18989
904.981	18753
905.098	18646
905.216	18661
905.334	18639
905.451	18642
905.569	18547
905.686	18540
905.803	18574
905.921	18418
906.038	18391
906.155	18483
906.272	18308
906.389	18262
906.506	18148
906.623	18205
906.74	18171
906.857	18030
906.974	18098
907.091	18201
907.208	18296
907.324	18064
907.441	18011
907.557	17897
907.674	17840
907.79	17809
907.907	17752
908.023	17840
908.139	17817
908.256	17752
908.372	17745
908.488	17783
908.604	17634
908.72	17463
908.836	17524
908.952	17509
909.068	17627
909.184	17684
909.3	17604
909.415	17585
909.531	17577
909.647	17273
909.762	17303
909.878	17239
909.993	17269
910.108	17166
910.224	17193
910.339	17242
910.454	17181
910.57	17181
910.685	17060
910.8	17296
910.915	17102
911.03	17037
911.145	16858
911.259	16858
911.374	16843
911.489	16706
911.604	16763
911.718	16618
911.833	16577
911.947	16565
912.062	16371
912.176	16523
912.291	16527
912.405	16626
912.519	16706
912.633	16812
912.748	16615
912.862	16527
912.976	16455
913.09	16306
913.204	16352
913.318	16382
913.431	16493
913.545	16550
913.659	16432
913.772	16421
913.886	16093
914	16147
914.113	16204
914.226	16352
914.34	16238
914.453	16055
914.566	16272
914.68	16074
914.793	16093
914.906	15895
915.019	15869
915.132	15720
915.245	15808
915.358	15838
915.47	15728
915.583	15766
915.696	15789
915.809	15759
915.921	15865
916.034	15705
916.146	15610
916.259	15671
916.371	15739
916.483	15701
916.595	15591
916.708	15564
916.82	15584
916.932	15538
917.044	15504
917.156	15355
917.268	15283
917.38	15454
917.491	15420
917.603	15469
917.715	15412
917.826	15428
917.938	15344
918.049	15252
918.161	15424
918.272	15462
918.384	15447
918.495	15336
918.606	15180
918.717	15093
918.828	15233
918.939	15249
919.05	15157
919.161	15116
919.272	14914
919.383	14872
919.494	15058
919.604	15298
919.715	15142
919.826	15024
919.936	15024
920.047	15138
920.157	15036
920.267	15310
920.378	15039
920.488	15005
920.598	15233
920.708	15325
920.818	15226
920.928	15214
921.038	15382
921.148	15294
921.258	15001
921.368	14891
921.477	14788
921.587	14785
921.697	14727
921.806	14819
921.916	14705
922.025	14476
922.134	14469
922.244	14351
922.353	14499
922.462	14320
922.571	14176
922.68	14092
922.789	14084
922.898	14096
923.007	14092
923.116	14100
923.224	14024
923.333	14012
923.442	13909
923.55	13913
923.659	14012
923.767	13894
923.876	13833
923.984	13955
924.092	13757
924.201	13913
924.309	13845
924.417	13864
924.525	13708
924.633	13727
924.741	14606
924.849	13548
924.956	13776
925.064	13548
925.172	13403
925.279	13464
925.387	13487
925.494	13464
925.602	13609
925.709	13537
925.816	13441
925.924	13339
926.031	13544
926.138	13346
926.245	13426
926.352	13244
926.459	13457
926.566	13441
926.673	13346
926.779	13190
926.886	13168
926.993	13015
927.099	13061
927.206	13012
927.312	12985
927.419	13031
927.525	12939
927.631	13069
927.737	12859
927.843	12779
927.95	12772
928.056	12871
928.162	12795
928.267	12821
928.373	13491
928.479	12848
928.585	12684
928.69	12825
928.796	12844
928.901	12658
929.007	12555
929.112	12665
929.218	12669
929.323	12536
929.428	12566
929.533	12658
929.638	12483
929.743	12452
929.848	12536
929.953	12506
930.058	12418
930.163	12254
930.267	12243
930.372	12346
930.477	12121
930.581	12513
930.685	12213
930.79	12114
930.894	12197
930.998	12041
931.103	12106
931.207	11794
931.311	11726
931.415	11615
931.519	11474
931.623	11440
