Data from test_V78500241_1295.txt Node
Date: Fri Mar 25 15:50:46 CST 2022
User: usil
Spectrometer: V785-0024
Trigger mode: 0
Integration Time (sec): 4.000000E-1
Scans to average: 1
Nonlinearity correction enabled: false
Boxcar width: 0
Storing dark spectrum: false
XAxis mode: Wavelengths
Number of Pixels in Spectrum: 1024
>>>>>Begin Spectral Data<<<<<
801.071	28344
801.214	28291
801.356	28147
801.499	28010
801.641	27953
801.783	27979
801.926	27964
802.068	27994
802.211	27914
802.353	27892
802.496	27823
802.638	27690
802.78	27580
802.923	27648
803.065	27416
803.208	27534
803.35	27671
803.492	27819
803.635	27831
803.777	27755
803.919	27823
804.061	28246
804.204	28036
804.346	27835
804.488	27694
804.63	27709
804.773	27766
804.915	27850
805.057	27937
805.199	27789
805.341	28070
805.483	27941
805.626	28013
805.768	27793
805.91	28051
806.052	27953
806.194	27975
806.336	28200
806.478	28154
806.62	27907
806.762	28207
806.904	28367
807.046	28516
807.188	28375
807.33	28424
807.472	28557
807.614	28379
807.756	28527
807.898	28485
808.04	28284
808.182	28314
808.324	28196
808.465	28367
808.607	28466
808.749	28725
808.891	28713
809.033	28915
809.174	28733
809.316	28729
809.458	28596
809.6	28615
809.741	28862
809.883	28778
810.025	29006
810.166	28946
810.308	28991
810.45	29033
810.591	28934
810.733	28869
810.875	28828
811.016	28599
811.158	28660
811.299	28755
811.441	28831
811.582	28824
811.724	28805
811.865	28592
812.007	28637
812.148	28584
812.29	28713
812.431	28885
812.573	29025
812.714	29067
812.855	29216
812.997	29303
813.138	29551
813.279	29277
813.421	29246
813.562	29189
813.703	28938
813.845	28923
813.986	28698
814.127	28466
814.268	28409
814.41	28390
814.551	28382
814.692	28512
814.833	28337
814.974	28242
815.115	28417
815.256	28299
815.397	28394
815.539	28204
815.68	28284
815.821	28128
815.962	28223
816.103	28158
816.244	27983
816.385	28067
816.526	27899
816.666	27759
816.807	27603
816.948	27671
817.089	27884
817.23	27625
817.371	27720
817.512	27694
817.653	27736
817.793	27656
817.934	27724
818.075	27766
818.216	27720
818.356	27656
818.497	27519
818.638	27332
818.778	27481
818.919	27458
819.06	27652
819.2	27644
819.341	27736
819.481	27660
819.622	27823
819.762	27979
819.903	27793
820.043	27907
820.184	27903
820.324	27960
820.465	27873
820.605	27899
820.746	27827
820.886	27808
821.026	27827
821.167	27755
821.307	27941
821.447	27835
821.588	27644
821.728	27469
821.868	27405
822.008	27176
822.149	27291
822.289	27214
822.429	27032
822.569	26891
822.709	26952
822.849	26632
822.99	26815
823.13	26781
823.27	26720
823.41	26613
823.55	26438
823.69	26568
823.83	26602
823.97	26347
824.11	26324
824.25	26366
824.389	26385
824.529	26530
824.669	26370
824.809	26545
824.949	26431
825.089	26419
825.228	26469
825.368	26206
825.508	26164
825.648	26358
825.787	26191
825.927	26305
826.067	26233
826.206	26355
826.346	26313
826.485	26248
826.625	26176
826.765	26469
826.904	26225
827.044	26100
827.183	26069
827.323	25963
827.462	25936
827.601	26035
827.741	25993
827.88	26062
828.02	25742
828.159	25856
828.298	26020
828.437	26027
828.577	25860
828.716	26031
828.855	25807
828.994	25628
829.134	25719
829.273	25681
829.412	25613
829.551	25624
829.69	25685
829.829	25586
829.968	25738
830.107	25807
830.246	25769
830.385	25571
830.524	25521
830.663	25468
830.802	25422
830.941	25129
831.08	25240
831.219	25266
831.357	25213
831.496	25445
831.635	25274
831.774	25232
831.913	25110
832.051	25076
832.19	25133
832.329	25000
832.467	25042
832.606	24894
832.744	24901
832.883	24791
833.022	24840
833.16	24962
833.299	24954
833.437	25038
833.576	24966
833.714	24947
833.852	25012
833.991	25107
834.129	25137
834.267	25122
834.406	24981
834.544	24962
834.682	25065
834.821	24935
834.959	25206
835.097	25038
835.235	25008
835.373	25004
835.511	25019
835.65	24741
835.788	25008
835.926	24802
836.064	24673
836.202	24677
836.34	24817
836.478	24886
836.615	24791
836.753	24856
836.891	24935
837.029	24928
837.167	24806
837.305	24692
837.443	24703
837.58	24578
837.718	24837
837.856	24612
837.993	24673
838.131	24616
838.269	24544
838.406	24578
838.544	24502
838.681	24285
838.819	24300
838.956	24030
839.094	24171
839.231	24228
839.369	24304
839.506	24437
839.643	24388
839.781	24106
839.918	24011
840.055	24270
840.193	24060
840.33	24049
840.467	23973
840.604	24072
840.742	24270
840.879	23931
841.016	23942
841.153	23980
841.29	24068
841.427	23950
841.564	24049
841.701	23889
841.838	23958
841.975	23863
842.112	24030
842.249	23832
842.385	23920
842.522	23984
842.659	23840
842.796	23798
842.933	23878
843.069	23809
843.206	23687
843.343	23897
843.479	23790
843.616	23771
843.752	23471
843.889	23429
844.025	23680
844.162	23585
844.298	23668
844.435	23497
844.571	23699
844.708	23611
844.844	23691
844.98	23771
845.117	23497
845.253	23638
845.389	23402
845.525	23372
845.661	23376
845.798	23307
845.934	23330
846.07	23239
846.206	23315
846.342	23478
846.478	23197
846.614	23071
846.75	22919
846.886	23075
847.022	22923
847.158	22949
847.294	23018
847.429	23159
847.565	22976
847.701	23330
847.837	22771
847.972	22725
848.108	22755
848.244	22820
848.379	22577
848.515	22630
848.65	22489
848.786	22771
848.921	22588
849.057	22736
849.192	22721
849.328	22573
849.463	22607
849.598	22519
849.734	22417
849.869	22451
850.004	22390
850.14	22379
850.275	22382
850.41	22344
850.545	22333
850.68	22390
850.815	22325
850.95	22356
851.085	22516
851.22	22497
851.355	22322
851.49	22348
851.625	22276
851.76	22363
851.895	22360
852.03	22246
852.165	22447
852.299	22287
852.434	22360
852.569	22394
852.703	22413
852.838	22382
852.973	22413
853.107	22489
853.242	22276
853.376	22291
853.511	21937
853.645	22200
853.78	22337
853.914	22173
854.048	22063
854.183	22230
854.317	22192
854.451	22363
854.585	22177
854.72	22173
854.854	22314
854.988	22158
855.122	22226
855.256	22010
855.39	22173
855.524	22185
855.658	22116
855.792	22048
855.926	22147
856.06	22219
856.194	22310
856.327	22196
856.461	22013
856.595	22143
856.729	22120
856.862	22234
856.996	22192
857.13	22265
857.263	22265
857.397	22192
857.53	22280
857.664	22246
857.797	22173
857.931	22413
858.064	22131
858.197	22310
858.331	22090
858.464	22162
858.597	22059
858.731	22139
858.864	22131
858.997	22029
859.13	22082
859.263	22192
859.396	22318
859.529	22036
859.662	22162
859.795	22192
859.928	22139
860.061	22207
860.194	22386
860.327	22219
860.46	21968
860.592	22143
860.725	22333
860.858	22371
860.99	22158
861.123	22051
861.256	22070
861.388	22086
861.521	22892
861.653	22025
861.786	21964
861.918	22025
862.05	22051
862.183	22055
862.315	22086
862.447	22112
862.58	22116
862.712	21869
862.844	21739
862.976	21926
863.108	22021
863.24	22226
863.372	21800
863.504	21865
863.636	21800
863.768	21846
863.9	21934
864.032	21770
864.164	21850
864.296	21842
864.428	21903
864.559	21861
864.691	21937
864.823	21869
864.954	21743
865.086	21869
865.217	21717
865.349	21641
865.48	21835
865.612	21705
865.743	21876
865.875	21701
866.006	21774
866.137	21698
866.269	21747
866.4	21861
866.531	21568
866.662	21629
866.793	21751
866.924	21675
867.055	21739
867.186	21743
867.317	21686
867.448	21713
867.579	21682
867.71	21648
867.841	21682
867.972	21701
868.103	21629
868.233	21808
868.364	21720
868.495	21915
868.625	21770
868.756	22097
868.886	21846
869.017	21892
869.147	22021
869.278	22074
869.408	22002
869.539	21888
869.669	22040
869.799	22093
869.929	22017
870.06	21949
870.19	22211
870.32	22310
870.45	22242
870.58	22291
870.71	22341
870.84	22447
870.97	22299
871.1	22265
871.23	22531
871.36	22519
871.489	22512
871.619	22546
871.749	22424
871.879	22489
872.008	22584
872.138	22565
872.267	22599
872.397	22299
872.526	22314
872.656	22246
872.785	22310
872.915	22554
873.044	22611
873.173	22554
873.303	22580
873.432	22618
873.561	22603
873.69	22596
873.819	22550
873.948	22531
874.077	22519
874.206	22542
874.335	22527
874.464	22649
874.593	22835
874.722	22729
874.851	22748
874.979	22748
875.108	22790
875.237	22626
875.365	22710
875.494	22679
875.623	22706
875.751	22634
875.88	22801
876.008	22919
876.136	23037
876.265	23105
876.393	23299
876.521	23239
876.65	23223
876.778	23113
876.906	23132
877.034	23048
877.162	22987
877.29	23037
877.418	23083
877.546	23102
877.674	23006
877.802	22987
877.93	23022
878.058	23044
878.185	22934
878.313	23014
878.441	23121
878.568	22965
878.696	23010
878.824	23189
878.951	23242
879.079	23356
879.206	23391
879.333	23284
879.461	23105
879.588	23151
879.715	23315
879.842	23246
879.97	23258
880.097	22957
880.224	22927
880.351	22915
880.478	22869
880.605	22873
880.732	22949
880.859	23159
880.986	22858
881.112	22869
881.239	22816
881.366	22645
881.493	22546
881.619	22470
881.746	22542
881.872	22504
881.999	22405
882.125	22481
882.252	22531
882.378	22379
882.505	22489
882.631	22318
882.757	22211
882.883	22268
883.01	22158
883.136	22051
883.262	22154
883.388	22044
883.514	22097
883.64	22158
883.766	22002
883.892	21827
884.018	21972
884.143	22059
884.269	22166
884.395	21941
884.52	21739
884.646	21797
884.772	21686
884.897	21671
885.023	21762
885.148	21915
885.274	22044
885.399	21869
885.524	21812
885.65	21869
885.775	21774
885.9	21682
886.025	21930
886.15	21903
886.275	21819
886.4	21679
886.525	21694
886.65	21793
886.775	21739
886.9	21930
887.025	22040
887.149	21739
887.274	21637
887.399	21580
887.523	21492
887.648	21568
887.773	21428
887.897	21606
888.021	21553
888.146	21553
888.27	21663
888.395	21633
888.519	21557
888.643	21606
888.767	21378
888.891	21485
889.015	21329
889.139	21439
889.263	21306
889.387	21462
889.511	21488
889.635	21363
889.759	21264
889.883	21332
890.006	21329
890.13	21428
890.254	21313
890.377	21252
890.501	21119
890.624	21096
890.748	21020
890.871	21047
890.995	20872
891.118	20823
891.241	20982
891.364	20792
891.488	21001
891.611	20952
891.734	20906
891.857	20952
891.98	20762
892.103	20979
892.226	20952
892.349	20914
892.471	20629
892.594	20769
892.717	20830
892.839	20746
892.962	20891
893.085	20815
893.207	20727
893.33	20632
893.452	20838
893.575	20872
893.697	20682
893.819	20853
893.941	20986
894.064	20880
894.186	20769
894.308	20644
894.43	20834
894.552	20921
894.674	20944
894.796	20640
894.918	20785
895.04	20712
895.161	20804
895.283	20777
895.405	20731
895.526	20739
895.648	20701
895.769	20876
895.891	20819
896.012	20895
896.134	20758
896.255	20804
896.376	20746
896.498	20800
896.619	20777
896.74	20697
896.861	20804
896.982	20998
897.103	21226
897.224	21112
897.345	20933
897.466	20998
897.587	21024
897.708	21028
897.828	20986
897.949	21005
898.07	20857
898.19	20963
898.311	21116
898.431	20960
898.552	20967
898.672	21104
898.792	21013
898.913	21062
899.033	20887
899.153	20807
899.273	20632
899.393	20781
899.513	20750
899.633	20731
899.753	20674
899.873	20746
899.993	20746
900.113	20712
900.232	20705
900.352	20678
900.472	20556
900.591	20396
900.711	20499
900.83	20438
900.95	20503
901.069	20556
901.189	20434
901.308	20202
901.427	20092
901.546	20069
901.665	19989
901.784	19986
901.904	19917
902.023	19890
902.141	19677
902.26	19571
902.379	19772
902.498	19537
902.617	19586
902.735	19605
902.854	19502
902.973	19563
903.091	19274
903.21	19213
903.328	19187
903.446	19088
903.565	19019
903.683	18966
903.801	18973
903.919	19004
904.038	19042
904.156	18863
904.274	18814
904.392	18776
904.51	18749
904.627	18814
904.745	18897
904.863	18802
904.981	18631
905.098	18471
905.216	18445
905.334	18582
905.451	18509
905.569	18403
905.686	18445
905.803	18403
905.921	18270
906.038	18395
906.155	18201
906.272	18140
906.389	18228
906.506	18098
906.623	17973
906.74	18038
906.857	17920
906.974	17798
907.091	17980
907.208	18030
907.324	18007
907.441	17950
907.557	17824
907.674	17581
907.79	17707
907.907	17630
908.023	17638
908.139	17646
908.256	17691
908.372	17558
908.488	17809
908.604	17543
908.72	17444
908.836	17337
908.952	17398
909.068	17558
909.184	17429
909.3	17383
909.415	17402
909.531	17417
909.647	17216
909.762	17071
909.878	17071
909.993	17181
910.108	17136
910.224	17147
910.339	16995
910.454	16942
910.57	16980
910.685	16869
910.8	17102
910.915	17037
911.03	17086
911.145	16774
911.259	16786
911.374	16702
911.489	16717
911.604	16603
911.718	16466
911.833	16546
911.947	16455
912.062	16299
912.176	16489
912.291	16500
912.405	16417
912.519	16664
912.633	16634
912.748	16508
912.862	16325
912.976	16211
913.09	16090
913.204	16238
913.318	16226
913.431	16344
913.545	16219
913.659	16360
913.772	16105
913.886	16032
914	16051
914.113	16147
914.226	16135
914.34	16135
914.453	15945
914.566	16154
914.68	15960
914.793	15888
914.906	15720
915.019	15610
915.132	15599
915.245	15618
915.358	15591
915.47	15705
915.583	15584
915.696	15724
915.809	15717
915.921	15709
916.034	15545
916.146	15389
916.259	15587
916.371	15633
916.483	15557
916.595	15405
916.708	15481
916.82	15386
916.932	15393
917.044	15329
917.156	15329
917.268	15275
917.38	15325
917.491	15203
917.603	15313
917.715	15397
917.826	15340
917.938	15131
918.049	15093
918.161	15195
918.272	15332
918.384	15351
918.495	15188
918.606	15032
918.717	14929
918.828	15024
918.939	14960
919.05	14960
919.161	15032
919.272	14773
919.383	14838
919.494	14994
919.604	15203
919.715	14891
919.826	14853
919.936	14914
920.047	15013
920.157	14887
920.267	15233
920.378	14971
920.488	14918
920.598	15097
920.708	15252
920.818	15108
920.928	15093
921.038	15306
921.148	15272
921.258	14895
921.368	14864
921.477	14743
921.587	14712
921.697	14632
921.806	14743
921.916	14434
922.025	14324
922.134	14336
922.244	14332
922.353	14332
922.462	14225
922.571	14157
922.68	13986
922.789	14077
922.898	13997
923.007	13902
923.116	13970
923.224	13917
923.333	13936
923.442	13814
923.55	13803
923.659	13761
923.767	13898
923.876	13788
923.984	13814
924.092	13670
924.201	13769
924.309	13753
924.417	13712
924.525	13670
924.633	13636
924.741	14522
924.849	13487
924.956	13575
925.064	13308
925.172	13354
925.279	13445
925.387	13365
925.494	13316
925.602	13468
925.709	13403
925.816	13270
925.924	13278
926.031	13419
926.138	13350
926.245	13289
926.352	13168
926.459	13301
926.566	13308
926.673	13221
926.779	13122
926.886	13103
926.993	12958
927.099	12928
927.206	12871
927.312	12920
927.419	12905
927.525	12935
927.631	12947
927.737	12806
927.843	12810
927.95	12700
928.056	12726
928.162	12783
928.267	12886
928.373	13312
928.479	12787
928.585	12517
928.69	12631
928.796	12692
928.901	12578
929.007	12445
929.112	12528
929.218	12521
929.323	12486
929.428	12384
929.533	12563
929.638	12388
929.743	12407
929.848	12498
929.953	12414
930.058	12251
930.163	12019
930.267	12140
930.372	12213
930.477	12060
930.581	12258
930.685	12152
930.79	11977
930.894	12053
930.998	12030
931.103	12117
931.207	11855
931.311	11646
931.415	11524
931.519	11463
931.623	11326
