Data from test_V78500241_2639.txt Node
Date: Fri Mar 25 16:00:04 CST 2022
User: usil
Spectrometer: V785-0024
Trigger mode: 0
Integration Time (sec): 4.000000E-1
Scans to average: 1
Nonlinearity correction enabled: false
Boxcar width: 0
Storing dark spectrum: false
XAxis mode: Wavelengths
Number of Pixels in Spectrum: 1024
>>>>>Begin Spectral Data<<<<<
801.071	29056
801.214	28904
801.356	28748
801.499	28653
801.641	28504
801.783	28489
801.926	28500
802.068	28516
802.211	28573
802.353	28432
802.496	28226
802.638	28261
802.78	28131
802.923	28120
803.065	28112
803.208	28211
803.35	28314
803.492	28413
803.635	28398
803.777	28379
803.919	28527
804.061	28820
804.204	28508
804.346	28466
804.488	28352
804.63	28443
804.773	28470
804.915	28538
805.057	28599
805.199	28527
805.341	28588
805.483	28759
805.626	28664
805.768	28561
805.91	28649
806.052	28725
806.194	28546
806.336	28679
806.478	28641
806.62	28763
806.762	28869
806.904	29052
807.046	29235
807.188	29113
807.33	29162
807.472	29239
807.614	29090
807.756	29086
807.898	28999
808.04	28980
808.182	28809
808.324	28961
808.465	29014
808.607	29166
808.749	29436
808.891	29414
809.033	29501
809.174	29505
809.316	29315
809.458	29395
809.6	29250
809.741	29474
809.883	29684
810.025	29756
810.166	29707
810.308	29642
810.45	29551
810.591	29520
810.733	29459
810.875	29318
811.016	29330
811.158	29174
811.299	29421
811.441	29627
811.582	29665
811.724	29490
811.865	29223
812.007	29178
812.148	29383
812.29	29463
812.431	29471
812.573	29942
812.714	29756
812.855	30015
812.997	30030
813.138	30262
813.279	29973
813.421	29851
813.562	29859
813.703	29592
813.845	29505
813.986	29341
814.127	29178
814.268	29102
814.41	29094
814.551	29143
814.692	29159
814.833	29014
814.974	29094
815.115	29277
815.256	28927
815.397	28820
815.539	29003
815.68	28896
815.821	28809
815.962	28850
816.103	28987
816.244	28831
816.385	28755
816.526	28622
816.666	28447
816.807	28489
816.948	28542
817.089	28432
817.23	28424
817.371	28466
817.512	28318
817.653	28440
817.793	28363
817.934	28424
818.075	28421
818.216	28466
818.356	28390
818.497	28265
818.638	28154
818.778	28135
818.919	28226
819.06	28295
819.2	28360
819.341	28428
819.481	28432
819.622	28637
819.762	28778
819.903	28637
820.043	28675
820.184	28653
820.324	28504
820.465	28733
820.605	28630
820.746	28512
820.886	28497
821.026	28493
821.167	28363
821.307	28561
821.447	28546
821.588	28299
821.728	28306
821.868	28139
822.008	27926
822.149	27892
822.289	27785
822.429	27538
822.569	27641
822.709	27656
822.849	27401
822.99	27485
823.13	27279
823.27	27401
823.41	27112
823.55	27108
823.69	27329
823.83	27279
823.97	27264
824.11	27085
824.25	27032
824.389	26868
824.529	27036
824.669	27214
824.809	27176
824.949	27211
825.089	27112
825.228	27096
825.368	26990
825.508	26925
825.648	26956
825.787	27005
825.927	26944
826.067	26910
826.206	26880
826.346	27100
826.485	27024
826.625	26967
826.765	26933
826.904	26986
827.044	26883
827.183	26701
827.323	26609
827.462	26769
827.601	26556
827.741	26678
827.88	26708
828.02	26503
828.159	26640
828.298	26667
828.437	26606
828.577	26644
828.716	26792
828.855	26469
828.994	26374
829.134	26396
829.273	26492
829.412	26347
829.551	26305
829.69	26294
829.829	26503
829.968	26374
830.107	26492
830.246	26286
830.385	26225
830.524	26336
830.663	26214
830.802	26084
830.941	25883
831.08	25986
831.219	26065
831.357	25894
831.496	26202
831.635	25845
831.774	25928
831.913	25925
832.051	25784
832.19	25814
832.329	25925
832.467	25624
832.606	25586
832.744	25540
832.883	25537
833.022	25552
833.16	25616
833.299	25677
833.437	25803
833.576	25734
833.714	25620
833.852	25685
833.991	25765
834.129	25761
834.267	25723
834.406	25601
834.544	25715
834.682	25807
834.821	25784
834.959	25708
835.097	25582
835.235	25696
835.373	25635
835.511	25647
835.65	25381
835.788	25521
835.926	25365
836.064	25289
836.202	25381
836.34	25518
836.478	25506
836.615	25479
836.753	25487
836.891	25616
837.029	25544
837.167	25445
837.305	25464
837.443	25297
837.58	25278
837.718	25278
837.856	25449
837.993	25213
838.131	25464
838.269	25175
838.406	25107
838.544	25187
838.681	25034
838.819	25061
838.956	24825
839.094	24711
839.231	24814
839.369	24909
839.506	25240
839.643	24897
839.781	24878
839.918	24673
840.055	24745
840.193	24787
840.33	24821
840.467	24844
840.604	24810
840.742	25004
840.879	24486
841.016	24639
841.153	24681
841.29	24741
841.427	24715
841.564	24764
841.701	24658
841.838	24741
841.975	24578
842.112	24513
842.249	24471
842.385	24437
842.522	24654
842.659	24559
842.796	24528
842.933	24467
843.069	24422
843.206	24536
843.343	24547
843.479	24494
843.616	24464
843.752	24251
843.889	24410
844.025	24407
844.162	24228
844.298	24418
844.435	24213
844.571	24121
844.708	24251
844.844	24350
844.98	24330
845.117	24426
845.253	24072
845.389	24155
845.525	24015
845.661	24155
845.798	23897
845.934	24083
846.07	23935
846.206	24057
846.342	23996
846.478	23908
846.614	23824
846.75	23577
846.886	23604
847.022	23699
847.158	23668
847.294	23611
847.429	23737
847.565	23619
847.701	23878
847.837	23383
847.972	23368
848.108	23512
848.244	23490
848.379	23326
848.515	23372
848.65	23288
848.786	23239
848.921	23395
849.057	23318
849.192	23398
849.328	23315
849.463	23181
849.598	23265
849.734	23235
849.869	23060
850.004	22938
850.14	23033
850.275	23162
850.41	22942
850.545	22942
850.68	22999
850.815	22999
850.95	23044
851.085	23277
851.22	23170
851.355	23006
851.49	22942
851.625	22938
851.76	23121
851.895	22991
852.03	22911
852.165	22980
852.299	23083
852.434	23079
852.569	23102
852.703	22972
852.838	23079
852.973	23124
853.107	23109
853.242	23071
853.376	22938
853.511	22771
853.645	22839
853.78	22816
853.914	22896
854.048	22706
854.183	22843
854.317	22858
854.451	23105
854.585	22957
854.72	22869
854.854	22866
854.988	22850
855.122	22812
855.256	22759
855.39	22862
855.524	22911
855.658	22915
855.792	22858
855.926	22835
856.06	22949
856.194	22828
856.327	22786
856.461	22748
856.595	22774
856.729	22809
856.862	22930
856.996	22831
857.13	22942
857.263	22965
857.397	22984
857.53	22740
857.664	22786
857.797	22805
857.931	22892
858.064	22797
858.197	22957
858.331	22877
858.464	22843
858.597	22809
858.731	22736
858.864	22736
858.997	22725
859.13	22824
859.263	22919
859.396	22904
859.529	22900
859.662	22854
859.795	22801
859.928	22744
860.061	23025
860.194	22965
860.327	22873
860.46	22854
860.592	22987
860.725	23029
860.858	22904
860.99	22854
861.123	22854
861.256	22767
861.388	22831
861.521	23684
861.653	22736
861.786	22607
861.918	22713
862.05	22748
862.183	22828
862.315	22782
862.447	22797
862.58	22618
862.712	22489
862.844	22527
862.976	22592
863.108	22752
863.24	22930
863.372	22443
863.504	22577
863.636	22603
863.768	22607
863.9	22592
864.032	22512
864.164	22649
864.296	22512
864.428	22603
864.559	22679
864.691	22679
864.823	22462
864.954	22535
865.086	22440
865.217	22535
865.349	22371
865.48	22394
865.612	22481
865.743	22592
865.875	22352
866.006	22371
866.137	22344
866.269	22360
866.4	22341
866.531	22325
866.662	22200
866.793	22360
866.924	22394
867.055	22386
867.186	22367
867.317	22417
867.448	22276
867.579	22382
867.71	22299
867.841	22337
867.972	22352
868.103	22276
868.233	22348
868.364	22322
868.495	22603
868.625	22535
868.756	22691
868.886	22459
869.017	22557
869.147	22782
869.278	22713
869.408	22618
869.539	22611
869.669	22653
869.799	22698
869.929	22740
870.06	22668
870.19	22877
870.32	22805
870.45	22835
870.58	22949
870.71	23155
870.84	23113
870.97	22987
871.1	22923
871.23	23098
871.36	23212
871.489	23105
871.619	23185
871.749	23174
871.879	23223
872.008	23185
872.138	23170
872.267	23178
872.397	23204
872.526	23090
872.656	23052
872.785	22984
872.915	23212
873.044	23181
873.173	23220
873.303	23220
873.432	23288
873.561	23353
873.69	23212
873.819	23086
873.948	23353
874.077	23136
874.206	23159
874.335	23147
874.464	23311
874.593	23345
874.722	23254
874.851	23581
874.979	23395
875.108	23505
875.237	23299
875.365	23273
875.494	23345
875.623	23459
875.751	23349
875.88	23497
876.008	23539
876.136	23501
876.265	23878
876.393	23813
876.521	23893
876.65	23908
876.778	23798
876.906	23726
877.034	23798
877.162	23729
877.29	23615
877.418	23771
877.546	23767
877.674	23630
877.802	23760
877.93	23805
878.058	23657
878.185	23722
878.313	23661
878.441	23737
878.568	23592
878.696	23687
878.824	23882
878.951	23847
879.079	23878
879.206	23992
879.333	23920
879.461	23809
879.588	23901
879.715	23878
879.842	23984
879.97	23847
880.097	23608
880.224	23608
880.351	23627
880.478	23608
880.605	23512
880.732	23512
880.859	23843
880.986	23509
881.112	23551
881.239	23292
881.366	23391
881.493	23269
881.619	23124
881.746	23052
881.872	23140
881.999	23086
882.125	23079
882.252	23086
882.378	23105
882.505	23204
882.631	22904
882.757	22755
882.883	22892
883.01	22801
883.136	22729
883.262	22607
883.388	22615
883.514	22763
883.64	22763
883.766	22569
883.892	22615
884.018	22542
884.143	22679
884.269	22782
884.395	22474
884.52	22398
884.646	22546
884.772	22341
884.897	22257
885.023	22268
885.148	22443
885.274	22672
885.399	22550
885.524	22470
885.65	22424
885.775	22424
885.9	22398
886.025	22546
886.15	22329
886.275	22436
886.4	22432
886.525	22367
886.65	22287
886.775	22360
886.9	22535
887.025	22607
887.149	22238
887.274	22166
887.399	22158
887.523	22128
887.648	22166
887.773	22090
887.897	22276
888.021	22207
888.146	22238
888.27	22261
888.395	22284
888.519	22188
888.643	22207
888.767	22287
888.891	22055
889.015	21956
889.139	21998
889.263	22002
889.387	22082
889.511	22207
889.635	22074
889.759	21941
889.883	21888
890.006	21854
890.13	21964
890.254	21865
890.377	22017
890.501	21793
890.624	21644
890.748	21759
890.871	21701
890.995	21568
891.118	21420
891.241	21492
891.364	21564
891.488	21572
891.611	21648
891.734	21473
891.857	21572
891.98	21515
892.103	21580
892.226	21511
892.349	21420
892.471	21272
892.594	21462
892.717	21325
892.839	21374
892.962	21313
893.085	21500
893.207	21264
893.33	21317
893.452	21321
893.575	21420
893.697	21348
893.819	21515
893.941	21538
894.064	21488
894.186	21458
894.308	21268
894.43	21439
894.552	21580
894.674	21511
894.796	21351
894.918	21241
895.04	21264
895.161	21374
895.283	21386
895.405	21199
895.526	21450
895.648	21275
895.769	21416
895.891	21382
896.012	21481
896.134	21370
896.255	21332
896.376	21351
896.498	21329
896.619	21397
896.74	21287
896.861	21428
896.982	21660
897.103	21812
897.224	21633
897.345	21599
897.466	21564
897.587	21568
897.708	21682
897.828	21644
897.949	21523
898.07	21397
898.19	21496
898.311	21633
898.431	21538
898.552	21519
898.672	21469
898.792	21526
898.913	21629
899.033	21389
899.153	21420
899.273	21230
899.393	21363
899.513	21382
899.633	21272
899.753	21241
899.873	21283
899.993	21317
900.113	21355
900.232	21233
900.352	21154
900.472	21043
900.591	20895
900.711	21066
900.83	21066
900.95	21226
901.069	21024
901.189	20883
901.308	20609
901.427	20667
901.546	20629
901.665	20648
901.784	20667
901.904	20476
902.023	20427
902.141	20111
902.26	20244
902.379	20252
902.498	20115
902.617	20058
902.735	20199
902.854	20024
902.973	20035
903.091	19807
903.21	19693
903.328	19769
903.446	19689
903.565	19571
903.683	19578
903.801	19472
903.919	19495
904.038	19441
904.156	19354
904.274	19426
904.392	19346
904.51	19362
904.627	19213
904.745	19304
904.863	19441
904.981	19122
905.098	18924
905.216	19000
905.334	18954
905.451	18954
905.569	18913
905.686	18932
905.803	18989
905.921	18696
906.038	18798
906.155	18791
906.272	18810
906.389	18719
906.506	18483
906.623	18521
906.74	18452
906.857	18418
906.974	18498
907.091	18467
907.208	18757
907.324	18517
907.441	18388
907.557	18243
907.674	18300
907.79	18152
907.907	18102
908.023	18224
908.139	18117
908.256	18209
908.372	18140
908.488	18049
908.604	18060
908.72	17798
908.836	18007
908.952	17946
909.068	18030
909.184	17958
909.3	17999
909.415	18064
909.531	17870
909.647	17756
909.762	17703
909.878	17604
909.993	17687
910.108	17592
910.224	17611
910.339	17619
910.454	17467
910.57	17497
910.685	17284
910.8	17661
910.915	17589
911.03	17497
911.145	17296
911.259	17288
911.374	17197
911.489	17071
911.604	16984
911.718	17029
911.833	16938
911.947	16873
912.062	16721
912.176	17029
912.291	16980
912.405	16889
912.519	17136
912.633	17083
912.748	17018
912.862	16984
912.976	16778
913.09	16561
913.204	16710
913.318	16763
913.431	16866
913.545	16854
913.659	16847
913.772	16771
913.886	16622
914	16565
914.113	16580
914.226	16630
914.34	16622
914.453	16478
914.566	16584
914.68	16497
914.793	16367
914.906	16200
915.019	16166
915.132	16139
915.245	16188
915.358	16200
915.47	16196
915.583	16188
915.696	16169
915.809	16272
915.921	16226
916.034	16109
916.146	16044
916.259	15979
916.371	16051
916.483	16048
916.595	15918
916.708	15926
916.82	15937
916.932	15892
917.044	15876
917.156	15774
917.268	15694
917.38	15720
917.491	15755
917.603	15728
917.715	15827
917.826	15835
917.938	15629
918.049	15580
918.161	15724
918.272	15884
918.384	15774
918.495	15656
918.606	15572
918.717	15523
918.828	15519
918.939	15504
919.05	15428
919.161	15473
919.272	15268
919.383	15294
919.494	15557
919.604	15644
919.715	15454
919.826	15420
919.936	15294
920.047	15542
920.157	15408
920.267	15545
920.378	15370
920.488	15370
920.598	15694
920.708	15739
920.818	15549
920.928	15496
921.038	15701
921.148	15580
921.258	15325
921.368	15367
921.477	15062
921.587	15116
921.697	15070
921.806	15039
921.916	14899
922.025	14849
922.134	14826
922.244	14743
922.353	14716
922.462	14629
922.571	14511
922.68	14427
922.789	14347
922.898	14480
923.007	14442
923.116	14461
923.224	14309
923.333	14355
923.442	14381
923.55	14176
923.659	14244
923.767	14305
923.876	14081
923.984	14176
924.092	14161
924.201	14142
924.309	14103
924.417	14084
924.525	14065
924.633	14001
924.741	14929
924.849	13868
924.956	13898
925.064	13875
925.172	13693
925.279	13841
925.387	13818
925.494	13788
925.602	13822
925.709	13807
925.816	13666
925.924	13662
926.031	13856
926.138	13750
926.245	13765
926.352	13567
926.459	13681
926.566	13784
926.673	13685
926.779	13548
926.886	13502
926.993	13411
927.099	13289
927.206	13301
927.312	13244
927.419	13335
927.525	13270
927.631	13354
927.737	13206
927.843	13099
927.95	13027
928.056	13179
928.162	13164
928.267	13137
928.373	13727
928.479	13156
928.585	12894
928.69	13088
928.796	13103
928.901	12924
929.007	12814
929.112	12954
929.218	13015
929.323	12802
929.428	12875
929.533	12932
929.638	12741
929.743	12878
929.848	12753
929.953	12806
930.058	12616
930.163	12464
930.267	12460
930.372	12722
930.477	12471
930.581	12654
930.685	12551
930.79	12300
930.894	12334
930.998	12346
931.103	12486
931.207	12125
931.311	12045
931.415	11996
931.519	11745
931.623	11760
