Data from test_V78500241_2049.txt Node
Date: Fri Mar 25 15:55:59 CST 2022
User: usil
Spectrometer: V785-0024
Trigger mode: 0
Integration Time (sec): 4.000000E-1
Scans to average: 1
Nonlinearity correction enabled: false
Boxcar width: 0
Storing dark spectrum: false
XAxis mode: Wavelengths
Number of Pixels in Spectrum: 1024
>>>>>Begin Spectral Data<<<<<
801.071	28908
801.214	28710
801.356	28618
801.499	28531
801.641	28451
801.783	28401
801.926	28447
802.068	28565
802.211	28447
802.353	28306
802.496	28188
802.638	28337
802.78	28196
802.923	28268
803.065	28196
803.208	28112
803.35	28276
803.492	28531
803.635	28485
803.777	28360
803.919	28584
804.061	28675
804.204	28565
804.346	28489
804.488	28314
804.63	28322
804.773	28329
804.915	28573
805.057	28580
805.199	28504
805.341	28519
805.483	28588
805.626	28672
805.768	28516
805.91	28573
806.052	28702
806.194	28672
806.336	28748
806.478	28717
806.62	28592
806.762	28797
806.904	28862
807.046	29208
807.188	29052
807.33	28999
807.472	29094
807.614	29094
807.756	29223
807.898	28942
808.04	28915
808.182	28873
808.324	28923
808.465	28984
808.607	29170
808.749	29258
808.891	29375
809.033	29440
809.174	29505
809.316	29242
809.458	29292
809.6	29277
809.741	29509
809.883	29634
810.025	29695
810.166	29623
810.308	29748
810.45	29630
810.591	29573
810.733	29398
810.875	29375
811.016	29227
811.158	29356
811.299	29509
811.441	29611
811.582	29509
811.724	29318
811.865	29311
812.007	29360
812.148	29375
812.29	29406
812.431	29573
812.573	29668
812.714	29817
812.855	29969
812.997	30018
813.138	30125
813.279	30022
813.421	29874
813.562	29821
813.703	29756
813.845	29634
813.986	29360
814.127	29162
814.268	29235
814.41	29132
814.551	29083
814.692	29151
814.833	29121
814.974	28987
815.115	29189
815.256	29006
815.397	28908
815.539	28938
815.68	28850
815.821	28790
815.962	28915
816.103	28809
816.244	28816
816.385	28599
816.526	28774
816.666	28493
816.807	28322
816.948	28550
817.089	28535
817.23	28280
817.371	28291
817.512	28455
817.653	28466
817.793	28386
817.934	28363
818.075	28390
818.216	28329
818.356	28405
818.497	28306
818.638	28192
818.778	28040
818.919	28261
819.06	28192
819.2	28261
819.341	28401
819.481	28466
819.622	28538
819.762	28755
819.903	28588
820.043	28622
820.184	28508
820.324	28630
820.465	28500
820.605	28550
820.746	28504
820.886	28238
821.026	28337
821.167	28363
821.307	28519
821.447	28519
821.588	28421
821.728	28169
821.868	27930
822.008	27835
822.149	27941
822.289	27785
822.429	27705
822.569	27564
822.709	27720
822.849	27412
822.99	27458
823.13	27310
823.27	27264
823.41	27275
823.55	27154
823.69	27302
823.83	27241
823.97	27154
824.11	27161
824.25	27047
824.389	27085
824.529	27245
824.669	27036
824.809	27226
824.949	27093
825.089	27135
825.228	27119
825.368	26948
825.508	26944
825.648	26910
825.787	27036
825.927	26929
826.067	26914
826.206	26895
826.346	27070
826.485	26899
826.625	26982
826.765	26967
826.904	26910
827.044	26758
827.183	26663
827.323	26602
827.462	26678
827.601	26701
827.741	26583
827.88	26655
828.02	26427
828.159	26575
828.298	26682
828.437	26667
828.577	26583
828.716	26583
828.855	26473
828.994	26347
829.134	26309
829.273	26381
829.412	26282
829.551	26271
829.69	26362
829.829	26393
829.968	26278
830.107	26419
830.246	26358
830.385	26298
830.524	26271
830.663	26043
830.802	26035
830.941	25913
831.08	25978
831.219	25959
831.357	26027
831.496	26100
831.635	26027
831.774	25845
831.913	25795
832.051	25704
832.19	25734
832.329	25845
832.467	25582
832.606	25567
832.744	25563
832.883	25685
833.022	25624
833.16	25609
833.299	25628
833.437	25738
833.576	25712
833.714	25632
833.852	25712
833.991	25677
834.129	25651
834.267	25772
834.406	25776
834.544	25765
834.682	25666
834.821	25696
834.959	25807
835.097	25616
835.235	25616
835.373	25704
835.511	25651
835.65	25419
835.788	25453
835.926	25407
836.064	25228
836.202	25346
836.34	25388
836.478	25567
836.615	25354
836.753	25559
836.891	25449
837.029	25468
837.167	25422
837.305	25266
837.443	25228
837.58	25415
837.718	25316
837.856	25346
837.993	25304
838.131	25247
838.269	25076
838.406	25251
838.544	25023
838.681	24871
838.819	24817
838.956	24700
839.094	24753
839.231	24772
839.369	24951
839.506	25183
839.643	25076
839.781	24772
839.918	24681
840.055	24741
840.193	24726
840.33	24677
840.467	24677
840.604	24608
840.742	24973
840.879	24555
841.016	24460
841.153	24494
841.29	24741
841.427	24684
841.564	24707
841.701	24582
841.838	24471
841.975	24536
842.112	24464
842.249	24540
842.385	24448
842.522	24441
842.659	24445
842.796	24388
842.933	24422
843.069	24350
843.206	24418
843.343	24517
843.479	24380
843.616	24361
843.752	24205
843.889	24266
844.025	24369
844.162	24235
844.298	24262
844.435	24205
844.571	24110
844.708	24296
844.844	24410
844.98	24410
845.117	24391
845.253	24254
845.389	24068
845.525	23977
845.661	24098
845.798	23859
845.934	23965
846.07	23901
846.206	23977
846.342	24129
846.478	23893
846.614	23843
846.75	23566
846.886	23699
847.022	23668
847.158	23665
847.294	23638
847.429	23589
847.565	23646
847.701	23920
847.837	23505
847.972	23273
848.108	23444
848.244	23497
848.379	23174
848.515	23231
848.65	23265
848.786	23258
848.921	23189
849.057	23364
849.192	23261
849.328	23170
849.463	23254
849.598	23132
849.734	23121
849.869	23003
850.004	22919
850.14	22953
850.275	22991
850.41	22881
850.545	22957
850.68	23022
850.815	23037
850.95	22835
851.085	23208
851.22	23067
851.355	22965
851.49	22892
851.625	22866
851.76	22968
851.895	23006
852.03	22927
852.165	22892
852.299	22930
852.434	23079
852.569	23044
852.703	22957
852.838	22968
852.973	23212
853.107	23124
853.242	22930
853.376	22729
853.511	22713
853.645	22778
853.78	22816
853.914	22786
854.048	22850
854.183	22710
854.317	22854
854.451	23014
854.585	22744
854.72	22824
854.854	22904
854.988	22740
855.122	22847
855.256	22706
855.39	22668
855.524	22972
855.658	22831
855.792	22835
855.926	22847
856.06	22694
856.194	22797
856.327	22759
856.461	22797
856.595	22797
856.729	22809
856.862	22961
856.996	22896
857.13	22835
857.263	22866
857.397	22987
857.53	22759
857.664	22729
857.797	22820
857.931	22877
858.064	22774
858.197	22923
858.331	22828
858.464	22767
858.597	22664
858.731	22805
858.864	22721
858.997	22679
859.13	22828
859.263	22721
859.396	22987
859.529	22759
859.662	22554
859.795	22710
859.928	22729
860.061	22881
860.194	23022
860.327	22862
860.46	22790
860.592	22930
860.725	23022
860.858	22908
860.99	22831
861.123	22721
861.256	22717
861.388	22797
861.521	23372
861.653	22649
861.786	22531
861.918	22675
862.05	22656
862.183	22691
862.315	22706
862.447	22721
862.58	22660
862.712	22500
862.844	22569
862.976	22459
863.108	22508
863.24	23052
863.372	22474
863.504	22497
863.636	22527
863.768	22569
863.9	22432
864.032	22443
864.164	22474
864.296	22447
864.428	22573
864.559	22519
864.691	22588
864.823	22497
864.954	22402
865.086	22379
865.217	22443
865.349	22242
865.48	22371
865.612	22352
865.743	22489
865.875	22299
866.006	22360
866.137	22405
866.269	22421
866.4	22402
866.531	22257
866.662	22158
866.793	22402
866.924	22284
867.055	22299
867.186	22337
867.317	22390
867.448	22169
867.579	22329
867.71	22112
867.841	22173
867.972	22314
868.103	22303
868.233	22284
868.364	22333
868.495	22390
868.625	22531
868.756	22694
868.886	22527
869.017	22493
869.147	22664
869.278	22687
869.408	22557
869.539	22538
869.669	22516
869.799	22497
869.929	22592
870.06	22713
870.19	22854
870.32	22752
870.45	22850
870.58	22987
870.71	23086
870.84	22995
870.97	22866
871.1	22919
871.23	23064
871.36	23060
871.489	23067
871.619	23178
871.749	23098
871.879	23178
872.008	23254
872.138	23178
872.267	23067
872.397	23014
872.526	22987
872.656	22949
872.785	22968
872.915	23109
873.044	23178
873.173	23197
873.303	23132
873.432	23121
873.561	23200
873.69	23151
873.819	23162
873.948	23178
874.077	23223
874.206	23102
874.335	23204
874.464	23299
874.593	23387
874.722	23337
874.851	23406
874.979	23315
875.108	23436
875.237	23353
875.365	23455
875.494	23414
875.623	23448
875.751	23391
875.88	23383
876.008	23535
876.136	23505
876.265	23775
876.393	23878
876.521	23824
876.65	23748
876.778	23733
876.906	23737
877.034	23695
877.162	23821
877.29	23779
877.418	23726
877.546	23729
877.674	23699
877.802	23737
877.93	23722
878.058	23615
878.185	23497
878.313	23680
878.441	23687
878.568	23535
878.696	23592
878.824	23592
878.951	23786
879.079	23866
879.206	24068
879.333	23836
879.461	23775
879.588	23710
879.715	23889
879.842	24030
879.97	23790
880.097	23516
880.224	23452
880.351	23653
880.478	23440
880.605	23490
880.732	23429
880.859	23745
880.986	23543
881.112	23554
881.239	23376
881.366	23083
881.493	23197
881.619	23079
881.746	23155
881.872	23075
881.999	23105
882.125	22923
882.252	23018
882.378	23094
882.505	23212
882.631	22877
882.757	22786
882.883	22786
883.01	22771
883.136	22664
883.262	22481
883.388	22519
883.514	22721
883.64	22721
883.766	22637
883.892	22565
884.018	22523
884.143	22577
884.269	22782
884.395	22512
884.52	22474
884.646	22478
884.772	22375
884.897	22276
885.023	22413
885.148	22447
885.274	22504
885.399	22382
885.524	22337
885.65	22424
885.775	22371
885.9	22219
886.025	22428
886.15	22474
886.275	22276
886.4	22234
886.525	22379
886.65	22261
886.775	22284
886.9	22428
887.025	22603
887.149	22417
887.274	22139
887.399	22021
887.523	22181
887.648	22055
887.773	22101
887.897	22135
888.021	22169
888.146	22097
888.27	22261
888.395	22135
888.519	22101
888.643	22097
888.767	22116
888.891	22109
889.015	21876
889.139	21975
889.263	21831
889.387	21972
889.511	22097
889.635	22021
889.759	21854
889.883	21941
890.006	21903
890.13	22120
890.254	21838
890.377	21823
890.501	21736
890.624	21682
890.748	21770
890.871	21561
890.995	21348
891.118	21458
891.241	21606
891.364	21496
891.488	21637
891.611	21416
891.734	21485
891.857	21447
891.98	21473
892.103	21511
892.226	21310
892.349	21549
892.471	21188
892.594	21264
892.717	21428
892.839	21344
892.962	21321
893.085	21477
893.207	21306
893.33	21188
893.452	21218
893.575	21488
893.697	21298
893.819	21458
893.941	21568
894.064	21359
894.186	21317
894.308	21279
894.43	21317
894.552	21496
894.674	21283
894.796	21169
894.918	21256
895.04	21294
895.161	21313
895.283	21252
895.405	21207
895.526	21306
895.648	21279
895.769	21256
895.891	21405
896.012	21435
896.134	21211
896.255	21275
896.376	21302
896.498	21374
896.619	21310
896.74	21370
896.861	21382
896.982	21637
897.103	21701
897.224	21553
897.345	21466
897.466	21500
897.587	21603
897.708	21488
897.828	21625
897.949	21523
898.07	21260
898.19	21507
898.311	21580
898.431	21397
898.552	21450
898.672	21572
898.792	21644
898.913	21530
899.033	21469
899.153	21264
899.273	21264
899.393	21332
899.513	21382
899.633	21279
899.753	21283
899.873	21161
899.993	21188
900.113	21138
900.232	21245
900.352	21085
900.472	21062
900.591	21020
900.711	20963
900.83	20929
900.95	21100
901.069	20982
901.189	20960
901.308	20655
901.427	20492
901.546	20613
901.665	20533
901.784	20560
901.904	20484
902.023	20271
902.141	20092
902.26	20058
902.379	20157
902.498	20020
902.617	19944
902.735	20069
902.854	20054
902.973	19944
903.091	19776
903.21	19788
903.328	19731
903.446	19666
903.565	19582
903.683	19449
903.801	19453
903.919	19487
904.038	19388
904.156	19320
904.274	19434
904.392	19171
904.51	19320
904.627	19236
904.745	19354
904.863	19308
904.981	19072
905.098	18970
905.216	19023
905.334	19027
905.451	18977
905.569	18859
905.686	18951
905.803	18966
905.921	18665
906.038	18817
906.155	18646
906.272	18623
906.389	18684
906.506	18494
906.623	18441
906.74	18399
906.857	18380
906.974	18407
907.091	18563
907.208	18623
907.324	18513
907.441	18483
907.557	18235
907.674	18213
907.79	18163
907.907	18045
908.023	18106
908.139	18140
908.256	18098
908.372	18053
908.488	17992
908.604	17916
908.72	17828
908.836	17954
908.952	17893
909.068	17920
909.184	18038
909.3	17954
909.415	17863
909.531	17771
909.647	17714
909.762	17638
909.878	17570
909.993	17581
910.108	17551
910.224	17551
910.339	17528
910.454	17410
910.57	17414
910.685	17250
910.8	17570
910.915	17566
911.03	17349
911.145	17265
911.259	17193
911.374	17170
911.489	17075
911.604	16991
911.718	16938
911.833	16934
911.947	16763
912.062	16649
912.176	16908
912.291	16930
912.405	16885
912.519	17124
912.633	17086
912.748	16984
912.862	16778
912.976	16691
913.09	16538
913.204	16702
913.318	16790
913.431	16843
913.545	16786
913.659	16831
913.772	16622
913.886	16394
914	16466
914.113	16596
914.226	16584
914.34	16535
914.453	16371
914.566	16538
914.68	16337
914.793	16421
914.906	16196
915.019	16120
915.132	16010
915.245	15983
915.358	16078
915.47	16071
915.583	16105
915.696	16017
915.809	16143
915.921	16226
916.034	16040
916.146	15968
916.259	15953
916.371	16010
916.483	15915
916.595	15934
916.708	15903
916.82	15819
916.932	15956
917.044	15831
917.156	15778
917.268	15736
917.38	15682
917.491	15686
917.603	15759
917.715	15709
917.826	15713
917.938	15667
918.049	15469
918.161	15603
918.272	15675
918.384	15713
918.495	15606
918.606	15488
918.717	15348
918.828	15332
918.939	15367
919.05	15340
919.161	15378
919.272	15127
919.383	15203
919.494	15477
919.604	15610
919.715	15386
919.826	15260
919.936	15389
920.047	15393
920.157	15420
920.267	15564
920.378	15348
920.488	15367
920.598	15420
920.708	15652
920.818	15447
920.928	15462
921.038	15732
921.148	15557
921.258	15275
921.368	15169
921.477	15112
921.587	14979
921.697	14918
921.806	15020
921.916	14925
922.025	14769
922.134	14674
922.244	14667
922.353	14689
922.462	14552
922.571	14594
922.68	14412
922.789	14317
922.898	14408
923.007	14271
923.116	14438
923.224	14374
923.333	14294
923.442	14172
923.55	14050
923.659	14153
923.767	14134
923.876	14050
923.984	14161
924.092	14126
924.201	14035
924.309	14107
924.417	14069
924.525	13928
924.633	13989
924.741	14975
924.849	13757
924.956	13887
925.064	13795
925.172	13658
925.279	13803
925.387	13753
925.494	13700
925.602	13791
925.709	13772
925.816	13559
925.924	13628
926.031	13784
926.138	13734
926.245	13685
926.352	13521
926.459	13636
926.566	13750
926.673	13575
926.779	13491
926.886	13521
926.993	13244
927.099	13259
927.206	13232
927.312	13236
927.419	13209
927.525	13266
927.631	13297
927.737	13168
927.843	13042
927.95	12920
928.056	13099
928.162	13088
928.267	13084
928.373	13681
928.479	13023
928.585	12920
928.69	12985
928.796	13004
928.901	12924
929.007	12802
929.112	12951
929.218	12840
929.323	12894
929.428	12726
929.533	12871
929.638	12681
929.743	12662
929.848	12646
929.953	12639
930.058	12601
930.163	12456
930.267	12384
930.372	12593
930.477	12410
930.581	12593
930.685	12460
930.79	12277
930.894	12433
930.998	12235
931.103	12357
931.207	12079
931.311	12015
931.415	11897
931.519	11741
931.623	11794
