Data from test_V78500241_3678.txt Node
Date: Fri Mar 25 16:07:16 CST 2022
User: usil
Spectrometer: V785-0024
Trigger mode: 0
Integration Time (sec): 4.000000E-1
Scans to average: 1
Nonlinearity correction enabled: false
Boxcar width: 0
Storing dark spectrum: false
XAxis mode: Wavelengths
Number of Pixels in Spectrum: 1024
>>>>>Begin Spectral Data<<<<<
801.071	28177
801.214	28192
801.356	27873
801.499	27785
801.641	27736
801.783	27797
801.926	27819
802.068	27865
802.211	27800
802.353	27583
802.496	27591
802.638	27595
802.78	27454
802.923	27431
803.065	27329
803.208	27317
803.35	27599
803.492	27610
803.635	27515
803.777	27549
803.919	27759
804.061	28055
804.204	27816
804.346	27568
804.488	27568
804.63	27606
804.773	27629
804.915	27606
805.057	27774
805.199	27644
805.341	27842
805.483	27800
805.626	27724
805.768	27762
805.91	27857
806.052	27736
806.194	27675
806.336	28029
806.478	27949
806.62	27816
806.762	27930
806.904	28078
807.046	28360
807.188	28234
807.33	28291
807.472	28401
807.614	28466
807.756	28344
807.898	28185
808.04	28036
808.182	28158
808.324	28082
808.465	28124
808.607	28470
808.749	28607
808.891	28618
809.033	28622
809.174	28729
809.316	28432
809.458	28390
809.6	28440
809.741	28504
809.883	28599
810.025	28767
810.166	28744
810.308	28713
810.45	28588
810.591	28672
810.733	28618
810.875	28382
811.016	28538
811.158	28466
811.299	28447
811.441	28752
811.582	28797
811.724	28436
811.865	28531
812.007	28417
812.148	28405
812.29	28622
812.431	28611
812.573	28691
812.714	28961
812.855	29079
812.997	28984
813.138	29208
813.279	29098
813.421	28938
813.562	28942
813.703	28740
813.845	28668
813.986	28413
814.127	28265
814.268	28204
814.41	28265
814.551	28154
814.692	28230
814.833	28249
814.974	28128
815.115	28181
815.256	28116
815.397	28105
815.539	28120
815.68	27956
815.821	28017
815.962	27983
816.103	28021
816.244	27956
816.385	27846
816.526	27739
816.666	27625
816.807	27367
816.948	27538
817.089	27591
817.23	27443
817.371	27462
817.512	27477
817.653	27469
817.793	27469
817.934	27511
818.075	27435
818.216	27454
818.356	27466
818.497	27237
818.638	27332
818.778	27294
818.919	27184
819.06	27275
819.2	27351
819.341	27454
819.481	27416
819.622	27644
819.762	27945
819.903	27812
820.043	27629
820.184	27625
820.324	27663
820.465	27732
820.605	27633
820.746	27599
820.886	27412
821.026	27523
821.167	27519
821.307	27603
821.447	27526
821.588	27447
821.728	27302
821.868	27104
822.008	26853
822.149	27009
822.289	26940
822.429	26674
822.569	26686
822.709	26609
822.849	26453
822.99	26389
823.13	26480
823.27	26355
823.41	26164
823.55	26126
823.69	26374
823.83	26317
823.97	26263
824.11	26088
824.25	25944
824.389	26157
824.529	26225
824.669	26054
824.809	26237
824.949	26214
825.089	26202
825.228	25944
825.368	25913
825.508	26008
825.648	25883
825.787	26020
825.927	26092
826.067	25890
826.206	26035
826.346	26012
826.485	25864
826.625	25978
826.765	25986
826.904	26111
827.044	25803
827.183	25833
827.323	25666
827.462	25826
827.601	25662
827.741	25708
827.88	25742
828.02	25586
828.159	25628
828.298	25616
828.437	25731
828.577	25704
828.716	25807
828.855	25472
828.994	25510
829.134	25445
829.273	25411
829.412	25373
829.551	25407
829.69	25263
829.829	25396
829.968	25483
830.107	25441
830.246	25274
830.385	25335
830.524	25247
830.663	25266
830.802	25221
830.941	24916
831.08	24932
831.219	24943
831.357	24947
831.496	25213
831.635	24935
831.774	24871
831.913	24890
832.051	24722
832.19	24810
832.329	24802
832.467	24707
832.606	24525
832.744	24726
832.883	24722
833.022	24711
833.16	24703
833.299	24677
833.437	24635
833.576	24700
833.714	24722
833.852	24810
833.991	24722
834.129	24840
834.267	24791
834.406	24700
834.544	24738
834.682	24776
834.821	24798
834.959	24768
835.097	24730
835.235	24958
835.373	24665
835.511	24741
835.65	24498
835.788	24513
835.926	24502
836.064	24414
836.202	24361
836.34	24601
836.478	24658
836.615	24627
836.753	24601
836.891	24574
837.029	24570
837.167	24559
837.305	24399
837.443	24475
837.58	24399
837.718	24410
837.856	24357
837.993	24300
838.131	24319
838.269	24197
838.406	24296
838.544	24243
838.681	24163
838.819	23946
838.956	23942
839.094	23760
839.231	23901
839.369	23965
839.506	24174
839.643	23954
839.781	23863
839.918	23748
840.055	23729
840.193	23813
840.33	23832
840.467	23745
840.604	23798
840.742	24011
840.879	23554
841.016	23707
841.153	23741
841.29	23817
841.427	23653
841.564	23840
841.701	23828
841.838	23748
841.975	23539
842.112	23741
842.249	23577
842.385	23493
842.522	23748
842.659	23703
842.796	23570
842.933	23467
843.069	23528
843.206	23433
843.343	23665
843.479	23440
843.616	23539
843.752	23292
843.889	23356
844.025	23471
844.162	23242
844.298	23501
844.435	23398
844.571	23318
844.708	23402
844.844	23372
844.98	23490
845.117	23315
845.253	23239
845.389	23246
845.525	23292
845.661	23155
845.798	22972
845.934	23094
846.07	22976
846.206	23060
846.342	23102
846.478	22927
846.614	22850
846.75	22653
846.886	22698
847.022	22877
847.158	22767
847.294	22717
847.429	22869
847.565	22805
847.701	22953
847.837	22531
847.972	22538
848.108	22592
848.244	22557
848.379	22318
848.515	22390
848.65	22344
848.786	22390
848.921	22428
849.057	22485
849.192	22409
849.328	22443
849.463	22341
849.598	22344
849.734	22246
849.869	22265
850.004	22116
850.14	22135
850.275	22128
850.41	22025
850.545	22070
850.68	22059
850.815	22139
850.95	22086
851.085	22295
851.22	22192
851.355	22067
851.49	22185
851.625	22135
851.76	22101
851.895	22067
852.03	22006
852.165	21941
852.299	22101
852.434	22280
852.569	22196
852.703	22105
852.838	22200
852.973	22147
853.107	22287
853.242	21922
853.376	21880
853.511	21766
853.645	21941
853.78	22074
853.914	21960
854.048	21983
854.183	21945
854.317	21945
854.451	22101
854.585	22025
854.72	21907
854.854	22032
854.988	21819
855.122	21972
855.256	21812
855.39	21789
855.524	22051
855.658	21804
855.792	21884
855.926	21964
856.06	21956
856.194	22013
856.327	21915
856.461	21884
856.595	21930
856.729	21998
856.862	22078
856.996	22051
857.13	22036
857.263	22044
857.397	21987
857.53	21869
857.664	22086
857.797	22013
857.931	22090
858.064	22002
858.197	22029
858.331	21842
858.464	21785
858.597	21903
858.731	21861
858.864	21865
858.997	21994
859.13	21949
859.263	21934
859.396	22040
859.529	21884
859.662	21945
859.795	21930
859.928	21903
860.061	22101
860.194	22086
860.327	21907
860.46	21979
860.592	22097
860.725	22051
860.858	22048
860.99	21915
861.123	21857
861.256	22013
861.388	22006
861.521	22634
861.653	21800
861.786	21648
861.918	21804
862.05	21823
862.183	21994
862.315	21873
862.447	21888
862.58	21736
862.712	21732
862.844	21652
862.976	21804
863.108	21713
863.24	22124
863.372	21633
863.504	21629
863.636	21675
863.768	21675
863.9	21580
864.032	21625
864.164	21675
864.296	21747
864.428	21736
864.559	21785
864.691	21732
864.823	21595
864.954	21568
865.086	21549
865.217	21690
865.349	21485
865.48	21450
865.612	21591
865.743	21652
865.875	21599
866.006	21469
866.137	21519
866.269	21439
866.4	21488
866.531	21340
866.662	21492
866.793	21538
866.924	21526
867.055	21420
867.186	21591
867.317	21447
867.448	21393
867.579	21428
867.71	21443
867.841	21291
867.972	21557
868.103	21526
868.233	21367
868.364	21447
868.495	21462
868.625	21701
868.756	21835
868.886	21610
869.017	21530
869.147	21869
869.278	21857
869.408	21709
869.539	21660
869.669	21861
869.799	21739
869.929	21823
870.06	21854
870.19	22010
870.32	21873
870.45	22093
870.58	22105
870.71	22204
870.84	22249
870.97	22196
871.1	22105
871.23	22303
871.36	22341
871.489	22128
871.619	22314
871.749	22226
871.879	22226
872.008	22455
872.138	22356
872.267	22344
872.397	22299
872.526	22200
872.656	22200
872.785	22143
872.915	22322
873.044	22470
873.173	22360
873.303	22360
873.432	22291
873.561	22512
873.69	22310
873.819	22379
873.948	22394
874.077	22287
874.206	22363
874.335	22386
874.464	22360
874.593	22443
874.722	22569
874.851	22664
874.979	22618
875.108	22508
875.237	22622
875.365	22474
875.494	22535
875.623	22546
875.751	22577
875.88	22417
876.008	22763
876.136	22634
876.265	22942
876.393	23075
876.521	22900
876.65	22991
876.778	23003
876.906	22911
877.034	22755
877.162	22972
877.29	22923
877.418	22995
877.546	22835
877.674	22927
877.802	22972
877.93	22850
878.058	22896
878.185	22847
878.313	22972
878.441	22892
878.568	22763
878.696	22862
878.824	22721
878.951	22961
879.079	23117
879.206	23296
879.333	23025
879.461	22896
879.588	22927
879.715	23003
879.842	23132
879.97	22976
880.097	22797
880.224	22679
880.351	22923
880.478	22687
880.605	22755
880.732	22847
880.859	22999
880.986	22675
881.112	22763
881.239	22580
881.366	22436
881.493	22413
881.619	22356
881.746	22276
881.872	22306
881.999	22128
882.125	22109
882.252	22329
882.378	22268
882.505	22299
882.631	22135
882.757	22025
882.883	22055
883.01	21941
883.136	21850
883.262	21819
883.388	21713
883.514	22070
883.64	22040
883.766	21800
883.892	21751
884.018	21701
884.143	21915
884.269	22055
884.395	21694
884.52	21580
884.646	21561
884.772	21534
884.897	21511
885.023	21606
885.148	21614
885.274	21797
885.399	21812
885.524	21739
885.65	21705
885.775	21542
885.9	21641
886.025	21751
886.15	21736
886.275	21500
886.4	21485
886.525	21644
886.65	21511
886.775	21519
886.9	21705
887.025	21789
887.149	21583
887.274	21340
887.399	21416
887.523	21382
887.648	21416
887.773	21313
887.897	21481
888.021	21420
888.146	21348
888.27	21481
888.395	21572
888.519	21435
888.643	21416
888.767	21504
888.891	21325
889.015	21245
889.139	21211
889.263	21131
889.387	21264
889.511	21374
889.635	21386
889.759	21108
889.883	21195
890.006	21241
890.13	21386
890.254	21085
890.377	21024
890.501	20937
890.624	21005
890.748	20979
890.871	20800
890.995	20655
891.118	20727
891.241	20838
891.364	20823
891.488	20845
891.611	20701
891.734	20689
891.857	20754
891.98	20876
892.103	20750
892.226	20762
892.349	20731
892.471	20518
892.594	20682
892.717	20632
892.839	20590
892.962	20625
893.085	20651
893.207	20640
893.33	20514
893.452	20644
893.575	20655
893.697	20518
893.819	20788
893.941	20895
894.064	20811
894.186	20609
894.308	20587
894.43	20746
894.552	20705
894.674	20655
894.796	20590
894.918	20583
895.04	20461
895.161	20670
895.283	20659
895.405	20598
895.526	20602
895.648	20621
895.769	20693
895.891	20625
896.012	20667
896.134	20689
896.255	20689
896.376	20484
896.498	20644
896.619	20636
896.74	20632
896.861	20712
896.982	20857
897.103	21058
897.224	20998
897.345	20857
897.466	20823
897.587	20872
897.708	21001
897.828	20826
897.949	20788
898.07	20636
898.19	20689
898.311	20914
898.431	20815
898.552	20807
898.672	20941
898.792	20941
898.913	20754
899.033	20731
899.153	20716
899.273	20552
899.393	20549
899.513	20686
899.633	20629
899.753	20606
899.873	20484
899.993	20621
900.113	20427
900.232	20518
900.352	20484
900.472	20389
900.591	20282
900.711	20473
900.83	20343
900.95	20495
901.069	20457
901.189	20225
901.308	19951
901.427	19917
901.546	19890
901.665	19871
901.784	20107
901.904	19776
902.023	19613
902.141	19460
902.26	19487
902.379	19590
902.498	19381
902.617	19457
902.735	19476
902.854	19457
902.973	19464
903.091	19160
903.21	19084
903.328	19053
903.446	18970
903.565	18852
903.683	18985
903.801	18798
903.919	18935
904.038	18791
904.156	18684
904.274	18806
904.392	18673
904.51	18601
904.627	18639
904.745	18700
904.863	18730
904.981	18410
905.098	18243
905.216	18266
905.334	18414
905.451	18315
905.569	18213
905.686	18315
905.803	18308
905.921	18019
906.038	18228
906.155	18148
906.272	18114
906.389	18102
906.506	17923
906.623	17786
906.74	17889
906.857	17634
906.974	17707
907.091	17851
907.208	17923
907.324	17828
907.441	17771
907.557	17589
907.674	17528
907.79	17573
907.907	17547
908.023	17604
908.139	17566
908.256	17436
908.372	17547
908.488	17299
908.604	17235
908.72	17212
908.836	17178
908.952	17261
909.068	17398
909.184	17433
909.3	17197
909.415	17280
909.531	17250
909.647	17025
909.762	17006
909.878	16976
909.993	17105
910.108	16889
910.224	16839
910.339	16923
910.454	16892
910.57	16744
910.685	16691
910.8	16965
910.915	16911
911.03	16797
911.145	16679
911.259	16584
911.374	16599
911.489	16390
911.604	16462
911.718	16405
911.833	16344
911.947	16196
912.062	16238
912.176	16303
912.291	16318
912.405	16238
912.519	16440
912.633	16516
912.748	16329
912.862	16318
912.976	16147
913.09	16097
913.204	16048
913.318	16185
913.431	16226
913.545	16226
913.659	16272
913.772	16048
913.886	15991
914	15911
914.113	15960
914.226	16078
914.34	15979
914.453	15747
914.566	15911
914.68	15804
914.793	15778
914.906	15644
915.019	15492
915.132	15382
915.245	15549
915.358	15545
915.47	15523
915.583	15545
915.696	15523
915.809	15561
915.921	15663
916.034	15302
916.146	15370
916.259	15317
916.371	15416
916.483	15348
916.595	15359
916.708	15268
916.82	15279
916.932	15268
917.044	15207
917.156	15336
917.268	15199
917.38	15199
917.491	15112
917.603	15165
917.715	15180
917.826	15233
917.938	15051
918.049	14948
918.161	15066
918.272	15203
918.384	15142
918.495	15062
918.606	14963
918.717	14796
918.828	14956
918.939	14937
919.05	14842
919.161	14933
919.272	14678
919.383	14705
919.494	14921
919.604	15150
919.715	14941
919.826	14792
919.936	14781
920.047	14937
920.157	14948
920.267	14975
920.378	14933
920.488	14891
920.598	15028
920.708	15157
920.818	14975
920.928	15070
921.038	15077
921.148	15108
921.258	14754
921.368	14834
921.477	14651
921.587	14488
921.697	14454
921.806	14636
921.916	14374
922.025	14381
922.134	14343
922.244	14229
922.353	14336
922.462	14035
922.571	14100
922.68	13936
922.789	13894
922.898	13913
923.007	13753
923.116	13970
923.224	13841
923.333	13822
923.442	13712
923.55	13734
923.659	13723
923.767	13696
923.876	13670
923.984	13753
924.092	13582
924.201	13529
924.309	13548
924.417	13529
924.525	13537
924.633	13506
924.741	14427
924.849	13350
924.956	13396
925.064	13240
925.172	13164
925.279	13308
925.387	13247
925.494	13289
925.602	13411
925.709	13308
925.816	13274
925.924	13126
926.031	13251
926.138	13240
926.245	13206
926.352	13114
926.459	13194
926.566	13297
926.673	13118
926.779	13050
926.886	12993
926.993	12817
927.099	12837
927.206	12753
927.312	12749
927.419	12726
927.525	12817
927.631	12863
927.737	12597
927.843	12650
927.95	12498
928.056	12597
928.162	12700
928.267	12635
928.373	13266
928.479	12696
928.585	12403
928.69	12608
928.796	12635
928.901	12513
929.007	12342
929.112	12471
929.218	12494
929.323	12361
929.428	12277
929.533	12471
929.638	12346
929.743	12277
929.848	12399
929.953	12323
930.058	12228
930.163	12049
930.267	12064
930.372	12159
930.477	12030
930.581	12152
930.685	12079
930.79	11931
930.894	11950
930.998	11954
931.103	12057
931.207	11695
931.311	11611
931.415	11452
931.519	11334
931.623	11246
