Data from test_V78500241_2739.txt Node
Date: Fri Mar 25 16:00:46 CST 2022
User: usil
Spectrometer: V785-0024
Trigger mode: 0
Integration Time (sec): 4.000000E-1
Scans to average: 1
Nonlinearity correction enabled: false
Boxcar width: 0
Storing dark spectrum: false
XAxis mode: Wavelengths
Number of Pixels in Spectrum: 1024
>>>>>Begin Spectral Data<<<<<
801.071	28455
801.214	28348
801.356	28192
801.499	28131
801.641	28044
801.783	28036
801.926	27884
802.068	28029
802.211	28044
802.353	27808
802.496	27728
802.638	27606
802.78	27709
802.923	27641
803.065	27549
803.208	27633
803.35	27717
803.492	27800
803.635	27960
803.777	27907
803.919	27831
804.061	28166
804.204	28082
804.346	27922
804.488	27835
804.63	27994
804.773	27987
804.915	27873
805.057	28048
805.199	27960
805.341	28032
805.483	28029
805.626	28135
805.768	27888
805.91	28021
806.052	28048
806.194	28013
806.336	28173
806.478	28143
806.62	28029
806.762	28265
806.904	28299
807.046	28508
807.188	28557
807.33	28481
807.472	28493
807.614	28428
807.756	28382
807.898	28504
808.04	28253
808.182	28303
808.324	28478
808.465	28424
808.607	28653
808.749	28694
808.891	28896
809.033	28869
809.174	28767
809.316	28679
809.458	28664
809.6	28729
809.741	28778
809.883	28847
810.025	29052
810.166	28968
810.308	29075
810.45	29151
810.591	28965
810.733	28763
810.875	28656
811.016	28550
811.158	28603
811.299	28805
811.441	28987
811.582	28812
811.724	28771
811.865	28691
812.007	28717
812.148	28759
812.29	28888
812.431	28930
812.573	29109
812.714	28999
812.855	29220
812.997	29421
813.138	29375
813.279	29444
813.421	29337
813.562	29025
813.703	29117
813.845	28987
813.986	28637
814.127	28531
814.268	28470
814.41	28421
814.551	28394
814.692	28554
814.833	28299
814.974	28462
815.115	28485
815.256	28379
815.397	28219
815.539	28413
815.68	28272
815.821	28147
815.962	28261
816.103	28314
816.244	28265
816.385	28002
816.526	28112
816.666	27789
816.807	27728
816.948	27907
817.089	27797
817.23	27766
817.371	27812
817.512	27751
817.653	27816
817.793	27713
817.934	27690
818.075	27675
818.216	27846
818.356	27728
818.497	27595
818.638	27496
818.778	27507
818.919	27553
819.06	27534
819.2	27587
819.341	27747
819.481	27766
819.622	27918
819.762	27953
819.903	27979
820.043	27949
820.184	27941
820.324	27968
820.465	27949
820.605	27911
820.746	27911
820.886	27705
821.026	27857
821.167	27873
821.307	27987
821.447	27739
821.588	27648
821.728	27625
821.868	27192
822.008	27321
822.149	27256
822.289	27138
822.429	27051
822.569	26906
822.709	26929
822.849	26845
822.99	26758
823.13	26663
823.27	26727
823.41	26670
823.55	26461
823.69	26476
823.83	26568
823.97	26385
824.11	26305
824.25	26214
824.389	26355
824.529	26370
824.669	26301
824.809	26370
824.949	26389
825.089	26408
825.228	26438
825.368	26214
825.508	26267
825.648	26248
825.787	26275
825.927	26244
826.067	26138
826.206	26374
826.346	26377
826.485	26370
826.625	26225
826.765	26393
826.904	26332
827.044	25982
827.183	26100
827.323	25818
827.462	26058
827.601	25947
827.741	25814
827.88	25852
828.02	25799
828.159	25936
828.298	26065
828.437	26149
828.577	25845
828.716	25875
828.855	25928
828.994	25643
829.134	25761
829.273	25704
829.412	25575
829.551	25620
829.69	25544
829.829	25723
829.968	25830
830.107	25818
830.246	25571
830.385	25521
830.524	25620
830.663	25457
830.802	25263
830.941	25278
831.08	25221
831.219	25369
831.357	25350
831.496	25381
831.635	25304
831.774	25228
831.913	25168
832.051	25076
832.19	25034
832.329	24924
832.467	24932
832.606	24951
832.744	24886
832.883	24878
833.022	24924
833.16	24890
833.299	24920
833.437	24977
833.576	24966
833.714	24973
833.852	24989
833.991	24840
834.129	25042
834.267	25190
834.406	24977
834.544	25118
834.682	24973
834.821	24935
834.959	25107
835.097	24802
835.235	25034
835.373	24996
835.511	24909
835.65	24878
835.788	24779
835.926	24787
836.064	24677
836.202	24631
836.34	24798
836.478	24875
836.615	24867
836.753	24882
836.891	24878
837.029	24871
837.167	24715
837.305	24738
837.443	24574
837.58	24540
837.718	24669
837.856	24623
837.993	24612
838.131	24684
838.269	24544
838.406	24631
838.544	24388
838.681	24319
838.819	24426
838.956	24038
839.094	24049
839.231	24095
839.369	24429
839.506	24517
839.643	24407
839.781	24167
839.918	24095
840.055	24178
840.193	23980
840.33	24003
840.467	24098
840.604	23988
840.742	24338
840.879	23870
841.016	23984
841.153	23961
841.29	24034
841.427	24053
841.564	24018
841.701	24003
841.838	24011
841.975	23904
842.112	23942
842.249	23821
842.385	23786
842.522	23969
842.659	23889
842.796	23775
842.933	23665
843.069	23783
843.206	23653
843.343	23874
843.479	23767
843.616	23920
843.752	23570
843.889	23577
844.025	23786
844.162	23551
844.298	23604
844.435	23665
844.571	23581
844.708	23592
844.844	23737
844.98	23767
845.117	23729
845.253	23577
845.389	23406
845.525	23417
845.661	23421
845.798	23223
845.934	23360
846.07	23307
846.206	23193
846.342	23372
846.478	23223
846.614	23014
846.75	23064
846.886	22915
847.022	22949
847.158	23204
847.294	23029
847.429	23048
847.565	23067
847.701	23395
847.837	22755
847.972	22653
848.108	22771
848.244	22797
848.379	22637
848.515	22481
848.65	22516
848.786	22531
848.921	22599
849.057	22740
849.192	22702
849.328	22599
849.463	22634
849.598	22630
849.734	22535
849.869	22481
850.004	22405
850.14	22485
850.275	22424
850.41	22386
850.545	22299
850.68	22310
850.815	22432
850.95	22466
851.085	22618
851.22	22405
851.355	22398
851.49	22409
851.625	22344
851.76	22230
851.895	22230
852.03	22291
852.165	22268
852.299	22455
852.434	22535
852.569	22382
852.703	22428
852.838	22455
852.973	22500
853.107	22386
853.242	22242
853.376	22059
853.511	22093
853.645	22173
853.78	22272
853.914	22253
854.048	22112
854.183	22226
854.317	22207
854.451	22375
854.585	22097
854.72	22112
854.854	22181
854.988	22078
855.122	22109
855.256	21987
855.39	22120
855.524	22268
855.658	22257
855.792	22090
855.926	22097
856.06	22238
856.194	22360
856.327	22120
856.461	22200
856.595	22093
856.729	22169
856.862	22337
856.996	22226
857.13	22249
857.263	22306
857.397	22238
857.53	22284
857.664	22322
857.797	22253
857.931	22207
858.064	22295
858.197	22169
858.331	22063
858.464	22139
858.597	22097
858.731	22249
858.864	22173
858.997	22246
859.13	22223
859.263	22318
859.396	22143
859.529	22162
859.662	22131
859.795	22109
859.928	22204
860.061	22421
860.194	22382
860.327	22276
860.46	22257
860.592	22230
860.725	22306
860.858	22291
860.99	22101
861.123	22120
861.256	22169
861.388	22310
861.521	22828
861.653	22143
861.786	21964
861.918	22139
862.05	21937
862.183	22070
862.315	22143
862.447	22223
862.58	22192
862.712	22006
862.844	21873
862.976	21964
863.108	21953
863.24	22402
863.372	21823
863.504	21895
863.636	21926
863.768	21956
863.9	21827
864.032	21739
864.164	21671
864.296	21911
864.428	21956
864.559	21915
864.691	21857
864.823	21964
864.954	21785
865.086	21979
865.217	21838
865.349	21656
865.48	21804
865.612	21869
865.743	21934
865.875	21876
866.006	21823
866.137	21690
866.269	21739
866.4	21739
866.531	21762
866.662	21667
866.793	21641
866.924	21705
867.055	21762
867.186	21751
867.317	21686
867.448	21587
867.579	21637
867.71	21568
867.841	21553
867.972	21705
868.103	21736
868.233	21599
868.364	21724
868.495	21907
868.625	21941
868.756	22013
868.886	21800
869.017	21926
869.147	22097
869.278	22101
869.408	22055
869.539	21808
869.669	21956
869.799	21861
869.929	22131
870.06	22105
870.19	22226
870.32	22154
870.45	22284
870.58	22348
870.71	22299
870.84	22455
870.97	22402
871.1	22268
871.23	22523
871.36	22493
871.489	22436
871.619	22584
871.749	22561
871.879	22615
872.008	22713
872.138	22611
872.267	22421
872.397	22459
872.526	22432
872.656	22348
872.785	22303
872.915	22485
873.044	22519
873.173	22489
873.303	22592
873.432	22596
873.561	22603
873.69	22459
873.819	22489
873.948	22660
874.077	22622
874.206	22497
874.335	22615
874.464	22725
874.593	22748
874.722	22820
874.851	22847
874.979	22786
875.108	22771
875.237	22740
875.365	22698
875.494	22717
875.623	22904
875.751	22797
875.88	22854
876.008	22816
876.136	23079
876.265	23098
876.393	23376
876.521	23208
876.65	23147
876.778	23197
876.906	23041
877.034	23098
877.162	23109
877.29	23029
877.418	23113
877.546	23147
877.674	23121
877.802	23071
877.93	23151
878.058	23140
878.185	23003
878.313	23064
878.441	23178
878.568	22976
878.696	23102
878.824	23212
878.951	23136
879.079	23280
879.206	23383
879.333	23303
879.461	23143
879.588	23227
879.715	23212
879.842	23433
879.97	23204
880.097	22991
880.224	23102
880.351	23022
880.478	23109
880.605	23060
880.732	22896
880.859	23223
880.986	22873
881.112	23025
881.239	22820
881.366	22615
881.493	22527
881.619	22485
881.746	22557
881.872	22596
881.999	22497
882.125	22390
882.252	22577
882.378	22550
882.505	22596
882.631	22497
882.757	22284
882.883	22204
883.01	22200
883.136	22131
883.262	22048
883.388	22044
883.514	22131
883.64	22249
883.766	22147
883.892	22120
884.018	21949
884.143	22162
884.269	22147
884.395	21941
884.52	21701
884.646	21823
884.772	21774
884.897	21797
885.023	21793
885.148	21899
885.274	21854
885.399	21888
885.524	21846
885.65	21827
885.775	21884
885.9	21823
886.025	21926
886.15	21854
886.275	21895
886.4	21694
886.525	21804
886.65	21580
886.775	21759
886.9	21831
887.025	22040
887.149	21736
887.274	21587
887.399	21466
887.523	21519
887.648	21610
887.773	21389
887.897	21751
888.021	21637
888.146	21519
888.27	21648
888.395	21728
888.519	21717
888.643	21644
888.767	21622
888.891	21500
889.015	21454
889.139	21458
889.263	21230
889.387	21389
889.511	21557
889.635	21534
889.759	21420
889.883	21359
890.006	21568
890.13	21450
890.254	21359
890.377	21382
890.501	21150
890.624	21093
890.748	21119
890.871	21043
890.995	20883
891.118	20967
891.241	21013
891.364	21089
891.488	21062
891.611	20979
891.734	20929
891.857	21047
891.98	20975
892.103	20994
892.226	20853
892.349	20861
892.471	20785
892.594	20864
892.717	20834
892.839	20830
892.962	20864
893.085	20956
893.207	20823
893.33	20636
893.452	20746
893.575	20750
893.697	20750
893.819	20941
893.941	21024
894.064	20861
894.186	20902
894.308	20705
894.43	20845
894.552	20944
894.674	20899
894.796	20746
894.918	20906
895.04	20701
895.161	20929
895.283	20941
895.405	20606
895.526	20811
895.648	20830
895.769	20887
895.891	20944
896.012	20864
896.134	20910
896.255	20819
896.376	20876
896.498	20899
896.619	20906
896.74	20838
896.861	20876
896.982	21100
897.103	21138
897.224	21108
897.345	21051
897.466	21081
897.587	21062
897.708	21093
897.828	21077
897.949	20990
898.07	20872
898.19	20849
898.311	21207
898.431	20941
898.552	21013
898.672	21096
898.792	21070
898.913	21066
899.033	20826
899.153	20731
899.273	20727
899.393	20906
899.513	20800
899.633	20765
899.753	20781
899.873	20754
899.993	20826
900.113	20686
900.232	20644
900.352	20655
900.472	20598
900.591	20533
900.711	20549
900.83	20499
900.95	20670
901.069	20575
901.189	20389
901.308	20122
901.427	20134
901.546	20202
901.665	20130
901.784	20008
901.904	20016
902.023	19818
902.141	19742
902.26	19601
902.379	19727
902.498	19647
902.617	19563
902.735	19674
902.854	19377
902.973	19563
903.091	19388
903.21	19400
903.328	19282
903.446	19285
903.565	19008
903.683	19057
903.801	18954
903.919	19000
904.038	19000
904.156	18882
904.274	18977
904.392	18837
904.51	18722
904.627	18844
904.745	18943
904.863	18916
904.981	18738
905.098	18506
905.216	18536
905.334	18601
905.451	18559
905.569	18445
905.686	18544
905.803	18540
905.921	18273
906.038	18372
906.155	18311
906.272	18186
906.389	18079
906.506	17920
906.623	18155
906.74	18053
906.857	17931
906.974	17992
907.091	18152
907.208	18102
907.324	18087
907.441	17992
907.557	17752
907.674	17745
907.79	17581
907.907	17615
908.023	17661
908.139	17661
908.256	17722
908.372	17634
908.488	17634
908.604	17558
908.72	17372
908.836	17509
908.952	17417
909.068	17459
909.184	17532
909.3	17478
909.415	17486
909.531	17429
909.647	17162
909.762	17174
909.878	17117
909.993	17185
910.108	17166
910.224	17056
910.339	17079
910.454	17014
910.57	16854
910.685	16961
910.8	17223
910.915	17079
911.03	17010
911.145	16854
911.259	16736
911.374	16679
911.489	16736
911.604	16531
911.718	16599
911.833	16451
911.947	16314
912.062	16287
912.176	16500
912.291	16386
912.405	16417
912.519	16672
912.633	16645
912.748	16455
912.862	16417
912.976	16398
913.09	16147
913.204	16230
913.318	16443
913.431	16390
913.545	16329
913.659	16280
913.772	16280
913.886	16169
914	16063
914.113	16226
914.226	16200
914.34	16135
914.453	16006
914.566	16185
914.68	16048
914.793	15934
914.906	15701
915.019	15660
915.132	15561
915.245	15686
915.358	15652
915.47	15690
915.583	15568
915.696	15667
915.809	15823
915.921	15770
916.034	15614
916.146	15519
916.259	15485
916.371	15610
916.483	15568
916.595	15526
916.708	15405
916.82	15511
916.932	15458
917.044	15511
917.156	15374
917.268	15264
917.38	15298
917.491	15355
917.603	15325
917.715	15397
917.826	15416
917.938	15237
918.049	15173
918.161	15218
918.272	15378
918.384	15317
918.495	15135
918.606	15131
918.717	15066
918.828	15009
918.939	15108
919.05	14952
919.161	15005
919.272	14861
919.383	14937
919.494	15089
919.604	15226
919.715	14941
919.826	14906
919.936	15047
920.047	15062
920.157	15039
920.267	15188
920.378	15043
920.488	14952
920.598	15233
920.708	15268
920.818	15237
920.928	15165
921.038	15363
921.148	15211
921.258	14998
921.368	14864
921.477	14716
921.587	14701
921.697	14514
921.806	14735
921.916	14545
922.025	14427
922.134	14415
922.244	14320
922.353	14438
922.462	14290
922.571	14206
922.68	13936
922.789	13982
922.898	13970
923.007	13986
923.116	14008
923.224	14020
923.333	13989
923.442	13841
923.55	13822
923.659	13746
923.767	13890
923.876	13784
923.984	13894
924.092	13681
924.201	13731
924.309	13708
924.417	13693
924.525	13639
924.633	13655
924.741	14602
924.849	13358
924.956	13632
925.064	13472
925.172	13377
925.279	13407
925.387	13335
925.494	13464
925.602	13525
925.709	13369
925.816	13297
925.924	13301
926.031	13453
926.138	13304
926.245	13381
926.352	13183
926.459	13335
926.566	13339
926.673	13308
926.779	13076
926.886	13145
926.993	13031
927.099	12886
927.206	12878
927.312	12920
927.419	13008
927.525	12909
927.631	12939
927.737	12863
927.843	12745
927.95	12688
928.056	12753
928.162	12829
928.267	12772
928.373	13259
928.479	12779
928.585	12601
928.69	12677
928.796	12753
928.901	12620
929.007	12422
929.112	12601
929.218	12570
929.323	12521
929.428	12494
929.533	12559
929.638	12388
929.743	12410
929.848	12502
929.953	12391
930.058	12289
930.163	12091
930.267	12243
930.372	12281
930.477	12057
930.581	12304
930.685	12136
930.79	12068
930.894	12079
930.998	12011
931.103	12129
931.207	11752
931.311	11805
931.415	11619
931.519	11395
931.623	11402
