Data from test_V78500241_1313.txt Node
Date: Fri Mar 25 15:50:53 CST 2022
User: usil
Spectrometer: V785-0024
Trigger mode: 0
Integration Time (sec): 4.000000E-1
Scans to average: 1
Nonlinearity correction enabled: false
Boxcar width: 0
Storing dark spectrum: false
XAxis mode: Wavelengths
Number of Pixels in Spectrum: 1024
>>>>>Begin Spectral Data<<<<<
801.071	27599
801.214	27542
801.356	27367
801.499	27169
801.641	27192
801.783	27230
801.926	27093
802.068	27161
802.211	27051
802.353	26914
802.496	26914
802.638	26792
802.78	26815
802.923	26651
803.065	26629
803.208	26724
803.35	26830
803.492	26834
803.635	26956
803.777	26804
803.919	27001
804.061	27252
804.204	26899
804.346	26933
804.488	26998
804.63	27085
804.773	26872
804.915	27036
805.057	26990
805.199	26975
805.341	27077
805.483	27116
805.626	27093
805.768	26944
805.91	27085
806.052	27074
806.194	27169
806.336	27336
806.478	27146
806.62	27108
806.762	27298
806.904	27367
807.046	27568
807.188	27519
807.33	27549
807.472	27587
807.614	27447
807.756	27481
807.898	27500
808.04	27344
808.182	27268
808.324	27291
808.465	27393
808.607	27690
808.749	27793
808.891	27743
809.033	27766
809.174	27854
809.316	27717
809.458	27789
809.6	27720
809.741	27926
809.883	27812
810.025	28032
810.166	27926
810.308	28059
810.45	28067
810.591	27846
810.733	27728
810.875	27686
811.016	27591
811.158	27606
811.299	27892
811.441	27819
811.582	27907
811.724	27713
811.865	27671
812.007	27732
812.148	27793
812.29	27709
812.431	27857
812.573	28082
812.714	28097
812.855	28284
812.997	28348
813.138	28363
813.279	28348
813.421	28139
813.562	27998
813.703	28097
813.845	27964
813.986	27682
814.127	27530
814.268	27351
814.41	27618
814.551	27401
814.692	27420
814.833	27397
814.974	27348
815.115	27367
815.256	27195
815.397	27283
815.539	27207
815.68	27173
815.821	27085
815.962	27294
816.103	27176
816.244	27093
816.385	27066
816.526	26967
816.666	26781
816.807	26579
816.948	26796
817.089	26895
817.23	26701
817.371	26701
817.512	26640
817.653	26678
817.793	26583
817.934	26609
818.075	26762
818.216	26621
818.356	26629
818.497	26750
818.638	26396
818.778	26453
818.919	26549
819.06	26575
819.2	26655
819.341	26864
819.481	26716
819.622	26693
819.762	26960
819.903	26864
820.043	26857
820.184	26925
820.324	26788
820.465	26758
820.605	26765
820.746	26796
820.886	26697
821.026	26834
821.167	26781
821.307	26842
821.447	26670
821.588	26613
821.728	26294
821.868	26202
822.008	26157
822.149	26214
822.289	26172
822.429	25959
822.569	25837
822.709	25799
822.849	25712
822.99	25849
823.13	25681
823.27	25563
823.41	25506
823.55	25419
823.69	25449
823.83	25567
823.97	25403
824.11	25430
824.25	25316
824.389	25301
824.529	25445
824.669	25346
824.809	25525
824.949	25468
825.089	25365
825.228	25384
825.368	25072
825.508	25069
825.648	25206
825.787	25110
825.927	25259
826.067	25080
826.206	25221
826.346	25160
826.485	25152
826.625	25133
826.765	25468
826.904	25183
827.044	24935
827.183	24871
827.323	24783
827.462	24924
827.601	24878
827.741	24867
827.88	24943
828.02	24783
828.159	24970
828.298	24856
828.437	24779
828.577	24894
828.716	24939
828.855	24749
828.994	24509
829.134	24661
829.273	24719
829.412	24486
829.551	24570
829.69	24570
829.829	24601
829.968	24703
830.107	24715
830.246	24631
830.385	24433
830.524	24479
830.663	24365
830.802	24376
830.941	24178
831.08	24144
831.219	24213
831.357	24327
831.496	24304
831.635	24262
831.774	24091
831.913	24015
832.051	23908
832.19	23942
832.329	24041
832.467	23824
832.606	23748
832.744	23741
832.883	23901
833.022	23710
833.16	23764
833.299	23923
833.437	23840
833.576	23882
833.714	23897
833.852	23920
833.991	23935
834.129	24018
834.267	23920
834.406	23920
834.544	23969
834.682	23863
834.821	23893
834.959	24003
835.097	23878
835.235	23874
835.373	23756
835.511	23927
835.65	23752
835.788	23695
835.926	23608
836.064	23417
836.202	23547
836.34	23726
836.478	23760
836.615	23573
836.753	23589
836.891	23916
837.029	23798
837.167	23634
837.305	23737
837.443	23547
837.58	23611
837.718	23703
837.856	23710
837.993	23429
838.131	23551
838.269	23444
838.406	23528
838.544	23509
838.681	23273
838.819	23231
838.956	22972
839.094	23060
839.231	23132
839.369	23128
839.506	23459
839.643	23299
839.781	23022
839.918	22968
840.055	23140
840.193	23079
840.33	22904
840.467	23010
840.604	23041
840.742	23261
840.879	22881
841.016	22915
841.153	22881
841.29	23067
841.427	22927
841.564	23041
841.701	22915
841.838	22908
841.975	22957
842.112	22927
842.249	22710
842.385	22816
842.522	22991
842.659	22786
842.796	22694
842.933	22664
843.069	22546
843.206	22672
843.343	22786
843.479	22675
843.616	22660
843.752	22440
843.889	22569
844.025	22538
844.162	22337
844.298	22596
844.435	22421
844.571	22451
844.708	22535
844.844	22493
844.98	22630
845.117	22641
845.253	22447
845.389	22325
845.525	22379
845.661	22371
845.798	22177
845.934	22219
846.07	22215
846.206	22280
846.342	22318
846.478	22116
846.614	22017
846.75	21987
846.886	21934
847.022	21994
847.158	21987
847.294	21953
847.429	21903
847.565	21911
847.701	22265
847.837	21572
847.972	21591
848.108	21774
848.244	21770
848.379	21603
848.515	21523
848.65	21504
848.786	21568
848.921	21545
849.057	21526
849.192	21606
849.328	21515
849.463	21454
849.598	21507
849.734	21397
849.869	21405
850.004	21279
850.14	21310
850.275	21370
850.41	21116
850.545	21275
850.68	21450
850.815	21329
850.95	21310
851.085	21420
851.22	21412
851.355	21378
851.49	21367
851.625	21119
851.76	21279
851.895	21279
852.03	21283
852.165	21370
852.299	21355
852.434	21268
852.569	21180
852.703	21321
852.838	21272
852.973	21359
853.107	21485
853.242	21264
853.376	21135
853.511	21138
853.645	21138
853.78	21294
853.914	21055
854.048	21070
854.183	21146
854.317	21245
854.451	21378
854.585	21146
854.72	21123
854.854	21119
854.988	21074
855.122	21043
855.256	20902
855.39	21157
855.524	21184
855.658	21146
855.792	21039
855.926	21119
856.06	21127
856.194	21207
856.327	21123
856.461	21093
856.595	20960
856.729	21001
856.862	21237
856.996	21260
857.13	21165
857.263	21207
857.397	21211
857.53	21173
857.664	21142
857.797	21127
857.931	21154
858.064	21230
858.197	21237
858.331	21192
858.464	21089
858.597	21150
858.731	21157
858.864	21119
858.997	21093
859.13	21150
859.263	21135
859.396	21226
859.529	21104
859.662	21195
859.795	21100
859.928	21230
860.061	21397
860.194	21279
860.327	21218
860.46	21173
860.592	21173
860.725	21340
860.858	21241
860.99	21226
861.123	21173
861.256	21013
861.388	21150
861.521	21975
861.653	21074
861.786	20990
861.918	21013
862.05	21081
862.183	21135
862.315	21169
862.447	21131
862.58	21100
862.712	20861
862.844	20880
862.976	20960
863.108	20918
863.24	21230
863.372	20823
863.504	20868
863.636	20853
863.768	20899
863.9	20918
864.032	20845
864.164	20864
864.296	20937
864.428	21096
864.559	20937
864.691	20982
864.823	20929
864.954	20807
865.086	20929
865.217	20724
865.349	20632
865.48	20781
865.612	20773
865.743	21013
865.875	20777
866.006	20765
866.137	20899
866.269	20796
866.4	20868
866.531	20724
866.662	20701
866.793	20754
866.924	20697
867.055	20796
867.186	20750
867.317	20712
867.448	20636
867.579	20788
867.71	20769
867.841	20697
867.972	20693
868.103	20674
868.233	20773
868.364	20678
868.495	20834
868.625	20948
868.756	21062
868.886	20876
869.017	21005
869.147	21119
869.278	21066
869.408	20994
869.539	20967
869.669	21104
869.799	21058
869.929	21055
870.06	21173
870.19	21211
870.32	21192
870.45	21351
870.58	21348
870.71	21469
870.84	21397
870.97	21329
871.1	21382
871.23	21507
871.36	21473
871.489	21572
871.619	21492
871.749	21580
871.879	21587
872.008	21797
872.138	21549
872.267	21557
872.397	21458
872.526	21389
872.656	21458
872.785	21435
872.915	21625
873.044	21545
873.173	21568
873.303	21553
873.432	21652
873.561	21698
873.69	21603
873.819	21633
873.948	21603
874.077	21530
874.206	21469
874.335	21462
874.464	21751
874.593	21899
874.722	21648
874.851	21800
874.979	21759
875.108	21861
875.237	21793
875.365	21762
875.494	21739
875.623	21842
875.751	21751
875.88	21869
876.008	21911
876.136	21968
876.265	22143
876.393	22386
876.521	22238
876.65	22219
876.778	22154
876.906	22226
877.034	21968
877.162	22276
877.29	22097
877.418	22135
877.546	22249
877.674	22143
877.802	22181
877.93	22090
878.058	22120
878.185	21903
878.313	22051
878.441	22010
878.568	22010
878.696	22074
878.824	22112
878.951	22192
879.079	22310
879.206	22405
879.333	22303
879.461	22230
879.588	22299
879.715	22310
879.842	22611
879.97	22314
880.097	21983
880.224	21934
880.351	21960
880.478	22036
880.605	22048
880.732	22040
880.859	22192
880.986	21964
881.112	21968
881.239	21831
881.366	21759
881.493	21641
881.619	21561
881.746	21572
881.872	21606
881.999	21473
882.125	21549
882.252	21720
882.378	21606
882.505	21648
882.631	21473
882.757	21321
882.883	21344
883.01	21260
883.136	21298
883.262	21241
883.388	21062
883.514	21249
883.64	21161
883.766	21192
883.892	21013
884.018	21047
884.143	21340
884.269	21367
884.395	21001
884.52	20819
884.646	20941
884.772	20788
884.897	20750
885.023	20952
885.148	21077
885.274	20895
885.399	20982
885.524	20994
885.65	20933
885.775	21032
885.9	20834
886.025	21024
886.15	20971
886.275	20788
886.4	20686
886.525	20914
886.65	20880
886.775	20807
886.9	20952
887.025	21116
887.149	20857
887.274	20720
887.399	20640
887.523	20667
887.648	20552
887.773	20480
887.897	20716
888.021	20769
888.146	20587
888.27	20785
888.395	20861
888.519	20712
888.643	20686
888.767	20731
888.891	20579
889.015	20446
889.139	20495
889.263	20461
889.387	20594
889.511	20609
889.635	20511
889.759	20358
889.883	20469
890.006	20526
890.13	20473
890.254	20446
890.377	20457
890.501	20298
890.624	20202
890.748	20244
890.871	20115
890.995	20012
891.118	19963
891.241	20103
891.364	20027
891.488	20180
891.611	20046
891.734	20107
891.857	20084
891.98	20046
892.103	19959
892.226	20054
892.349	19986
892.471	20001
892.594	19974
892.717	20031
892.839	20035
892.962	20035
893.085	20046
893.207	19944
893.33	19791
893.452	19799
893.575	19993
893.697	19978
893.819	19963
893.941	20054
894.064	20008
894.186	19890
894.308	19906
894.43	19974
894.552	20065
894.674	20077
894.796	19898
894.918	20024
895.04	19852
895.161	20081
895.283	20016
895.405	19921
895.526	19807
895.648	20031
895.769	19955
895.891	19932
896.012	20073
896.134	20008
896.255	19982
896.376	20005
896.498	20046
896.619	19947
896.74	20005
896.861	20088
896.982	20355
897.103	20438
897.224	20221
897.345	20263
897.466	20088
897.587	20237
897.708	20347
897.828	20301
897.949	20103
898.07	20084
898.19	20157
898.311	20282
898.431	20115
898.552	20214
898.672	20199
898.792	20183
898.913	20263
899.033	20035
899.153	20001
899.273	19993
899.393	19993
899.513	20046
899.633	20005
899.753	19944
899.873	19875
899.993	19989
900.113	19883
900.232	19993
900.352	19807
900.472	19837
900.591	19761
900.711	19780
900.83	19727
900.95	19750
901.069	19765
901.189	19582
901.308	19293
901.427	19320
901.546	19221
901.665	19270
901.784	19301
901.904	19278
902.023	19061
902.141	18947
902.26	18859
902.379	18947
902.498	18776
902.617	18684
902.735	18890
902.854	18852
902.973	18738
903.091	18574
903.21	18566
903.328	18448
903.446	18380
903.565	18308
903.683	18254
903.801	18311
903.919	18174
904.038	18243
904.156	18038
904.274	18140
904.392	18110
904.51	18129
904.627	18034
904.745	18038
904.863	18178
904.981	17878
905.098	17737
905.216	17836
905.334	17748
905.451	17771
905.569	17630
905.686	17726
905.803	17741
905.921	17482
906.038	17589
906.155	17501
906.272	17376
906.389	17444
906.506	17330
906.623	17246
906.74	17261
906.857	17254
906.974	17208
907.091	17307
907.208	17360
907.324	17273
907.441	17140
907.557	17064
907.674	17067
907.79	16873
907.907	17029
908.023	16942
908.139	16991
908.256	16908
908.372	16835
908.488	16930
908.604	16710
908.72	16755
908.836	16721
908.952	16759
909.068	16702
909.184	16831
909.3	16691
909.415	16736
909.531	16713
909.647	16512
909.762	16497
909.878	16394
909.993	16466
910.108	16360
910.224	16352
910.339	16402
910.454	16253
910.57	16344
910.685	16272
910.8	16428
910.915	16356
911.03	16124
911.145	16078
911.259	16017
911.374	15998
911.489	15865
911.604	15945
911.718	15686
911.833	15766
911.947	15766
912.062	15557
912.176	15759
912.291	15816
912.405	15732
912.519	15922
912.633	15930
912.748	15861
912.862	15785
912.976	15515
913.09	15519
913.204	15549
913.318	15572
913.431	15614
913.545	15610
913.659	15610
913.772	15576
913.886	15386
914	15344
914.113	15424
914.226	15530
914.34	15431
914.453	15344
914.566	15450
914.68	15275
914.793	15218
914.906	15062
915.019	14982
915.132	14944
915.245	15001
915.358	15081
915.47	14986
915.583	15024
915.696	15001
915.809	15169
915.921	15070
916.034	14880
916.146	14811
916.259	14937
916.371	14975
916.483	14948
916.595	14762
916.708	14895
916.82	14861
916.932	14743
917.044	14777
917.156	14727
917.268	14689
917.38	14610
917.491	14735
917.603	14590
917.715	14720
917.826	14708
917.938	14571
918.049	14465
918.161	14625
918.272	14697
918.384	14727
918.495	14518
918.606	14450
918.717	14400
918.828	14442
918.939	14431
919.05	14339
919.161	14301
919.272	14195
919.383	14240
919.494	14461
919.604	14663
919.715	14377
919.826	14320
919.936	14347
920.047	14583
920.157	14393
920.267	14556
920.378	14419
920.488	14358
920.598	14465
920.708	14659
920.818	14556
920.928	14514
921.038	14720
921.148	14629
921.258	14404
921.368	14259
921.477	14180
921.587	14115
921.697	13989
921.806	14149
921.916	13951
922.025	13830
922.134	13788
922.244	13605
922.353	13795
922.462	13715
922.571	13582
922.68	13354
922.789	13426
922.898	13373
923.007	13301
923.116	13445
923.224	13335
923.333	13320
923.442	13346
923.55	13225
923.659	13202
923.767	13297
923.876	13171
923.984	13304
924.092	13046
924.201	13164
924.309	13164
924.417	13126
924.525	13069
924.633	12977
924.741	13913
924.849	12863
924.956	13088
925.064	12837
925.172	12825
925.279	12772
925.387	12810
925.494	12791
925.602	12985
925.709	12802
925.816	12719
925.924	12738
926.031	12871
926.138	12783
926.245	12840
926.352	12593
926.459	12829
926.566	12795
926.673	12719
926.779	12483
926.886	12521
926.993	12475
927.099	12403
927.206	12467
927.312	12319
927.419	12486
927.525	12399
927.631	12475
927.737	12319
927.843	12266
927.95	12159
928.056	12224
928.162	12308
928.267	12251
928.373	12783
928.479	12300
928.585	12060
928.69	12205
928.796	12239
928.901	12125
929.007	11958
929.112	12125
929.218	12117
929.323	12060
929.428	11984
929.533	12121
929.638	11870
929.743	12007
929.848	12026
929.953	11920
930.058	11889
930.163	11611
930.267	11703
930.372	11737
930.477	11653
930.581	11836
930.685	11695
930.79	11566
930.894	11680
930.998	11532
931.103	11718
931.207	11425
931.311	11273
931.415	11178
931.519	10896
931.623	10930
