Data from test_V78500241_266.txt Node
Date: Fri Mar 25 15:43:38 CST 2022
User: usil
Spectrometer: V785-0024
Trigger mode: 0
Integration Time (sec): 4.000000E-1
Scans to average: 1
Nonlinearity correction enabled: false
Boxcar width: 0
Storing dark spectrum: false
XAxis mode: Wavelengths
Number of Pixels in Spectrum: 1024
>>>>>Begin Spectral Data<<<<<
801.071	30030
801.214	29882
801.356	29680
801.499	29482
801.641	29478
801.783	29512
801.926	29543
802.068	29448
802.211	29288
802.353	29159
802.496	29060
802.638	29208
802.78	29170
802.923	29079
803.065	28980
803.208	29083
803.35	29246
803.492	29174
803.635	29345
803.777	29227
803.919	29455
804.061	29657
804.204	29326
804.346	29250
804.488	29174
804.63	29254
804.773	29181
804.915	29223
805.057	29429
805.199	29277
805.341	29436
805.483	29334
805.626	29326
805.768	29280
805.91	29562
806.052	29345
806.194	29200
806.336	29562
806.478	29585
806.62	29501
806.762	29577
806.904	29828
807.046	30060
807.188	29984
807.33	29851
807.472	29847
807.614	29786
807.756	29798
807.898	29600
808.04	29672
808.182	29516
808.324	29627
808.465	29592
808.607	29794
808.749	30022
808.891	30117
809.033	30224
809.174	30114
809.316	30117
809.458	30087
809.6	29950
809.741	30022
809.883	30197
810.025	30315
810.166	30376
810.308	30357
810.45	30213
810.591	30178
810.733	30190
810.875	29973
811.016	30038
811.158	29866
811.299	30011
811.441	30194
811.582	30235
811.724	30018
811.865	29988
812.007	29973
812.148	29980
812.29	29958
812.431	30239
812.573	30285
812.714	30517
812.855	30479
812.997	30787
813.138	30726
813.279	30665
813.421	30483
813.562	30418
813.703	30361
813.845	30349
813.986	29859
814.127	29729
814.268	29657
814.41	29653
814.551	29566
814.692	29665
814.833	29661
814.974	29687
815.115	29577
815.256	29467
815.397	29512
815.539	29474
815.68	29322
815.821	29387
815.962	29589
816.103	29493
816.244	29250
816.385	29318
816.526	29124
816.666	29197
816.807	28839
816.948	28877
817.089	28904
817.23	29064
817.371	28923
817.512	28733
817.653	28752
817.793	28949
817.934	28873
818.075	28831
818.216	28873
818.356	28797
818.497	28596
818.638	28500
818.778	28592
818.919	28561
819.06	28512
819.2	28713
819.341	28801
819.481	29003
819.622	28831
819.762	29189
819.903	29162
820.043	28965
820.184	28949
820.324	29037
820.465	28965
820.605	28927
820.746	28930
820.886	28694
821.026	28927
821.167	28900
821.307	29033
821.447	28888
821.588	28698
821.728	28557
821.868	28455
822.008	28371
822.149	28219
822.289	28090
822.429	28021
822.569	27994
822.709	27861
822.849	27797
822.99	27759
823.13	27819
823.27	27709
823.41	27534
823.55	27355
823.69	27648
823.83	27397
823.97	27382
824.11	27359
824.25	27157
824.389	27287
824.529	27477
824.669	27256
824.809	27439
824.949	27340
825.089	27378
825.228	27291
825.368	27249
825.508	27089
825.648	27138
825.787	27291
825.927	27272
826.067	27131
826.206	27237
826.346	27294
826.485	27252
826.625	27302
826.765	27291
826.904	27161
827.044	26998
827.183	26933
827.323	26762
827.462	26979
827.601	26940
827.741	26861
827.88	26963
828.02	26769
828.159	26785
828.298	26895
828.437	26899
828.577	26830
828.716	27020
828.855	26788
828.994	26587
829.134	26450
829.273	26678
829.412	26598
829.551	26434
829.69	26549
829.829	26541
829.968	26552
830.107	26609
830.246	26560
830.385	26400
830.524	26419
830.663	26320
830.802	26313
830.941	26142
831.08	26065
831.219	26088
831.357	26138
831.496	26286
831.635	26195
831.774	26031
831.913	26046
832.051	26001
832.19	25963
832.329	26005
832.467	25814
832.606	25791
832.744	25788
832.883	25822
833.022	25712
833.16	25784
833.299	25845
833.437	25784
833.576	26035
833.714	25925
833.852	25795
833.991	25799
834.129	26031
834.267	25791
834.406	25704
834.544	25803
834.682	25818
834.821	25693
834.959	25944
835.097	25700
835.235	25799
835.373	25696
835.511	25894
835.65	25708
835.788	25575
835.926	25407
836.064	25491
836.202	25460
836.34	25643
836.478	25590
836.615	25597
836.753	25597
836.891	25632
837.029	25666
837.167	25491
837.305	25411
837.443	25449
837.58	25472
837.718	25415
837.856	25457
837.993	25445
838.131	25331
838.269	25373
838.406	25339
838.544	25145
838.681	25209
838.819	25031
838.956	24924
839.094	24840
839.231	24894
839.369	25000
839.506	25129
839.643	25061
839.781	24791
839.918	24715
840.055	24886
840.193	24852
840.33	24840
840.467	24825
840.604	24776
840.742	25103
840.879	24502
841.016	24681
841.153	24650
841.29	24677
841.427	24719
841.564	24795
841.701	24772
841.838	24616
841.975	24433
842.112	24593
842.249	24544
842.385	24525
842.522	24452
842.659	24426
842.796	24448
842.933	24460
843.069	24311
843.206	24422
843.343	24399
843.479	24486
843.616	24388
843.752	24129
843.889	24197
844.025	24209
844.162	24174
844.298	24216
844.435	24213
844.571	24091
844.708	24117
844.844	24251
844.98	24285
845.117	24216
845.253	24171
845.389	23980
845.525	24079
845.661	24022
845.798	23737
845.934	23980
846.07	23710
846.206	23927
846.342	24034
846.478	23893
846.614	23695
846.75	23531
846.886	23649
847.022	23630
847.158	23661
847.294	23566
847.429	23558
847.565	23471
847.701	23745
847.837	23246
847.972	23269
848.108	23258
848.244	23273
848.379	23254
848.515	23113
848.65	23136
848.786	23136
848.921	23143
849.057	23258
849.192	23235
849.328	23079
849.463	23258
849.598	23124
849.734	23128
849.869	22881
850.004	22885
850.14	23060
850.275	22843
850.41	22820
850.545	22835
850.68	22934
850.815	22877
850.95	22930
851.085	23071
851.22	23090
851.355	22930
851.49	22889
851.625	22839
851.76	22900
851.895	22615
852.03	22812
852.165	22862
852.299	22965
852.434	22923
852.569	23041
852.703	22839
852.838	23018
852.973	23006
853.107	22984
853.242	22748
853.376	22801
853.511	22546
853.645	22675
853.78	22786
853.914	22691
854.048	22599
854.183	22767
854.317	22653
854.451	22908
854.585	22622
854.72	22637
854.854	22729
854.988	22599
855.122	22664
855.256	22580
855.39	22573
855.524	22717
855.658	22835
855.792	22630
855.926	22793
856.06	22645
856.194	22850
856.327	22565
856.461	22653
856.595	22516
856.729	22634
856.862	22744
856.996	22668
857.13	22812
857.263	22615
857.397	22645
857.53	22554
857.664	22603
857.797	22596
857.931	22725
858.064	22706
858.197	22850
858.331	22622
858.464	22497
858.597	22523
858.731	22569
858.864	22618
858.997	22523
859.13	22668
859.263	22626
859.396	22774
859.529	22504
859.662	22527
859.795	22592
859.928	22577
860.061	22786
860.194	22759
860.327	22580
860.46	22485
860.592	22687
860.725	22744
860.858	22698
860.99	22710
861.123	22573
861.256	22554
861.388	22630
861.521	23132
861.653	22489
861.786	22276
861.918	22535
862.05	22573
862.183	22668
862.315	22615
862.447	22588
862.58	22554
862.712	22413
862.844	22246
862.976	22470
863.108	22344
863.24	22622
863.372	22261
863.504	22181
863.636	22253
863.768	22325
863.9	22322
864.032	22246
864.164	22185
864.296	22238
864.428	22329
864.559	22459
864.691	22443
864.823	22310
864.954	22284
865.086	22280
865.217	22105
865.349	22109
865.48	22078
865.612	22120
865.743	22257
865.875	22196
866.006	22150
866.137	22185
866.269	22120
866.4	22143
866.531	22036
866.662	21953
866.793	22059
866.924	22143
867.055	21975
867.186	22051
867.317	22013
867.448	21972
867.579	22036
867.71	21975
867.841	21956
867.972	21987
868.103	22074
868.233	21983
868.364	21979
868.495	22101
868.625	22333
868.756	22424
868.886	22143
869.017	22284
869.147	22371
869.278	22375
869.408	22295
869.539	22287
869.669	22386
869.799	22375
869.929	22470
870.06	22535
870.19	22611
870.32	22512
870.45	22641
870.58	22660
870.71	22687
870.84	22805
870.97	22706
871.1	22713
871.23	22835
871.36	22854
871.489	22733
871.619	22869
871.749	22900
871.879	22965
872.008	23098
872.138	22934
872.267	22915
872.397	22729
872.526	22733
872.656	22668
872.785	22752
872.915	22885
873.044	22847
873.173	22885
873.303	23044
873.432	23132
873.561	23044
873.69	22942
873.819	22930
873.948	23098
874.077	22953
874.206	22824
874.335	22889
874.464	23033
874.593	23136
874.722	23128
874.851	23166
874.979	23178
875.108	23277
875.237	23166
875.365	22987
875.494	23121
875.623	23162
875.751	23041
875.88	23098
876.008	23189
876.136	23250
876.265	23535
876.393	23646
876.521	23539
876.65	23543
876.778	23539
876.906	23505
877.034	23433
877.162	23330
877.29	23372
877.418	23528
877.546	23531
877.674	23459
877.802	23414
877.93	23455
878.058	23474
878.185	23337
878.313	23474
878.441	23471
878.568	23284
878.696	23391
878.824	23547
878.951	23444
879.079	23661
879.206	23805
879.333	23608
879.461	23440
879.588	23585
879.715	23684
879.842	23687
879.97	23474
880.097	23353
880.224	23395
880.351	23337
880.478	23261
880.605	23204
880.732	23303
880.859	23368
880.986	23277
881.112	23395
881.239	23140
881.366	23086
881.493	22805
881.619	22877
881.746	22877
881.872	22801
881.999	22900
882.125	22869
882.252	22946
882.378	22923
882.505	22908
882.631	22645
882.757	22459
882.883	22675
883.01	22546
883.136	22470
883.262	22356
883.388	22348
883.514	22637
883.64	22550
883.766	22459
883.892	22230
884.018	22421
884.143	22523
884.269	22447
884.395	22306
884.52	22181
884.646	22097
884.772	22204
884.897	22101
885.023	22181
885.148	22166
885.274	22257
885.399	22272
885.524	22162
885.65	22154
885.775	22097
885.9	22090
886.025	22181
886.15	22223
886.275	22070
886.4	21998
886.525	22029
886.65	22158
886.775	22101
886.9	22257
887.025	22432
887.149	22090
887.274	21979
887.399	21835
887.523	21926
887.648	21903
887.773	21842
887.897	22177
888.021	21831
888.146	21827
888.27	21956
888.395	22013
888.519	21899
888.643	21797
888.767	21953
888.891	21854
889.015	21644
889.139	21854
889.263	21724
889.387	21831
889.511	21903
889.635	21743
889.759	21576
889.883	21755
890.006	21778
890.13	21720
890.254	21660
890.377	21633
890.501	21443
890.624	21389
890.748	21504
890.871	21249
890.995	21237
891.118	21081
891.241	21272
891.364	21237
891.488	21359
891.611	21294
891.734	21249
891.857	21264
891.98	21272
892.103	21313
892.226	21252
892.349	21226
892.471	21005
892.594	20990
892.717	21169
892.839	21096
892.962	21161
893.085	21180
893.207	21062
893.33	20872
893.452	21157
893.575	21218
893.697	21138
893.819	21218
893.941	21397
894.064	21317
894.186	20990
894.308	21093
894.43	21256
894.552	21222
894.674	21077
894.796	21047
894.918	20998
895.04	21058
895.161	21085
895.283	21180
895.405	21127
895.526	21096
895.648	21032
895.769	20986
895.891	21066
896.012	21058
896.134	21104
896.255	21207
896.376	21146
896.498	21036
896.619	21321
896.74	21165
896.861	21222
896.982	21481
897.103	21663
897.224	21496
897.345	21412
897.466	21382
897.587	21367
897.708	21397
897.828	21310
897.949	21192
898.07	21096
898.19	21275
898.311	21454
898.431	21306
898.552	21233
898.672	21241
898.792	21317
898.913	21279
899.033	21142
899.153	21195
899.273	20883
899.393	21039
899.513	21116
899.633	20948
899.753	21028
899.873	20876
899.993	21032
900.113	20929
900.232	21043
900.352	20929
900.472	20857
900.591	20785
900.711	20830
900.83	20651
900.95	20792
901.069	20834
901.189	20621
901.308	20465
901.427	20328
901.546	20336
901.665	20400
901.784	20404
901.904	20191
902.023	20054
902.141	19898
902.26	19852
902.379	19906
902.498	19837
902.617	19780
902.735	19860
902.854	19742
902.973	19689
903.091	19483
903.21	19396
903.328	19449
903.446	19327
903.565	19221
903.683	19324
903.801	19221
903.919	19266
904.038	19137
904.156	18989
904.274	19187
904.392	18924
904.51	19103
904.627	18973
904.745	18970
904.863	19084
904.981	18837
905.098	18631
905.216	18593
905.334	18681
905.451	18658
905.569	18673
905.686	18696
905.803	18726
905.921	18456
906.038	18597
906.155	18494
906.272	18346
906.389	18300
906.506	18247
906.623	18209
906.74	18186
906.857	18041
906.974	18076
907.091	18213
907.208	18273
907.324	18190
907.441	18125
907.557	17958
907.674	17889
907.79	17741
907.907	17748
908.023	17870
908.139	17828
908.256	17786
908.372	17779
908.488	17668
908.604	17672
908.72	17520
908.836	17642
908.952	17444
909.068	17524
909.184	17600
909.3	17623
909.415	17615
909.531	17509
909.647	17269
909.762	17364
909.878	17223
909.993	17273
910.108	17227
910.224	17311
910.339	17227
910.454	16984
910.57	17124
910.685	16987
910.8	17269
910.915	17235
911.03	16965
911.145	16919
911.259	16847
911.374	16850
911.489	16767
911.604	16702
911.718	16565
911.833	16577
911.947	16459
912.062	16459
912.176	16618
912.291	16584
912.405	16615
912.519	16774
912.633	16744
912.748	16645
912.862	16588
912.976	16367
913.09	16268
913.204	16287
913.318	16417
913.431	16462
913.545	16440
913.659	16500
913.772	16428
913.886	16128
914	16196
914.113	16284
914.226	16295
914.34	16238
914.453	16063
914.566	16177
914.68	15937
914.793	15994
914.906	15778
915.019	15751
915.132	15694
915.245	15720
915.358	15785
915.47	15766
915.583	15720
915.696	15755
915.809	15888
915.921	15743
916.034	15705
916.146	15656
916.259	15614
916.371	15690
916.483	15762
916.595	15568
916.708	15542
916.82	15557
916.932	15625
917.044	15450
917.156	15374
917.268	15416
917.38	15485
917.491	15367
917.603	15397
917.715	15511
917.826	15443
917.938	15222
918.049	15222
918.161	15397
918.272	15466
918.384	15359
918.495	15268
918.606	15116
918.717	15066
918.828	15249
918.939	15077
919.05	14910
919.161	15085
919.272	14887
919.383	14963
919.494	15150
919.604	15237
919.715	15123
919.826	14941
919.936	15009
920.047	15161
920.157	15077
920.267	15275
920.378	15013
920.488	15043
920.598	15195
920.708	15237
920.818	15245
920.928	15199
921.038	15260
921.148	15272
921.258	14982
921.368	14849
921.477	14720
921.587	14785
921.697	14556
921.806	14697
921.916	14522
922.025	14434
922.134	14400
922.244	14347
922.353	14396
922.462	14370
922.571	14202
922.68	14100
922.789	13989
922.898	14043
923.007	13944
923.116	14024
923.224	13947
923.333	13970
923.442	13780
923.55	13776
923.659	13921
923.767	13940
923.876	13795
923.984	13841
924.092	13753
924.201	13704
924.309	13719
924.417	13750
924.525	13620
924.633	13628
924.741	14522
924.849	13415
924.956	13624
925.064	13453
925.172	13392
925.279	13434
925.387	13415
925.494	13419
925.602	13514
925.709	13434
925.816	13274
925.924	13350
926.031	13426
926.138	13316
926.245	13384
926.352	13187
926.459	13396
926.566	13438
926.673	13221
926.779	13114
926.886	13114
926.993	12970
927.099	12890
927.206	12875
927.312	12890
927.419	12935
927.525	12958
927.631	12894
927.737	12840
927.843	12711
927.95	12688
928.056	12692
928.162	12783
928.267	12806
928.373	13343
928.479	12795
928.585	12646
928.69	12711
928.796	12749
928.901	12574
929.007	12483
929.112	12635
929.218	12608
929.323	12574
929.428	12460
929.533	12589
929.638	12380
929.743	12471
929.848	12445
929.953	12403
930.058	12304
930.163	12140
930.267	12171
930.372	12388
930.477	12083
930.581	12239
930.685	12163
930.79	12064
930.894	11969
930.998	11950
931.103	12083
931.207	11798
931.311	11551
931.415	11547
931.519	11398
931.623	11364
