Data from test_V78500241_1253.txt Node
Date: Fri Mar 25 15:50:28 CST 2022
User: usil
Spectrometer: V785-0024
Trigger mode: 0
Integration Time (sec): 4.000000E-1
Scans to average: 1
Nonlinearity correction enabled: false
Boxcar width: 0
Storing dark spectrum: false
XAxis mode: Wavelengths
Number of Pixels in Spectrum: 1024
>>>>>Begin Spectral Data<<<<<
801.071	28763
801.214	28729
801.356	28481
801.499	28481
801.641	28246
801.783	28284
801.926	28405
802.068	28386
802.211	28322
802.353	28135
802.496	28120
802.638	28124
802.78	28044
802.923	27979
803.065	28059
803.208	27918
803.35	28124
803.492	28188
803.635	28238
803.777	28131
803.919	28284
804.061	28641
804.204	28371
804.346	28120
804.488	28314
804.63	28310
804.773	28169
804.915	28436
805.057	28379
805.199	28272
805.341	28401
805.483	28432
805.626	28455
805.768	28436
805.91	28466
806.052	28386
806.194	28447
806.336	28615
806.478	28432
806.62	28459
806.762	28596
806.904	28839
807.046	28984
807.188	28820
807.33	28888
807.472	28980
807.614	28892
807.756	28843
807.898	28824
808.04	28702
808.182	28702
808.324	28900
808.465	28812
808.607	29029
808.749	29273
808.891	29292
809.033	29277
809.174	29174
809.316	29041
809.458	29090
809.6	29071
809.741	29273
809.883	29311
810.025	29497
810.166	29512
810.308	29421
810.45	29497
810.591	29474
810.733	29159
810.875	29178
811.016	28957
811.158	29143
811.299	29235
811.441	29372
811.582	29334
811.724	29250
811.865	29261
812.007	29162
812.148	29155
812.29	29231
812.431	29341
812.573	29558
812.714	29760
812.855	29752
812.997	29718
813.138	30011
813.279	29809
813.421	29668
813.562	29665
813.703	29547
813.845	29315
813.986	29189
814.127	28995
814.268	28877
814.41	29014
814.551	28854
814.692	28930
814.833	28812
814.974	28839
815.115	28869
815.256	28797
815.397	28896
815.539	28748
815.68	28656
815.821	28668
815.962	28733
816.103	28698
816.244	28615
816.385	28611
816.526	28470
816.666	28474
816.807	28093
816.948	28272
817.089	28344
817.23	28162
817.371	28276
817.512	28371
817.653	28215
817.793	28223
817.934	28158
818.075	28234
818.216	28360
818.356	28173
818.497	28059
818.638	27827
818.778	28036
818.919	27975
819.06	28063
819.2	28051
819.341	28325
819.481	28265
819.622	28401
819.762	28580
819.903	28440
820.043	28489
820.184	28314
820.324	28246
820.465	28470
820.605	28382
820.746	28303
820.886	28291
821.026	28257
821.167	28265
821.307	28546
821.447	28344
821.588	28284
821.728	28067
821.868	27861
822.008	27751
822.149	27599
822.289	27625
822.429	27454
822.569	27329
822.709	27340
822.849	27252
822.99	27142
823.13	27302
823.27	27135
823.41	27157
823.55	26895
823.69	27005
823.83	27100
823.97	26979
824.11	26906
824.25	26785
824.389	26921
824.529	27005
824.669	26880
824.809	27066
824.949	26921
825.089	26925
825.228	26861
825.368	26811
825.508	26648
825.648	26716
825.787	26670
825.927	26796
826.067	26796
826.206	26777
826.346	26807
826.485	26815
826.625	26716
826.765	26910
826.904	26804
827.044	26568
827.183	26541
827.323	26419
827.462	26609
827.601	26556
827.741	26347
827.88	26511
828.02	26366
828.159	26450
828.298	26571
828.437	26453
828.577	26259
828.716	26556
828.855	26275
828.994	26096
829.134	26157
829.273	26328
829.412	26202
829.551	26187
829.69	26096
829.829	26237
829.968	26233
830.107	26210
830.246	26206
830.385	26122
830.524	26111
830.663	25856
830.802	25940
830.941	25944
831.08	25651
831.219	25799
831.357	25757
831.496	25909
831.635	25769
831.774	25647
831.913	25750
832.051	25712
832.19	25567
832.329	25582
832.467	25476
832.606	25331
832.744	25415
832.883	25472
833.022	25487
833.16	25335
833.299	25521
833.437	25438
833.576	25479
833.714	25544
833.852	25552
833.991	25510
834.129	25502
834.267	25609
834.406	25544
834.544	25643
834.682	25601
834.821	25491
834.959	25601
835.097	25476
835.235	25533
835.373	25556
835.511	25293
835.65	25266
835.788	25392
835.926	25259
836.064	25099
836.202	25194
836.34	25388
836.478	25403
836.615	25304
836.753	25244
836.891	25365
837.029	25270
837.167	25209
837.305	25225
837.443	25126
837.58	25164
837.718	25343
837.856	25168
837.993	25012
838.131	25038
838.269	24951
838.406	24989
838.544	24901
838.681	24875
838.819	24840
838.956	24551
839.094	24486
839.231	24658
839.369	24715
839.506	24897
839.643	24951
839.781	24521
839.918	24388
840.055	24612
840.193	24483
840.33	24627
840.467	24429
840.604	24544
840.742	24783
840.879	24315
841.016	24437
841.153	24410
841.29	24578
841.427	24429
841.564	24574
841.701	24464
841.838	24544
841.975	24460
842.112	24346
842.249	24308
842.385	24300
842.522	24384
842.659	24304
842.796	24155
842.933	24178
843.069	24163
843.206	24190
843.343	24376
843.479	24182
843.616	24224
843.752	24098
843.889	24007
844.025	24171
844.162	24007
844.298	24133
844.435	24022
844.571	23965
844.708	24117
844.844	24171
844.98	24152
845.117	24087
845.253	23931
845.389	23916
845.525	23992
845.661	23874
845.798	23676
845.934	23779
846.07	23767
846.206	23855
846.342	23836
846.478	23764
846.614	23608
846.75	23543
846.886	23478
847.022	23509
847.158	23455
847.294	23452
847.429	23627
847.565	23478
847.701	23741
847.837	23269
847.972	23185
848.108	23307
848.244	23170
848.379	23143
848.515	23124
848.65	23071
848.786	23048
848.921	23102
849.057	23197
849.192	23136
849.328	23109
849.463	23029
849.598	22965
849.734	22987
849.869	22957
850.004	22812
850.14	22809
850.275	22820
850.41	22725
850.545	22729
850.68	22816
850.815	22949
850.95	22858
851.085	22923
851.22	22911
851.355	22877
851.49	22839
851.625	22828
851.76	22843
851.895	22843
852.03	22675
852.165	22801
852.299	22889
852.434	22869
852.569	22911
852.703	22843
852.838	22904
852.973	22972
853.107	22904
853.242	22744
853.376	22611
853.511	22675
853.645	22656
853.78	22839
853.914	22748
854.048	22630
854.183	22592
854.317	22694
854.451	22729
854.585	22687
854.72	22733
854.854	22801
854.988	22569
855.122	22672
855.256	22462
855.39	22717
855.524	22752
855.658	22683
855.792	22755
855.926	22706
856.06	22691
856.194	22729
856.327	22675
856.461	22630
856.595	22550
856.729	22653
856.862	22733
856.996	22630
857.13	22778
857.263	22763
857.397	22710
857.53	22675
857.664	22717
857.797	22713
857.931	22748
858.064	22736
858.197	22812
858.331	22660
858.464	22611
858.597	22489
858.731	22675
858.864	22664
858.997	22683
859.13	22668
859.263	22702
859.396	22744
859.529	22618
859.662	22656
859.795	22565
859.928	22698
860.061	22809
860.194	22854
860.327	22706
860.46	22694
860.592	22850
860.725	22972
860.858	22873
860.99	22694
861.123	22447
861.256	22698
861.388	22649
861.521	23273
861.653	22554
861.786	22462
861.918	22565
862.05	22489
862.183	22664
862.315	22603
862.447	22615
862.58	22717
862.712	22478
862.844	22379
862.976	22459
863.108	22352
863.24	22934
863.372	22344
863.504	22474
863.636	22493
863.768	22443
863.9	22379
864.032	22329
864.164	22459
864.296	22356
864.428	22428
864.559	22443
864.691	22405
864.823	22382
864.954	22322
865.086	22337
865.217	22268
865.349	22268
865.48	22367
865.612	22314
865.743	22523
865.875	22306
866.006	22211
866.137	22124
866.269	22162
866.4	22082
866.531	22067
866.662	22211
866.793	22265
866.924	22162
867.055	22158
867.186	22230
867.317	22287
867.448	22116
867.579	22154
867.71	22215
867.841	22090
867.972	22192
868.103	22196
868.233	22135
868.364	22196
868.495	22226
868.625	22402
868.756	22451
868.886	22242
869.017	22386
869.147	22588
869.278	22516
869.408	22402
869.539	22272
869.669	22497
869.799	22542
869.929	22519
870.06	22569
870.19	22668
870.32	22782
870.45	22725
870.58	22740
870.71	22869
870.84	22858
870.97	22668
871.1	22812
871.23	23025
871.36	22889
871.489	22862
871.619	22850
871.749	23022
871.879	22980
872.008	22991
872.138	23075
872.267	22987
872.397	22866
872.526	22843
872.656	22812
872.785	22877
872.915	22972
873.044	23014
873.173	22930
873.303	23117
873.432	22995
873.561	23075
873.69	23014
873.819	23029
873.948	23136
874.077	23113
874.206	23022
874.335	23029
874.464	23102
874.593	23288
874.722	23090
874.851	23200
874.979	23250
875.108	23174
875.237	23261
875.365	23147
875.494	23113
875.623	23265
875.751	23166
875.88	23216
876.008	23269
876.136	23505
876.265	23604
876.393	23745
876.521	23619
876.65	23554
876.778	23615
876.906	23589
877.034	23387
877.162	23596
877.29	23512
877.418	23558
877.546	23501
877.674	23551
877.802	23528
877.93	23638
878.058	23478
878.185	23402
878.313	23547
878.441	23493
878.568	23387
878.696	23467
878.824	23558
878.951	23695
879.079	23680
879.206	23942
879.333	23687
879.461	23630
879.588	23703
879.715	23653
879.842	23935
879.97	23642
880.097	23417
880.224	23353
880.351	23459
880.478	23410
880.605	23269
880.732	23429
880.859	23668
880.986	23471
881.112	23455
881.239	23239
881.366	23117
881.493	22991
881.619	22938
881.746	22984
881.872	22984
881.999	22774
882.125	22915
882.252	23003
882.378	22938
882.505	23022
882.631	22713
882.757	22645
882.883	22767
883.01	22588
883.136	22535
883.262	22398
883.388	22466
883.514	22607
883.64	22782
883.766	22565
883.892	22348
884.018	22440
884.143	22497
884.269	22698
884.395	22348
884.52	22238
884.646	22337
884.772	22207
884.897	22074
885.023	22101
885.148	22344
885.274	22447
885.399	22417
885.524	22238
885.65	22272
885.775	22242
885.9	22295
886.025	22356
886.15	22363
886.275	22181
886.4	22177
886.525	22246
886.65	22192
886.775	22230
886.9	22318
887.025	22481
887.149	22139
887.274	22131
887.399	22063
887.523	21987
887.648	21975
887.773	22044
887.897	22029
888.021	22013
888.146	21964
888.27	22070
888.395	22139
888.519	22051
888.643	21979
888.767	21911
888.891	21888
889.015	21698
889.139	21918
889.263	21778
889.387	21892
889.511	21975
889.635	21941
889.759	21789
889.883	21766
890.006	21800
890.13	21884
890.254	21663
890.377	21622
890.501	21637
890.624	21374
890.748	21568
890.871	21401
890.995	21424
891.118	21207
891.241	21382
891.364	21359
891.488	21416
891.611	21241
891.734	21348
891.857	21477
891.98	21370
892.103	21389
892.226	21382
892.349	21348
892.471	21096
892.594	21230
892.717	21340
892.839	21222
892.962	21241
893.085	21310
893.207	21226
893.33	21009
893.452	21161
893.575	21313
893.697	21260
893.819	21389
893.941	21424
894.064	21462
894.186	21127
894.308	21055
894.43	21176
894.552	21344
894.674	21230
894.796	21009
894.918	21230
895.04	21127
895.161	21169
895.283	21222
895.405	21173
895.526	21237
895.648	21116
895.769	21272
895.891	21176
896.012	21272
896.134	21313
896.255	21173
896.376	21165
896.498	21340
896.619	21241
896.74	21233
896.861	21154
896.982	21523
897.103	21705
897.224	21481
897.345	21389
897.466	21397
897.587	21412
897.708	21420
897.828	21485
897.949	21370
898.07	21180
898.19	21332
898.311	21389
898.431	21416
898.552	21329
898.672	21367
898.792	21416
898.913	21447
899.033	21382
899.153	21294
899.273	21157
899.393	21176
899.513	21108
899.633	21127
899.753	21184
899.873	21062
899.993	21252
900.113	21066
900.232	21150
900.352	21009
900.472	20838
900.591	20864
900.711	20853
900.83	20842
900.95	20914
901.069	20921
901.189	20769
901.308	20575
901.427	20465
901.546	20530
901.665	20507
901.784	20549
901.904	20317
902.023	20362
902.141	19974
902.26	19936
902.379	20088
902.498	19902
902.617	19925
902.735	20092
902.854	19944
902.973	19871
903.091	19719
903.21	19693
903.328	19616
903.446	19552
903.565	19495
903.683	19556
903.801	19358
903.919	19339
904.038	19411
904.156	19118
904.274	19217
904.392	19107
904.51	19129
904.627	19270
904.745	19217
904.863	19160
904.981	18993
905.098	18764
905.216	18848
905.334	19000
905.451	18825
905.569	18795
905.686	18875
905.803	18730
905.921	18631
906.038	18604
906.155	18722
906.272	18540
906.389	18486
906.506	18452
906.623	18365
906.74	18399
906.857	18285
906.974	18289
907.091	18426
907.208	18525
907.324	18414
907.441	18330
907.557	18125
907.674	18171
907.79	17946
907.907	18129
908.023	18068
908.139	18091
908.256	17977
908.372	17916
908.488	18041
908.604	17733
908.72	17783
908.836	17802
908.952	17821
909.068	17809
909.184	17874
909.3	17737
909.415	17904
909.531	17817
909.647	17535
909.762	17543
909.878	17482
909.993	17440
910.108	17452
910.224	17421
910.339	17482
910.454	17391
910.57	17349
910.685	17322
910.8	17452
910.915	17455
911.03	17322
911.145	17071
911.259	17048
911.374	16987
911.489	17014
911.604	16942
911.718	16759
911.833	16763
911.947	16733
912.062	16656
912.176	16782
912.291	16877
912.405	16835
912.519	16965
912.633	17014
912.748	16824
912.862	16752
912.976	16618
913.09	16554
913.204	16580
913.318	16580
913.431	16656
913.545	16691
913.659	16729
913.772	16607
913.886	16409
914	16459
914.113	16504
914.226	16360
914.34	16375
914.453	16318
914.566	16493
914.68	16287
914.793	16071
914.906	16093
915.019	16006
915.132	15956
915.245	15892
915.358	15918
915.47	15945
915.583	15979
915.696	15987
915.809	16109
915.921	16044
916.034	15880
916.146	15838
916.259	15846
916.371	15953
916.483	15819
916.595	15759
916.708	15736
916.82	15800
916.932	15778
917.044	15766
917.156	15705
917.268	15591
917.38	15667
917.491	15614
917.603	15625
917.715	15568
917.826	15694
917.938	15466
918.049	15424
918.161	15492
918.272	15644
918.384	15614
918.495	15420
918.606	15405
918.717	15272
918.828	15355
918.939	15306
919.05	15214
919.161	15310
919.272	15032
919.383	15157
919.494	15363
919.604	15462
919.715	15218
919.826	15188
919.936	15287
920.047	15382
920.157	15279
920.267	15386
920.378	15348
920.488	15249
920.598	15431
920.708	15534
920.818	15435
920.928	15336
921.038	15561
921.148	15401
921.258	15142
921.368	15104
921.477	15112
921.587	14956
921.697	14941
921.806	14990
921.916	14842
922.025	14686
922.134	14670
922.244	14511
922.353	14678
922.462	14579
922.571	14469
922.68	14305
922.789	14233
922.898	14324
923.007	14225
923.116	14370
923.224	14244
923.333	14248
923.442	14145
923.55	14008
923.659	14088
923.767	14271
923.876	14119
923.984	14126
924.092	13959
924.201	14020
924.309	14054
924.417	13921
924.525	13894
924.633	13963
924.741	14891
924.849	13769
924.956	13906
925.064	13670
925.172	13578
925.279	13765
925.387	13791
925.494	13601
925.602	13860
925.709	13753
925.816	13594
925.924	13578
926.031	13704
926.138	13563
926.245	13590
926.352	13460
926.459	13643
926.566	13742
926.673	13510
926.779	13403
926.886	13468
926.993	13225
927.099	13247
927.206	13141
927.312	13091
927.419	13175
927.525	13278
927.631	13232
927.737	13084
927.843	13057
927.95	12924
928.056	13107
928.162	12985
928.267	13084
928.373	13750
928.479	13000
928.585	12787
928.69	12996
928.796	13053
928.901	12859
929.007	12707
929.112	12821
929.218	12871
929.323	12791
929.428	12745
929.533	12764
929.638	12642
929.743	12597
929.848	12764
929.953	12779
930.058	12540
930.163	12376
930.267	12456
930.372	12597
930.477	12327
930.581	12604
930.685	12437
930.79	12289
930.894	12281
930.998	12182
931.103	12289
931.207	11969
931.311	12022
931.415	11783
931.519	11642
931.623	11589
