Data from test_V78500241_2270.txt Node
Date: Fri Mar 25 15:57:31 CST 2022
User: usil
Spectrometer: V785-0024
Trigger mode: 0
Integration Time (sec): 4.000000E-1
Scans to average: 1
Nonlinearity correction enabled: false
Boxcar width: 0
Storing dark spectrum: false
XAxis mode: Wavelengths
Number of Pixels in Spectrum: 1024
>>>>>Begin Spectral Data<<<<<
801.071	29387
801.214	29200
801.356	29109
801.499	28919
801.641	28858
801.783	28972
801.926	29052
802.068	28919
802.211	28862
802.353	28721
802.496	28653
802.638	28687
802.78	28641
802.923	28516
803.065	28459
803.208	28622
803.35	28615
803.492	28744
803.635	28816
803.777	28816
803.919	28839
804.061	29117
804.204	28923
804.346	28763
804.488	28771
804.63	28767
804.773	28881
804.915	29052
805.057	29003
805.199	28888
805.341	29003
805.483	29044
805.626	28965
805.768	28915
805.91	29060
806.052	29178
806.194	29029
806.336	29193
806.478	29208
806.62	29044
806.762	29216
806.904	29269
807.046	29566
807.188	29509
807.33	29448
807.472	29493
807.614	29478
807.756	29642
807.898	29356
808.04	29322
808.182	29315
808.324	29406
808.465	29577
808.607	29668
808.749	29836
808.891	29866
809.033	29908
809.174	29923
809.316	29802
809.458	29786
809.6	29707
809.741	29939
809.883	29866
810.025	29996
810.166	30053
810.308	30011
810.45	29954
810.591	30057
810.733	29942
810.875	29638
811.016	29824
811.158	29657
811.299	29904
811.441	29889
811.582	29980
811.724	29878
811.865	29699
812.007	29874
812.148	29786
812.29	29973
812.431	30038
812.573	30167
812.714	30186
812.855	30304
812.997	30448
813.138	30494
813.279	30540
813.421	30300
813.562	30319
813.703	30201
813.845	29988
813.986	29927
814.127	29665
814.268	29433
814.41	29566
814.551	29425
814.692	29531
814.833	29402
814.974	29349
815.115	29482
815.256	29490
815.397	29410
815.539	29383
815.68	29398
815.821	29353
815.962	29410
816.103	29402
816.244	29235
816.385	29208
816.526	29136
816.666	28953
816.807	28831
816.948	29048
817.089	29094
817.23	28839
817.371	28824
817.512	28976
817.653	28957
817.793	28782
817.934	28862
818.075	28771
818.216	28828
818.356	28812
818.497	28733
818.638	28596
818.778	28611
818.919	28736
819.06	28706
819.2	28778
819.341	28900
819.481	28850
819.622	28972
819.762	29254
819.903	29204
820.043	29174
820.184	28980
820.324	28946
820.465	29159
820.605	29010
820.746	28888
820.886	28858
821.026	29018
821.167	28919
821.307	29086
821.447	28835
821.588	28759
821.728	28721
821.868	28405
822.008	28466
822.149	28344
822.289	28356
822.429	28185
822.569	28097
822.709	27949
822.849	27880
822.99	27827
823.13	27816
823.27	27812
823.41	27637
823.55	27416
823.69	27766
823.83	27663
823.97	27701
824.11	27420
824.25	27393
824.389	27538
824.529	27561
824.669	27473
824.809	27618
824.949	27557
825.089	27759
825.228	27633
825.368	27511
825.508	27443
825.648	27260
825.787	27397
825.927	27534
826.067	27431
826.206	27344
826.346	27450
826.485	27458
826.625	27420
826.765	27416
826.904	27393
827.044	27165
827.183	27081
827.323	27013
827.462	27192
827.601	27268
827.741	27066
827.88	27119
828.02	27081
828.159	26982
828.298	27096
828.437	27199
828.577	27142
828.716	27195
828.855	27043
828.994	26887
829.134	26743
829.273	26796
829.412	26701
829.551	26845
829.69	26773
829.829	26765
829.968	26857
830.107	26883
830.246	26777
830.385	26800
830.524	26689
830.663	26625
830.802	26385
830.941	26374
831.08	26396
831.219	26374
831.357	26427
831.496	26621
831.635	26453
831.774	26332
831.913	26286
832.051	26263
832.19	26214
832.329	26221
832.467	26084
832.606	26069
832.744	26016
832.883	26050
833.022	26100
833.16	26221
833.299	26180
833.437	26092
833.576	26153
833.714	26073
833.852	26210
833.991	26122
834.129	26187
834.267	26214
834.406	26157
834.544	26206
834.682	26115
834.821	26130
834.959	26214
835.097	26012
835.235	26248
835.373	26043
835.511	26058
835.65	25997
835.788	26103
835.926	25894
836.064	25750
836.202	25864
836.34	25936
836.478	25993
836.615	25852
836.753	25921
836.891	25921
837.029	25898
837.167	25856
837.305	25849
837.443	25833
837.58	25799
837.718	25822
837.856	25738
837.993	25605
838.131	25799
838.269	25696
838.406	25780
838.544	25567
838.681	25453
838.819	25491
838.956	25247
839.094	25110
839.231	25365
839.369	25274
839.506	25628
839.643	25491
839.781	25187
839.918	25152
840.055	25297
840.193	25122
840.33	25183
840.467	25129
840.604	25160
840.742	25297
840.879	25088
841.016	24992
841.153	24981
841.29	25183
841.427	25088
841.564	25084
841.701	25053
841.838	25156
841.975	25129
842.112	25046
842.249	24935
842.385	24878
842.522	25031
842.659	24996
842.796	24779
842.933	24905
843.069	24719
843.206	24806
843.343	24848
843.479	24901
843.616	24920
843.752	24642
843.889	24703
844.025	24806
844.162	24604
844.298	24837
844.435	24627
844.571	24589
844.708	24661
844.844	24783
844.98	24772
845.117	24738
845.253	24616
845.389	24475
845.525	24464
845.661	24521
845.798	24304
845.934	24372
846.07	24372
846.206	24319
846.342	24494
846.478	24361
846.614	24133
846.75	23965
846.886	24121
847.022	24178
847.158	24079
847.294	24152
847.429	24060
847.565	24076
847.701	24292
847.837	23676
847.972	23893
848.108	23904
848.244	23885
848.379	23821
848.515	23710
848.65	23733
848.786	23767
848.921	23619
849.057	23790
849.192	23764
849.328	23619
849.463	23707
849.598	23646
849.734	23577
849.869	23436
850.004	23467
850.14	23604
850.275	23391
850.41	23341
850.545	23444
850.68	23410
850.815	23547
850.95	23524
851.085	23577
851.22	23436
851.355	23425
851.49	23440
851.625	23360
851.76	23452
851.895	23356
852.03	23429
852.165	23383
852.299	23554
852.434	23490
852.569	23452
852.703	23383
852.838	23531
852.973	23577
853.107	23539
853.242	23379
853.376	23246
853.511	23189
853.645	23151
853.78	23467
853.914	23292
854.048	23223
854.183	23220
854.317	23185
854.451	23493
854.585	23284
854.72	23242
854.854	23322
854.988	23174
855.122	23292
855.256	23079
855.39	23296
855.524	23322
855.658	23227
855.792	23288
855.926	23315
856.06	23227
856.194	23280
856.327	23151
856.461	23227
856.595	23204
856.729	23212
856.862	23322
856.996	23292
857.13	23261
857.263	23402
857.397	23311
857.53	23318
857.664	23311
857.797	23265
857.931	23391
858.064	23273
858.197	23414
858.331	23189
858.464	23258
858.597	23159
858.731	23284
858.864	23064
858.997	23208
859.13	23231
859.263	23250
859.396	23273
859.529	23273
859.662	23155
859.795	23227
859.928	23212
860.061	23356
860.194	23421
860.327	23269
860.46	23299
860.592	23493
860.725	23421
860.858	23288
860.99	23143
861.123	23155
861.256	23208
861.388	23208
861.521	23908
861.653	22968
861.786	23029
861.918	23010
862.05	23162
862.183	23174
862.315	23227
862.447	23231
862.58	23166
862.712	22938
862.844	22858
862.976	22908
863.108	23128
863.24	23398
863.372	22900
863.504	22995
863.636	22904
863.768	23018
863.9	22972
864.032	22949
864.164	23033
864.296	22915
864.428	23003
864.559	22965
864.691	22995
864.823	23041
864.954	22881
865.086	22892
865.217	22847
865.349	22752
865.48	22908
865.612	22824
865.743	22953
865.875	22854
866.006	22869
866.137	22858
866.269	22828
866.4	22790
866.531	22778
866.662	22615
866.793	22672
866.924	22831
867.055	22759
867.186	22934
867.317	22664
867.448	22588
867.579	22675
867.71	22637
867.841	22653
867.972	22759
868.103	22721
868.233	22713
868.364	22710
868.495	22877
868.625	22889
868.756	23048
868.886	22839
869.017	22873
869.147	23071
869.278	23048
869.408	22972
869.539	23083
869.669	23022
869.799	23044
869.929	23048
870.06	23098
870.19	23330
870.32	23227
870.45	23204
870.58	23239
870.71	23520
870.84	23459
870.97	23440
871.1	23520
871.23	23414
871.36	23619
871.489	23360
871.619	23509
871.749	23463
871.879	23562
872.008	23600
872.138	23505
872.267	23551
872.397	23356
872.526	23353
872.656	23326
872.785	23448
872.915	23558
873.044	23699
873.173	23490
873.303	23592
873.432	23611
873.561	23596
873.69	23695
873.819	23630
873.948	23646
874.077	23691
874.206	23535
874.335	23570
874.464	23653
874.593	23851
874.722	23764
874.851	23878
874.979	23855
875.108	23832
875.237	23752
875.365	23748
875.494	23745
875.623	23855
875.751	23794
875.88	23737
876.008	23809
876.136	23969
876.265	24186
876.393	24228
876.521	24399
876.65	24315
876.778	24171
876.906	24144
877.034	24079
877.162	24232
877.29	23977
877.418	24117
877.546	24102
877.674	24144
877.802	24095
877.93	24258
878.058	24045
878.185	23977
878.313	24064
878.441	24095
878.568	24110
878.696	24068
878.824	24102
878.951	24243
879.079	24277
879.206	24365
879.333	24247
879.461	24247
879.588	24376
879.715	24426
879.842	24262
879.97	24304
880.097	23931
880.224	23923
880.351	23999
880.478	24007
880.605	23946
880.732	23824
880.859	24167
880.986	23965
881.112	24026
881.239	23710
881.366	23687
881.493	23623
881.619	23592
881.746	23547
881.872	23600
881.999	23421
882.125	23277
882.252	23429
882.378	23547
882.505	23608
882.631	23398
882.757	23265
882.883	23235
883.01	23322
883.136	23102
883.262	23029
883.388	22972
883.514	23258
883.64	23147
883.766	23037
883.892	22835
884.018	22987
884.143	23208
884.269	23162
884.395	22850
884.52	22778
884.646	22771
884.772	22641
884.897	22672
885.023	22820
885.148	22919
885.274	22850
885.399	22839
885.524	22679
885.65	22839
885.775	22748
885.9	22721
886.025	22934
886.15	22805
886.275	22645
886.4	22626
886.525	22805
886.65	22729
886.775	22713
886.9	22812
887.025	22976
887.149	22782
887.274	22580
887.399	22561
887.523	22474
887.648	22554
887.773	22390
887.897	22611
888.021	22577
888.146	22519
888.27	22626
888.395	22527
888.519	22626
888.643	22523
888.767	22588
888.891	22409
889.015	22242
889.139	22276
889.263	22333
889.387	22459
889.511	22424
889.635	22542
889.759	22276
889.883	22295
890.006	22291
890.13	22352
890.254	22249
890.377	22162
890.501	22051
890.624	21873
890.748	22055
890.871	21922
890.995	21842
891.118	21930
891.241	21827
891.364	21987
891.488	21994
891.611	21876
891.734	21865
891.857	21888
891.98	21918
892.103	21892
892.226	21869
892.349	21747
892.471	21663
892.594	21686
892.717	21804
892.839	21720
892.962	21766
893.085	21838
893.207	21755
893.33	21675
893.452	21561
893.575	21842
893.697	21800
893.819	21895
893.941	21838
894.064	21857
894.186	21701
894.308	21633
894.43	21816
894.552	21915
894.674	21778
894.796	21667
894.918	21663
895.04	21641
895.161	21751
895.283	21690
895.405	21660
895.526	21698
895.648	21652
895.769	21675
895.891	21717
896.012	21774
896.134	21759
896.255	21686
896.376	21641
896.498	21698
896.619	21827
896.74	21679
896.861	21781
896.982	22067
897.103	22166
897.224	21865
897.345	21960
897.466	21789
897.587	21880
897.708	21998
897.828	21888
897.949	21842
898.07	21709
898.19	21720
898.311	21987
898.431	21884
898.552	21819
898.672	21918
898.792	21991
898.913	21873
899.033	21968
899.153	21709
899.273	21549
899.393	21553
899.513	21751
899.633	21549
899.753	21526
899.873	21629
899.993	21473
900.113	21545
900.232	21538
900.352	21538
900.472	21428
900.591	21397
900.711	21363
900.83	21260
900.95	21519
901.069	21405
901.189	21294
901.308	20975
901.427	20960
901.546	20842
901.665	21032
901.784	21024
901.904	20792
902.023	20648
902.141	20427
902.26	20438
902.379	20564
902.498	20404
902.617	20313
902.735	20450
902.854	20339
902.973	20328
903.091	20065
903.21	20050
903.328	20115
903.446	20039
903.565	19818
903.683	19864
903.801	19738
903.919	19814
904.038	19723
904.156	19700
904.274	19746
904.392	19613
904.51	19655
904.627	19681
904.745	19632
904.863	19666
904.981	19324
905.098	19164
905.216	19400
905.334	19312
905.451	19362
905.569	19301
905.686	19400
905.803	19141
905.921	19164
906.038	19099
906.155	19080
906.272	18878
906.389	18920
906.506	18905
906.623	18837
906.74	18817
906.857	18669
906.974	18700
907.091	18882
907.208	18916
907.324	18757
907.441	18696
907.557	18410
907.674	18418
907.79	18372
907.907	18608
908.023	18517
908.139	18570
908.256	18471
908.372	18311
908.488	18369
908.604	18213
908.72	18129
908.836	18258
908.952	18296
909.068	18224
909.184	18338
909.3	18251
909.415	18083
909.531	18209
909.647	17969
909.762	17794
909.878	17851
909.993	17927
910.108	17859
910.224	17912
910.339	17897
910.454	17809
910.57	17741
910.685	17634
910.8	17832
910.915	17836
911.03	17733
911.145	17497
911.259	17433
911.374	17395
911.489	17410
911.604	17296
911.718	17212
911.833	17178
911.947	17075
912.062	17128
912.176	17162
912.291	17136
912.405	17155
912.519	17341
912.633	17429
912.748	17113
912.862	17136
912.976	17067
913.09	16938
913.204	16972
913.318	17010
913.431	17083
913.545	17071
913.659	17060
913.772	16934
913.886	16881
914	16706
914.113	16881
914.226	16839
914.34	16831
914.453	16675
914.566	16976
914.68	16694
914.793	16668
914.906	16455
915.019	16356
915.132	16284
915.245	16371
915.358	16459
915.47	16360
915.583	16310
915.696	16481
915.809	16470
915.921	16447
916.034	16219
916.146	16318
916.259	16169
916.371	16242
916.483	16306
916.595	16200
916.708	16162
916.82	16196
916.932	16181
917.044	16131
917.156	16185
917.268	15930
917.38	16101
917.491	15846
917.603	15994
917.715	16025
917.826	16002
917.938	15831
918.049	15774
918.161	15972
918.272	15918
918.384	16071
918.495	15895
918.606	15812
918.717	15523
918.828	15652
918.939	15774
919.05	15606
919.161	15557
919.272	15507
919.383	15511
919.494	15739
919.604	15880
919.715	15701
919.826	15576
919.936	15614
920.047	15751
920.157	15656
920.267	15709
920.378	15637
920.488	15603
920.598	15819
920.708	15941
920.818	15698
920.928	15732
921.038	15838
921.148	15766
921.258	15587
921.368	15424
921.477	15348
921.587	15222
921.697	15135
921.806	15165
921.916	15108
922.025	15005
922.134	14880
922.244	14883
922.353	15039
922.462	14868
922.571	14746
922.68	14632
922.789	14777
922.898	14644
923.007	14507
923.116	14556
923.224	14552
923.333	14511
923.442	14434
923.55	14377
923.659	14355
923.767	14389
923.876	14431
923.984	14488
924.092	14336
924.201	14282
924.309	14240
924.417	14332
924.525	14298
924.633	14164
924.741	14937
924.849	13959
924.956	14134
925.064	13997
925.172	13932
925.279	13928
925.387	14035
925.494	13868
925.602	14054
925.709	13967
925.816	13849
925.924	13871
926.031	13997
926.138	13833
926.245	13860
926.352	13795
926.459	13974
926.566	13932
926.673	13845
926.779	13704
926.886	13636
926.993	13563
927.099	13552
927.206	13441
927.312	13464
927.419	13468
927.525	13525
927.631	13468
927.737	13354
927.843	13304
927.95	13221
928.056	13301
928.162	13228
928.267	13400
928.373	13921
928.479	13335
928.585	13118
928.69	13187
928.796	13247
928.901	13095
929.007	12943
929.112	13004
929.218	13019
929.323	12943
929.428	13000
929.533	13004
929.638	12901
929.743	12954
929.848	12935
929.953	12916
930.058	12760
930.163	12650
930.267	12665
930.372	12852
930.477	12658
930.581	12852
930.685	12642
930.79	12521
930.894	12593
930.998	12513
931.103	12631
931.207	12323
931.311	12140
931.415	12148
931.519	11847
931.623	11840
