Data from test_V78500241_383.txt Node
Date: Fri Mar 25 15:44:27 CST 2022
User: usil
Spectrometer: V785-0024
Trigger mode: 0
Integration Time (sec): 4.000000E-1
Scans to average: 1
Nonlinearity correction enabled: false
Boxcar width: 0
Storing dark spectrum: false
XAxis mode: Wavelengths
Number of Pixels in Spectrum: 1024
>>>>>Begin Spectral Data<<<<<
801.071	29497
801.214	29478
801.356	29322
801.499	29318
801.641	29117
801.783	29318
801.926	29280
802.068	29143
802.211	29079
802.353	29037
802.496	28858
802.638	28831
802.78	28927
802.923	28828
803.065	28767
803.208	28759
803.35	28828
803.492	29003
803.635	29018
803.777	28843
803.919	29037
804.061	29421
804.204	29044
804.346	29071
804.488	28881
804.63	29029
804.773	29075
804.915	28972
805.057	29174
805.199	29052
805.341	29102
805.483	29022
805.626	29044
805.768	29067
805.91	29162
806.052	29109
806.194	28961
806.336	29345
806.478	29200
806.62	29204
806.762	29147
806.904	29360
807.046	29657
807.188	29646
807.33	29577
807.472	29608
807.614	29410
807.756	29387
807.898	29501
808.04	29395
808.182	29410
808.324	29360
808.465	29372
808.607	29646
808.749	29665
808.891	29969
809.033	29916
809.174	29961
809.316	29824
809.458	29851
809.6	29726
809.741	29878
809.883	29760
810.025	30117
810.166	30087
810.308	30197
810.45	30133
810.591	30068
810.733	30026
810.875	29703
811.016	29703
811.158	29726
811.299	29977
811.441	29977
811.582	30011
811.724	29821
811.865	29752
812.007	29733
812.148	29752
812.29	29923
812.431	30083
812.573	30022
812.714	30235
812.855	30528
812.997	30467
813.138	30483
813.279	30429
813.421	30232
813.562	30270
813.703	30140
813.845	30030
813.986	29668
814.127	29547
814.268	29554
814.41	29562
814.551	29387
814.692	29604
814.833	29429
814.974	29467
815.115	29501
815.256	29337
815.397	29421
815.539	29406
815.68	29356
815.821	29113
815.962	29239
816.103	29216
816.244	29185
816.385	29056
816.526	29109
816.666	28801
816.807	28672
816.948	28938
817.089	28923
817.23	28850
817.371	28656
817.512	28687
817.653	28755
817.793	28736
817.934	28702
818.075	28759
818.216	28797
818.356	28702
818.497	28554
818.638	28443
818.778	28523
818.919	28436
819.06	28508
819.2	28615
819.341	28607
819.481	28721
819.622	28755
819.762	28984
819.903	29025
820.043	29064
820.184	28668
820.324	28873
820.465	28908
820.605	28877
820.746	28816
820.886	28675
821.026	28847
821.167	28759
821.307	28767
821.447	28748
821.588	28748
821.728	28653
821.868	28379
822.008	28242
822.149	28124
822.289	28166
822.429	28036
822.569	27903
822.709	27717
822.849	27591
822.99	27671
823.13	27720
823.27	27614
823.41	27313
823.55	27317
823.69	27660
823.83	27473
823.97	27443
824.11	27264
824.25	27325
824.389	27245
824.529	27138
824.669	27256
824.809	27336
824.949	27431
825.089	27443
825.228	27332
825.368	27131
825.508	27074
825.648	27150
825.787	27020
825.927	27321
826.067	27089
826.206	27150
826.346	27119
826.485	27169
826.625	27135
826.765	27176
826.904	27302
827.044	26834
827.183	26899
827.323	26765
827.462	26842
827.601	26868
827.741	26769
827.88	26842
828.02	26648
828.159	26777
828.298	26765
828.437	26956
828.577	26716
828.716	27036
828.855	26659
828.994	26530
829.134	26606
829.273	26678
829.412	26469
829.551	26271
829.69	26427
829.829	26541
829.968	26423
830.107	26712
830.246	26492
830.385	26461
830.524	26328
830.663	26263
830.802	26187
830.941	26031
831.08	25966
831.219	26206
831.357	26180
831.496	26343
831.635	26054
831.774	25917
831.913	25772
832.051	25868
832.19	25727
832.329	25845
832.467	25822
832.606	25655
832.744	25590
832.883	25742
833.022	25605
833.16	25658
833.299	25715
833.437	25761
833.576	25894
833.714	25734
833.852	25681
833.991	25818
834.129	25947
834.267	25715
834.406	25662
834.544	25788
834.682	25586
834.821	25609
834.959	25852
835.097	25620
835.235	25651
835.373	25807
835.511	25715
835.65	25472
835.788	25499
835.926	25434
836.064	25289
836.202	25453
836.34	25537
836.478	25552
836.615	25457
836.753	25533
836.891	25601
837.029	25499
837.167	25502
837.305	25445
837.443	25331
837.58	25453
837.718	25251
837.856	25308
837.993	25244
838.131	25198
838.269	25190
838.406	25297
838.544	25126
838.681	25057
838.819	25069
838.956	24844
839.094	24913
839.231	24783
839.369	24890
839.506	25228
839.643	25050
839.781	24840
839.918	24684
840.055	24772
840.193	24837
840.33	24700
840.467	24772
840.604	24521
840.742	24992
840.879	24658
841.016	24707
841.153	24422
841.29	24639
841.427	24589
841.564	24711
841.701	24741
841.838	24540
841.975	24719
842.112	24525
842.249	24426
842.385	24369
842.522	24627
842.659	24429
842.796	24289
842.933	24369
843.069	24350
843.206	24311
843.343	24346
843.479	24323
843.616	24369
843.752	24133
843.889	24197
844.025	24270
844.162	24106
844.298	24239
844.435	24190
844.571	24057
844.708	24095
844.844	24277
844.98	24235
845.117	24053
845.253	24026
845.389	23988
845.525	23935
845.661	23996
845.798	23771
845.934	23942
846.07	23771
846.206	23813
846.342	23984
846.478	23836
846.614	23619
846.75	23505
846.886	23551
847.022	23668
847.158	23505
847.294	23516
847.429	23627
847.565	23493
847.701	23745
847.837	23410
847.972	23292
848.108	23349
848.244	23269
848.379	23162
848.515	23060
848.65	23105
848.786	23174
848.921	23216
849.057	23147
849.192	23140
849.328	23071
849.463	23181
849.598	23090
849.734	22915
849.869	23006
850.004	22915
850.14	22934
850.275	22930
850.41	22786
850.545	22862
850.68	22801
850.815	22824
850.95	22752
851.085	22995
851.22	22927
851.355	22980
851.49	22847
851.625	22793
851.76	22889
851.895	22664
852.03	22801
852.165	22858
852.299	22831
852.434	22896
852.569	22923
852.703	22869
852.838	22911
852.973	22949
853.107	23064
853.242	22736
853.376	22546
853.511	22573
853.645	22615
853.78	22729
853.914	22694
854.048	22538
854.183	22607
854.317	22672
854.451	22850
854.585	22721
854.72	22733
854.854	22596
854.988	22664
855.122	22759
855.256	22474
855.39	22550
855.524	22664
855.658	22626
855.792	22557
855.926	22645
856.06	22645
856.194	22809
856.327	22512
856.461	22546
856.595	22645
856.729	22653
856.862	22736
856.996	22710
857.13	22645
857.263	22767
857.397	22683
857.53	22573
857.664	22717
857.797	22748
857.931	22759
858.064	22694
858.197	22786
858.331	22584
858.464	22653
858.597	22481
858.731	22512
858.864	22535
858.997	22630
859.13	22565
859.263	22607
859.396	22679
859.529	22611
859.662	22512
859.795	22565
859.928	22713
860.061	22748
860.194	22923
860.327	22660
860.46	22637
860.592	22588
860.725	22767
860.858	22675
860.99	22675
861.123	22546
861.256	22504
861.388	22535
861.521	23208
861.653	22421
861.786	22276
861.918	22360
862.05	22497
862.183	22538
862.315	22519
862.447	22626
862.58	22565
862.712	22344
862.844	22325
862.976	22440
863.108	22432
863.24	22824
863.372	22234
863.504	22253
863.636	22318
863.768	22333
863.9	22303
864.032	22196
864.164	22215
864.296	22299
864.428	22405
864.559	22409
864.691	22432
864.823	22299
864.954	22306
865.086	22325
865.217	22059
865.349	22177
865.48	22173
865.612	22147
865.743	22322
865.875	22181
866.006	22112
866.137	22090
866.269	22131
866.4	22204
866.531	22211
866.662	21991
866.793	22032
866.924	22010
867.055	21956
867.186	22029
867.317	21975
867.448	22006
867.579	22139
867.71	21907
867.841	22086
867.972	21968
868.103	22162
868.233	22219
868.364	22048
868.495	22166
868.625	22303
868.756	22523
868.886	22143
869.017	22303
869.147	22272
869.278	22371
869.408	22352
869.539	22234
869.669	22413
869.799	22375
869.929	22417
870.06	22390
870.19	22588
870.32	22645
870.45	22694
870.58	22721
870.71	22736
870.84	22850
870.97	22710
871.1	22782
871.23	22869
871.36	22972
871.489	22733
871.619	22915
871.749	22877
871.879	22934
872.008	23064
872.138	22968
872.267	22896
872.397	22820
872.526	22717
872.656	22843
872.785	22771
872.915	22812
873.044	23010
873.173	22885
873.303	22885
873.432	22976
873.561	23044
873.69	22908
873.819	22843
873.948	23056
874.077	22904
874.206	22908
874.335	22911
874.464	22995
874.593	23208
874.722	23197
874.851	23109
874.979	23227
875.108	23193
875.237	23223
875.365	23041
875.494	23003
875.623	23296
875.751	23014
875.88	23105
876.008	23166
876.136	23311
876.265	23512
876.393	23714
876.521	23634
876.65	23585
876.778	23512
876.906	23520
877.034	23459
877.162	23436
877.29	23474
877.418	23452
877.546	23444
877.674	23558
877.802	23406
877.93	23467
878.058	23337
878.185	23280
878.313	23493
878.441	23410
878.568	23334
878.696	23398
878.824	23467
878.951	23520
879.079	23809
879.206	23802
879.333	23619
879.461	23512
879.588	23570
879.715	23729
879.842	23703
879.97	23543
880.097	23208
880.224	23166
880.351	23292
880.478	23280
880.605	23349
880.732	23254
880.859	23531
880.986	23239
881.112	23341
881.239	23124
881.366	22999
881.493	22843
881.619	22850
881.746	22904
881.872	22904
881.999	22843
882.125	22915
882.252	22980
882.378	22759
882.505	22930
882.631	22786
882.757	22561
882.883	22691
883.01	22546
883.136	22538
883.262	22421
883.388	22478
883.514	22538
883.64	22519
883.766	22447
883.892	22268
884.018	22344
884.143	22569
884.269	22546
884.395	22162
884.52	22242
884.646	22093
884.772	22025
884.897	22143
885.023	22154
885.148	22249
885.274	22318
885.399	22310
885.524	22048
885.65	22242
885.775	22124
885.9	22181
886.025	22181
886.15	22188
886.275	22196
886.4	21991
886.525	22021
886.65	22010
886.775	22090
886.9	22246
887.025	22318
887.149	22166
887.274	21880
887.399	21998
887.523	21857
887.648	21956
887.773	21857
887.897	21979
888.021	21884
888.146	21850
888.27	21987
888.395	21918
888.519	21785
888.643	21983
888.767	21953
888.891	21869
889.015	21800
889.139	21785
889.263	21625
889.387	21865
889.511	21880
889.635	21793
889.759	21641
889.883	21759
890.006	21747
890.13	21663
890.254	21717
890.377	21587
890.501	21367
890.624	21393
890.748	21435
890.871	21355
890.995	21161
891.118	21116
891.241	21310
891.364	21214
891.488	21332
891.611	21154
891.734	21294
891.857	21363
891.98	21157
892.103	21195
892.226	21241
892.349	21203
892.471	21039
892.594	21154
892.717	21203
892.839	21237
892.962	21199
893.085	21195
893.207	21058
893.33	21017
893.452	21070
893.575	21173
893.697	21116
893.819	21291
893.941	21348
894.064	21287
894.186	21058
894.308	21055
894.43	21245
894.552	21378
894.674	21279
894.796	20876
894.918	21096
895.04	20960
895.161	21142
895.283	21211
895.405	21074
895.526	21055
895.648	21081
895.769	21142
895.891	21138
896.012	21188
896.134	21093
896.255	21218
896.376	20979
896.498	21142
896.619	21104
896.74	21093
896.861	21233
896.982	21469
897.103	21534
897.224	21408
897.345	21230
897.466	21355
897.587	21294
897.708	21306
897.828	21348
897.949	21287
898.07	21211
898.19	21310
898.311	21412
898.431	21214
898.552	21279
898.672	21378
898.792	21214
898.913	21233
899.033	21150
899.153	21089
899.273	20994
899.393	21074
899.513	20971
899.633	21058
899.753	20952
899.873	20906
899.993	21184
900.113	21066
900.232	21039
900.352	21032
900.472	20815
900.591	20754
900.711	20746
900.83	20655
900.95	20921
901.069	20773
901.189	20689
901.308	20492
901.427	20305
901.546	20214
901.665	20450
901.784	20305
901.904	20142
902.023	20161
902.141	19917
902.26	19894
902.379	20005
902.498	19883
902.617	19864
902.735	19818
902.854	19845
902.973	19750
903.091	19518
903.21	19480
903.328	19514
903.446	19358
903.565	19301
903.683	19403
903.801	19171
903.919	19255
904.038	19206
904.156	19061
904.274	19099
904.392	18886
904.51	18996
904.627	18962
904.745	19133
904.863	19053
904.981	18901
905.098	18726
905.216	18669
905.334	18837
905.451	18707
905.569	18711
905.686	18738
905.803	18665
905.921	18483
906.038	18532
906.155	18467
906.272	18410
906.389	18407
906.506	18243
906.623	18292
906.74	18334
906.857	18026
906.974	18190
907.091	18361
907.208	18357
907.324	18273
907.441	18060
907.557	17977
907.674	17988
907.79	17802
907.907	17866
908.023	17961
908.139	17931
908.256	17786
908.372	17790
908.488	17745
908.604	17672
908.72	17638
908.836	17680
908.952	17668
909.068	17657
909.184	17608
909.3	17718
909.415	17668
909.531	17630
909.647	17364
909.762	17383
909.878	17337
909.993	17250
910.108	17391
910.224	17265
910.339	17303
910.454	17254
910.57	17181
910.685	17037
910.8	17436
910.915	17254
911.03	17048
911.145	17006
911.259	16908
911.374	16847
911.489	16774
911.604	16634
911.718	16698
911.833	16641
911.947	16569
912.062	16478
912.176	16683
912.291	16630
912.405	16611
912.519	16771
912.633	16820
912.748	16622
912.862	16565
912.976	16531
913.09	16352
913.204	16466
913.318	16352
913.431	16455
913.545	16462
913.659	16504
913.772	16379
913.886	16234
914	16265
914.113	16303
914.226	16402
914.34	16257
914.453	16097
914.566	16337
914.68	16105
914.793	16040
914.906	15873
915.019	15789
915.132	15865
915.245	15823
915.358	15732
915.47	15816
915.583	15903
915.696	15755
915.809	15892
915.921	15918
916.034	15720
916.146	15625
916.259	15751
916.371	15808
916.483	15679
916.595	15587
916.708	15663
916.82	15599
916.932	15515
917.044	15553
917.156	15496
917.268	15435
917.38	15412
917.491	15412
917.603	15393
917.715	15477
917.826	15408
917.938	15218
918.049	15252
918.161	15260
918.272	15374
918.384	15488
918.495	15329
918.606	15203
918.717	15081
918.828	15173
918.939	15222
919.05	15024
919.161	15135
919.272	14967
919.383	15001
919.494	15222
919.604	15302
919.715	15085
919.826	15028
919.936	15180
920.047	15241
920.157	15173
920.267	15272
920.378	15108
920.488	15058
920.598	15237
920.708	15424
920.818	15169
920.928	15233
921.038	15256
921.148	15382
921.258	15039
921.368	14914
921.477	14910
921.587	14826
921.697	14667
921.806	14921
921.916	14670
922.025	14610
922.134	14355
922.244	14415
922.353	14446
922.462	14381
922.571	14328
922.68	14123
922.789	14008
922.898	14111
923.007	13951
923.116	14149
923.224	14077
923.333	14058
923.442	13963
923.55	13936
923.659	13826
923.767	13978
923.876	13712
923.984	13887
924.092	13830
924.201	13860
924.309	13780
924.417	13822
924.525	13727
924.633	13685
924.741	14579
924.849	13460
924.956	13620
925.064	13506
925.172	13453
925.279	13480
925.387	13521
925.494	13400
925.602	13620
925.709	13468
925.816	13327
925.924	13464
926.031	13506
926.138	13426
926.245	13422
926.352	13331
926.459	13422
926.566	13426
926.673	13308
926.779	13274
926.886	13194
926.993	13080
927.099	13000
927.206	12981
927.312	12935
927.419	13053
927.525	13088
927.631	13050
927.737	12817
927.843	12798
927.95	12665
928.056	12882
928.162	12795
928.267	12840
928.373	13464
928.479	12886
928.585	12589
928.69	12791
928.796	12806
928.901	12688
929.007	12502
929.112	12673
929.218	12604
929.323	12502
929.428	12502
929.533	12692
929.638	12441
929.743	12452
929.848	12517
929.953	12521
930.058	12285
930.163	12285
930.267	12190
930.372	12391
930.477	12159
930.581	12350
930.685	12213
930.79	12076
930.894	12072
930.998	12083
931.103	12163
931.207	11813
931.311	11805
931.415	11592
931.519	11459
931.623	11440
