Data from test_V78500241_3310.txt Node
Date: Fri Mar 25 16:04:43 CST 2022
User: usil
Spectrometer: V785-0024
Trigger mode: 0
Integration Time (sec): 4.000000E-1
Scans to average: 1
Nonlinearity correction enabled: false
Boxcar width: 0
Storing dark spectrum: false
XAxis mode: Wavelengths
Number of Pixels in Spectrum: 1024
>>>>>Begin Spectral Data<<<<<
801.071	28790
801.214	28854
801.356	28470
801.499	28363
801.641	28367
801.783	28333
801.926	28325
802.068	28329
802.211	28166
802.353	28261
802.496	27880
802.638	28032
802.78	27873
802.923	27869
803.065	28032
803.208	27991
803.35	28051
803.492	28207
803.635	28314
803.777	28120
803.919	28405
804.061	28603
804.204	28352
804.346	28215
804.488	28131
804.63	28215
804.773	28310
804.915	28181
805.057	28459
805.199	28337
805.341	28325
805.483	28554
805.626	28424
805.768	28276
805.91	28386
806.052	28462
806.194	28390
806.336	28557
806.478	28436
806.62	28447
806.762	28550
806.904	28717
807.046	28953
807.188	28908
807.33	28908
807.472	28991
807.614	28850
807.756	28771
807.898	28805
808.04	28626
808.182	28755
808.324	28820
808.465	28915
808.607	29105
808.749	29117
808.891	29052
809.033	29360
809.174	29273
809.316	29048
809.458	29159
809.6	29208
809.741	29132
809.883	29375
810.025	29551
810.166	29516
810.308	29493
810.45	29288
810.591	29318
810.733	29292
810.875	29303
811.016	29174
811.158	29090
811.299	29258
811.441	29395
811.582	29242
811.724	29162
811.865	29094
812.007	29041
812.148	29258
812.29	29284
812.431	29292
812.573	29520
812.714	29493
812.855	29684
812.997	29596
813.138	29885
813.279	29684
813.421	29566
813.562	29444
813.703	29478
813.845	29573
813.986	29242
814.127	28881
814.268	28835
814.41	28908
814.551	28900
814.692	29064
814.833	28801
814.974	28683
815.115	28896
815.256	28816
815.397	28516
815.539	28767
815.68	28630
815.821	28527
815.962	28717
816.103	28634
816.244	28546
816.385	28550
816.526	28443
816.666	28238
816.807	28112
816.948	28382
817.089	28470
817.23	28242
817.371	28116
817.512	28207
817.653	28112
817.793	28097
817.934	28078
818.075	28291
818.216	28154
818.356	28101
818.497	28086
818.638	28051
818.778	27911
818.919	27964
819.06	28135
819.2	28029
819.341	28139
819.481	28204
819.622	28322
819.762	28455
819.903	28443
820.043	28356
820.184	28344
820.324	28352
820.465	28405
820.605	28352
820.746	28238
820.886	28299
821.026	28246
821.167	28371
821.307	28341
821.447	28162
821.588	28101
821.728	27987
821.868	27854
822.008	27572
822.149	27724
822.289	27633
822.429	27435
822.569	27408
822.709	27336
822.849	27188
822.99	27283
823.13	27066
823.27	27096
823.41	26857
823.55	26910
823.69	26982
823.83	26883
823.97	26952
824.11	26823
824.25	26819
824.389	26834
824.529	26861
824.669	26815
824.809	26918
824.949	26838
825.089	26990
825.228	26891
825.368	26632
825.508	26804
825.648	26667
825.787	26834
825.927	26746
826.067	26655
826.206	26606
826.346	26712
826.485	26826
826.625	26606
826.765	26895
826.904	26674
827.044	26552
827.183	26564
827.323	26389
827.462	26457
827.601	26374
827.741	26404
827.88	26480
828.02	26427
828.159	26377
828.298	26530
828.437	26385
828.577	26415
828.716	26423
828.855	26404
828.994	26149
829.134	26138
829.273	26210
829.412	26115
829.551	26138
829.69	26142
829.829	26027
829.968	26161
830.107	26069
830.246	26122
830.385	26035
830.524	26020
830.663	26020
830.802	25795
830.941	25750
831.08	25715
831.219	25822
831.357	25845
831.496	25993
831.635	25788
831.774	25632
831.913	25620
832.051	25559
832.19	25670
832.329	25487
832.467	25434
832.606	25358
832.744	25487
832.883	25369
833.022	25335
833.16	25441
833.299	25358
833.437	25350
833.576	25422
833.714	25540
833.852	25533
833.991	25563
834.129	25601
834.267	25537
834.406	25445
834.544	25479
834.682	25259
834.821	25445
834.959	25639
835.097	25365
835.235	25464
835.373	25453
835.511	25411
835.65	25381
835.788	25316
835.926	25114
836.064	25027
836.202	25103
836.34	25213
836.478	25430
836.615	25213
836.753	25289
836.891	25308
837.029	25388
837.167	25350
837.305	25095
837.443	25145
837.58	25129
837.718	25304
837.856	25297
837.993	24943
838.131	25156
838.269	24970
838.406	25012
838.544	24932
838.681	24833
838.819	24798
838.956	24551
839.094	24570
839.231	24608
839.369	24760
839.506	24878
839.643	24738
839.781	24559
839.918	24601
840.055	24597
840.193	24521
840.33	24475
840.467	24391
840.604	24414
840.742	24722
840.879	24350
841.016	24486
841.153	24376
841.29	24597
841.427	24452
841.564	24403
841.701	24384
841.838	24464
841.975	24330
842.112	24376
842.249	24182
842.385	24235
842.522	24555
842.659	24365
842.796	24292
842.933	24365
843.069	24136
843.206	24064
843.343	24376
843.479	24125
843.616	24194
843.752	24133
843.889	24022
844.025	24144
844.162	23984
844.298	24117
844.435	23939
844.571	24018
844.708	24072
844.844	24106
844.98	24091
845.117	24121
845.253	23954
845.389	23935
845.525	23920
845.661	23870
845.798	23783
845.934	23745
846.07	23866
846.206	23805
846.342	23756
846.478	23832
846.614	23528
846.75	23364
846.886	23455
847.022	23611
847.158	23547
847.294	23482
847.429	23341
847.565	23372
847.701	23691
847.837	23402
847.972	23071
848.108	23193
848.244	23227
848.379	23212
848.515	23113
848.65	23048
848.786	22965
848.921	22980
849.057	23147
849.192	23121
849.328	23102
849.463	23060
849.598	23102
849.734	23075
849.869	22961
850.004	22793
850.14	22767
850.275	22862
850.41	22702
850.545	22828
850.68	22778
850.815	22885
850.95	22839
851.085	22961
851.22	22953
851.355	22843
851.49	22748
851.625	22835
851.76	22725
851.895	22649
852.03	22835
852.165	22828
852.299	22736
852.434	22892
852.569	22786
852.703	22774
852.838	22835
852.973	22900
853.107	22831
853.242	22748
853.376	22683
853.511	22493
853.645	22637
853.78	22615
853.914	22649
854.048	22607
854.183	22649
854.317	22637
854.451	22892
854.585	22664
854.72	22687
854.854	22687
854.988	22580
855.122	22618
855.256	22599
855.39	22702
855.524	22554
855.658	22679
855.792	22588
855.926	22656
856.06	22683
856.194	22740
856.327	22474
856.461	22561
856.595	22607
856.729	22584
856.862	22660
856.996	22653
857.13	22683
857.263	22660
857.397	22740
857.53	22660
857.664	22656
857.797	22694
857.931	22729
858.064	22607
858.197	22767
858.331	22649
858.464	22535
858.597	22592
858.731	22626
858.864	22599
858.997	22637
859.13	22615
859.263	22580
859.396	22702
859.529	22569
859.662	22618
859.795	22565
859.928	22675
860.061	22790
860.194	22892
860.327	22656
860.46	22755
860.592	22717
860.725	22706
860.858	22687
860.99	22717
861.123	22626
861.256	22592
861.388	22615
861.521	23280
861.653	22409
861.786	22542
861.918	22470
862.05	22527
862.183	22618
862.315	22573
862.447	22630
862.58	22493
862.712	22390
862.844	22204
862.976	22474
863.108	22512
863.24	22774
863.372	22276
863.504	22329
863.636	22295
863.768	22314
863.9	22314
864.032	22265
864.164	22246
864.296	22303
864.428	22519
864.559	22421
864.691	22421
864.823	22356
864.954	22238
865.086	22360
865.217	22310
865.349	22215
865.48	22154
865.612	22147
865.743	22272
865.875	22322
866.006	22246
866.137	22143
866.269	22162
866.4	22185
866.531	22135
866.662	22131
866.793	22025
866.924	22169
867.055	22112
867.186	22074
867.317	22044
867.448	22021
867.579	22150
867.71	22070
867.841	22128
867.972	22105
868.103	22139
868.233	22082
868.364	22124
868.495	22265
868.625	22325
868.756	22523
868.886	22291
869.017	22257
869.147	22546
869.278	22432
869.408	22310
869.539	22375
869.669	22447
869.799	22348
869.929	22474
870.06	22447
870.19	22786
870.32	22626
870.45	22824
870.58	22805
870.71	22930
870.84	22904
870.97	22809
871.1	22850
871.23	22915
871.36	22938
871.489	22793
871.619	22957
871.749	22934
871.879	23014
872.008	23166
872.138	22987
872.267	22976
872.397	22976
872.526	22824
872.656	22793
872.785	22778
872.915	22980
873.044	23033
873.173	22999
873.303	23071
873.432	23071
873.561	23265
873.69	23079
873.819	23037
873.948	23075
874.077	22957
874.206	22923
874.335	23121
874.464	23094
874.593	23223
874.722	23159
874.851	23311
874.979	23170
875.108	23334
875.237	23147
875.365	23174
875.494	23162
875.623	23109
875.751	23147
875.88	23223
876.008	23307
876.136	23425
876.265	23554
876.393	23786
876.521	23707
876.65	23600
876.778	23531
876.906	23699
877.034	23387
877.162	23535
877.29	23589
877.418	23501
877.546	23623
877.674	23490
877.802	23414
877.93	23577
878.058	23535
878.185	23417
878.313	23486
878.441	23535
878.568	23356
878.696	23376
878.824	23490
878.951	23642
879.079	23745
879.206	23904
879.333	23859
879.461	23429
879.588	23608
879.715	23676
879.842	23699
879.97	23577
880.097	23322
880.224	23383
880.351	23440
880.478	23398
880.605	23444
880.732	23349
880.859	23680
880.986	23383
881.112	23391
881.239	23254
881.366	23200
881.493	23044
881.619	22889
881.746	22923
881.872	22965
881.999	22869
882.125	22949
882.252	23010
882.378	22908
882.505	23056
882.631	22812
882.757	22592
882.883	22733
883.01	22664
883.136	22615
883.262	22531
883.388	22424
883.514	22607
883.64	22546
883.766	22489
883.892	22413
884.018	22398
884.143	22493
884.269	22634
884.395	22280
884.52	22166
884.646	22295
884.772	22204
884.897	22310
885.023	22181
885.148	22246
885.274	22421
885.399	22333
885.524	22325
885.65	22265
885.775	22303
885.9	22230
886.025	22246
886.15	22299
886.275	22169
886.4	22055
886.525	22303
886.65	22162
886.775	22268
886.9	22230
887.025	22478
887.149	22230
887.274	22124
887.399	21987
887.523	22097
887.648	21884
887.773	21842
887.897	22074
888.021	22063
888.146	21922
888.27	22074
888.395	22097
888.519	22040
888.643	21915
888.767	22070
888.891	22090
889.015	21755
889.139	21892
889.263	21762
889.387	21888
889.511	21956
889.635	22017
889.759	21747
889.883	21827
890.006	21926
890.13	21827
890.254	21778
890.377	21652
890.501	21515
890.624	21663
890.748	21523
890.871	21443
890.995	21416
891.118	21306
891.241	21504
891.364	21340
891.488	21488
891.611	21306
891.734	21393
891.857	21393
891.98	21408
892.103	21325
892.226	21466
892.349	21317
892.471	21112
892.594	21279
892.717	21294
892.839	21260
892.962	21317
893.085	21447
893.207	21321
893.33	21165
893.452	21214
893.575	21291
893.697	21165
893.819	21462
893.941	21348
894.064	21420
894.186	21074
894.308	21260
894.43	21260
894.552	21428
894.674	21374
894.796	21165
894.918	21123
895.04	21138
895.161	21237
895.283	21180
895.405	21226
895.526	21233
895.648	21310
895.769	21268
895.891	21214
896.012	21275
896.134	21272
896.255	21294
896.376	21355
896.498	21199
896.619	21306
896.74	21222
896.861	21302
896.982	21435
897.103	21629
897.224	21466
897.345	21401
897.466	21370
897.587	21412
897.708	21530
897.828	21435
897.949	21245
898.07	21359
898.19	21329
898.311	21447
898.431	21325
898.552	21355
898.672	21526
898.792	21450
898.913	21382
899.033	21252
899.153	21218
899.273	21062
899.393	21146
899.513	21150
899.633	21112
899.753	21138
899.873	21096
899.993	21241
900.113	21009
900.232	21112
900.352	21020
900.472	20925
900.591	20849
900.711	21005
900.83	20830
900.95	21017
901.069	20982
901.189	20849
901.308	20613
901.427	20537
901.546	20552
901.665	20438
901.784	20465
901.904	20336
902.023	20305
902.141	20043
902.26	20126
902.379	20122
902.498	19982
902.617	19776
902.735	19940
902.854	19856
902.973	19826
903.091	19696
903.21	19616
903.328	19651
903.446	19510
903.565	19499
903.683	19365
903.801	19308
903.919	19480
904.038	19415
904.156	19152
904.274	19259
904.392	19183
904.51	19129
904.627	19190
904.745	19240
904.863	19301
904.981	18916
905.098	18814
905.216	18973
905.334	18901
905.451	18924
905.569	18760
905.686	18894
905.803	18852
905.921	18722
906.038	18715
906.155	18696
906.272	18677
906.389	18563
906.506	18483
906.623	18353
906.74	18365
906.857	18197
906.974	18270
907.091	18350
907.208	18486
907.324	18452
907.441	18239
907.557	18201
907.674	18213
907.79	18045
907.907	18083
908.023	18098
908.139	18060
908.256	18003
908.372	17961
908.488	17855
908.604	17870
908.72	17760
908.836	17809
908.952	17790
909.068	17836
909.184	17950
909.3	17752
909.415	17866
909.531	17718
909.647	17634
909.762	17547
909.878	17570
909.993	17410
910.108	17414
910.224	17452
910.339	17493
910.454	17349
910.57	17204
910.685	17181
910.8	17604
910.915	17444
911.03	17303
911.145	17060
911.259	17041
911.374	17067
911.489	16911
911.604	16953
911.718	16824
911.833	16740
911.947	16771
912.062	16645
912.176	16782
912.291	16725
912.405	16763
912.519	16995
912.633	17022
912.748	16774
912.862	16767
912.976	16649
913.09	16519
913.204	16535
913.318	16535
913.431	16691
913.545	16645
913.659	16740
913.772	16531
913.886	16405
914	16394
914.113	16409
914.226	16497
914.34	16466
914.453	16341
914.566	16421
914.68	16322
914.793	16352
914.906	16071
915.019	16013
915.132	15915
915.245	15945
915.358	16010
915.47	15892
915.583	15941
915.696	16002
915.809	16086
915.921	16082
916.034	15918
916.146	15994
916.259	15846
916.371	15945
916.483	15804
916.595	15846
916.708	15854
916.82	15857
916.932	15713
917.044	15819
917.156	15789
917.268	15614
917.38	15515
917.491	15690
917.603	15523
917.715	15694
917.826	15778
917.938	15538
918.049	15420
918.161	15511
918.272	15656
918.384	15652
918.495	15549
918.606	15420
918.717	15431
918.828	15329
918.939	15386
919.05	15260
919.161	15351
919.272	15089
919.383	15226
919.494	15344
919.604	15496
919.715	15462
919.826	15256
919.936	15214
920.047	15405
920.157	15332
920.267	15428
920.378	15401
920.488	15317
920.598	15500
920.708	15488
920.818	15416
920.928	15401
921.038	15625
921.148	15538
921.258	15241
921.368	15077
921.477	15028
921.587	15024
921.697	14887
921.806	15066
921.916	14883
922.025	14663
922.134	14686
922.244	14610
922.353	14712
922.462	14560
922.571	14495
922.68	14343
922.789	14294
922.898	14275
923.007	14267
923.116	14286
923.224	14153
923.333	14225
923.442	14058
923.55	14088
923.659	14145
923.767	14168
923.876	14020
923.984	14180
924.092	13970
924.201	14062
924.309	14081
924.417	14008
924.525	13917
924.633	13913
924.741	14811
924.849	13727
924.956	13795
925.064	13677
925.172	13582
925.279	13666
925.387	13715
925.494	13613
925.602	13818
925.709	13685
925.816	13525
925.924	13719
926.031	13616
926.138	13529
926.245	13567
926.352	13540
926.459	13605
926.566	13655
926.673	13430
926.779	13343
926.886	13301
926.993	13316
927.099	13145
927.206	13217
927.312	13149
927.419	13244
927.525	13190
927.631	13187
927.737	13095
927.843	13031
927.95	12981
928.056	13015
928.162	12977
928.267	13107
928.373	13628
928.479	13046
928.585	12863
928.69	12932
928.796	13050
928.901	12867
929.007	12791
929.112	12932
929.218	12741
929.323	12703
929.428	12741
929.533	12795
929.638	12608
929.743	12738
929.848	12673
929.953	12741
930.058	12483
930.163	12376
930.267	12361
930.372	12566
930.477	12372
930.581	12650
930.685	12395
930.79	12311
930.894	12273
930.998	12190
931.103	12350
931.207	11931
931.311	11908
931.415	11855
931.519	11691
931.623	11638
