Data from test_V78500241_2399.txt Node
Date: Fri Mar 25 15:58:25 CST 2022
User: usil
Spectrometer: V785-0024
Trigger mode: 0
Integration Time (sec): 4.000000E-1
Scans to average: 1
Nonlinearity correction enabled: false
Boxcar width: 0
Storing dark spectrum: false
XAxis mode: Wavelengths
Number of Pixels in Spectrum: 1024
>>>>>Begin Spectral Data<<<<<
801.071	28991
801.214	28816
801.356	28637
801.499	28546
801.641	28470
801.783	28573
801.926	28584
802.068	28462
802.211	28588
802.353	28401
802.496	28348
802.638	28265
802.78	28226
802.923	28109
803.065	28070
803.208	28166
803.35	28154
803.492	28268
803.635	28459
803.777	28287
803.919	28413
804.061	28801
804.204	28596
804.346	28405
804.488	28348
804.63	28512
804.773	28443
804.915	28329
805.057	28470
805.199	28516
805.341	28577
805.483	28645
805.626	28577
805.768	28535
805.91	28561
806.052	28577
806.194	28478
806.336	28622
806.478	28611
806.62	28580
806.762	28748
806.904	28968
807.046	29006
807.188	29022
807.33	29041
807.472	29086
807.614	29006
807.756	29166
807.898	28873
808.04	28843
808.182	28881
808.324	29037
808.465	29064
808.607	29018
808.749	29189
808.891	29288
809.033	29516
809.174	29288
809.316	29368
809.458	29265
809.6	29181
809.741	29372
809.883	29531
810.025	29547
810.166	29604
810.308	29535
810.45	29665
810.591	29448
810.733	29299
810.875	29318
811.016	29204
811.158	29235
811.299	29482
811.441	29501
811.582	29459
811.724	29349
811.865	29322
812.007	29349
812.148	29280
812.29	29277
812.431	29551
812.573	29691
812.714	29684
812.855	29836
812.997	29813
813.138	30022
813.279	29828
813.421	29950
813.562	29745
813.703	29589
813.845	29539
813.986	29318
814.127	29117
814.268	28904
814.41	29022
814.551	29109
814.692	29033
814.833	28995
814.974	28957
815.115	29041
815.256	28946
815.397	28980
815.539	28843
815.68	28995
815.821	28949
815.962	28866
816.103	28740
816.244	28835
816.385	28778
816.526	28569
816.666	28405
816.807	28268
816.948	28360
817.089	28375
817.23	28268
817.371	28238
817.512	28295
817.653	28287
817.793	28215
817.934	28360
818.075	28257
818.216	28329
818.356	28249
818.497	28303
818.638	27945
818.778	27979
818.919	28287
819.06	28185
819.2	28249
819.341	28352
819.481	28390
819.622	28565
819.762	28752
819.903	28565
820.043	28649
820.184	28398
820.324	28481
820.465	28596
820.605	28531
820.746	28500
820.886	28306
821.026	28337
821.167	28398
821.307	28500
821.447	28371
821.588	28173
821.728	28169
821.868	28002
822.008	27835
822.149	27846
822.289	27838
822.429	27519
822.569	27595
822.709	27496
822.849	27405
822.99	27256
823.13	27287
823.27	27252
823.41	27192
823.55	27108
823.69	27230
823.83	27291
823.97	27264
824.11	26872
824.25	27058
824.389	27070
824.529	27028
824.669	27020
824.809	27089
824.949	27146
825.089	27009
825.228	27154
825.368	26815
825.508	26887
825.648	26944
825.787	26918
825.927	26921
826.067	26963
826.206	26929
826.346	26967
826.485	27047
826.625	26956
826.765	26975
826.904	27001
827.044	26788
827.183	26613
827.323	26590
827.462	26712
827.601	26659
827.741	26754
827.88	26568
828.02	26552
828.159	26667
828.298	26590
828.437	26438
828.577	26541
828.716	26636
828.855	26537
828.994	26404
829.134	26191
829.273	26191
829.412	26202
829.551	26244
829.69	26229
829.829	26218
829.968	26393
830.107	26400
830.246	26267
830.385	26164
830.524	26107
830.663	26164
830.802	25989
830.941	25856
831.08	25940
831.219	25940
831.357	25925
831.496	26054
831.635	25909
831.774	25776
831.913	25928
832.051	25670
832.19	25624
832.329	25655
832.467	25586
832.606	25464
832.744	25586
832.883	25460
833.022	25502
833.16	25556
833.299	25533
833.437	25681
833.576	25662
833.714	25605
833.852	25727
833.991	25719
834.129	25662
834.267	25772
834.406	25563
834.544	25704
834.682	25449
834.821	25704
834.959	25868
835.097	25556
835.235	25662
835.373	25506
835.511	25666
835.65	25483
835.788	25559
835.926	25289
836.064	25304
836.202	25282
836.34	25388
836.478	25540
836.615	25308
836.753	25430
836.891	25476
837.029	25445
837.167	25369
837.305	25358
837.443	25308
837.58	25316
837.718	25358
837.856	25266
837.993	25209
838.131	25206
838.269	25095
838.406	25198
838.544	25122
838.681	24916
838.819	24814
838.956	24753
839.094	24745
839.231	24741
839.369	24916
839.506	25118
839.643	25099
839.781	24719
839.918	24745
840.055	24795
840.193	24696
840.33	24722
840.467	24642
840.604	24798
840.742	24928
840.879	24376
841.016	24585
841.153	24433
841.29	24627
841.427	24700
841.564	24521
841.701	24608
841.838	24544
841.975	24445
842.112	24437
842.249	24403
842.385	24452
842.522	24547
842.659	24311
842.796	24422
842.933	24357
843.069	24330
843.206	24281
843.343	24342
843.479	24308
843.616	24410
843.752	24129
843.889	24110
844.025	24190
844.162	24095
844.298	24270
844.435	24110
844.571	24057
844.708	24197
844.844	24292
844.98	24235
845.117	24216
845.253	24194
845.389	23961
845.525	24098
845.661	24003
845.798	23798
845.934	23923
846.07	23870
846.206	23977
846.342	24060
846.478	23726
846.614	23608
846.75	23467
846.886	23653
847.022	23668
847.158	23592
847.294	23562
847.429	23596
847.565	23543
847.701	23775
847.837	23395
847.972	23296
848.108	23410
848.244	23528
848.379	23117
848.515	23121
848.65	23200
848.786	23090
848.921	23258
849.057	23341
849.192	23292
849.328	23128
849.463	23261
849.598	23216
849.734	23117
849.869	23022
850.004	22987
850.14	22957
850.275	23022
850.41	22930
850.545	22835
850.68	22942
850.815	22915
850.95	22946
851.085	23033
851.22	23143
851.355	22999
851.49	22961
851.625	22847
851.76	22957
851.895	22885
852.03	22847
852.165	22831
852.299	23033
852.434	22999
852.569	23014
852.703	22946
852.838	22938
852.973	23132
853.107	22987
853.242	22987
853.376	22801
853.511	22664
853.645	22763
853.78	22812
853.914	22797
854.048	22748
854.183	22778
854.317	22771
854.451	22995
854.585	22782
854.72	22786
854.854	22797
854.988	22691
855.122	22744
855.256	22660
855.39	22645
855.524	22938
855.658	22645
855.792	22767
855.926	22729
856.06	22786
856.194	22862
856.327	22801
856.461	22664
856.595	22771
856.729	22710
856.862	22976
856.996	22858
857.13	22896
857.263	22942
857.397	22889
857.53	22725
857.664	22915
857.797	22759
857.931	22839
858.064	22786
858.197	22835
858.331	22869
858.464	22717
858.597	22630
858.731	22782
858.864	22668
858.997	22603
859.13	22790
859.263	22831
859.396	22854
859.529	22816
859.662	22736
859.795	22721
859.928	22759
860.061	22885
860.194	22946
860.327	22805
860.46	22854
860.592	22729
860.725	22942
860.858	22911
860.99	22801
861.123	22554
861.256	22748
861.388	22767
861.521	23505
861.653	22542
861.786	22470
861.918	22573
862.05	22516
862.183	22615
862.315	22603
862.447	22809
862.58	22850
862.712	22455
862.844	22497
862.976	22615
863.108	22607
863.24	22911
863.372	22341
863.504	22409
863.636	22455
863.768	22493
863.9	22360
864.032	22379
864.164	22344
864.296	22481
864.428	22569
864.559	22508
864.691	22550
864.823	22462
864.954	22360
865.086	22413
865.217	22367
865.349	22246
865.48	22348
865.612	22413
865.743	22443
865.875	22409
866.006	22348
866.137	22249
866.269	22215
866.4	22280
866.531	22265
866.662	22284
866.793	22154
866.924	22154
867.055	22268
867.186	22287
867.317	22242
867.448	22093
867.579	22067
867.71	22169
867.841	22192
867.972	22344
868.103	22318
868.233	22169
868.364	22223
868.495	22360
868.625	22481
868.756	22569
868.886	22489
869.017	22527
869.147	22599
869.278	22660
869.408	22546
869.539	22573
869.669	22523
869.799	22607
869.929	22592
870.06	22622
870.19	22736
870.32	22767
870.45	22828
870.58	22930
870.71	22896
870.84	23010
870.97	22904
871.1	22885
871.23	23121
871.36	23117
871.489	22946
871.619	23102
871.749	23090
871.879	23079
872.008	23105
872.138	23060
872.267	23105
872.397	22934
872.526	22896
872.656	22995
872.785	22908
872.915	23083
873.044	23060
873.173	23181
873.303	23067
873.432	23090
873.561	23185
873.69	23193
873.819	23132
873.948	23189
874.077	23067
874.206	23022
874.335	23155
874.464	23162
874.593	23364
874.722	23417
874.851	23307
874.979	23368
875.108	23322
875.237	23258
875.365	23254
875.494	23425
875.623	23337
875.751	23330
875.88	23273
876.008	23337
876.136	23516
876.265	23764
876.393	23790
876.521	23775
876.65	23775
876.778	23665
876.906	23623
877.034	23611
877.162	23649
877.29	23551
877.418	23649
877.546	23714
877.674	23592
877.802	23737
877.93	23786
878.058	23566
878.185	23417
878.313	23543
878.441	23608
878.568	23592
878.696	23585
878.824	23760
878.951	23840
879.079	23882
879.206	23817
879.333	23828
879.461	23665
879.588	23870
879.715	23748
879.842	23946
879.97	23646
880.097	23448
880.224	23562
880.351	23516
880.478	23478
880.605	23414
880.732	23509
880.859	23745
880.986	23471
881.112	23516
881.239	23258
881.366	23181
881.493	23223
881.619	23010
881.746	22927
881.872	23025
881.999	22938
882.125	22984
882.252	22995
882.378	22980
882.505	23185
882.631	22938
882.757	22778
882.883	22767
883.01	22736
883.136	22592
883.262	22607
883.388	22592
883.514	22839
883.64	22740
883.766	22687
883.892	22333
884.018	22580
884.143	22691
884.269	22824
884.395	22504
884.52	22386
884.646	22413
884.772	22246
884.897	22303
885.023	22360
885.148	22405
885.274	22322
885.399	22276
885.524	22314
885.65	22367
885.775	22306
885.9	22253
886.025	22516
886.15	22466
886.275	22207
886.4	22318
886.525	22234
886.65	22242
886.775	22276
886.9	22428
887.025	22462
887.149	22314
887.274	22185
887.399	22013
887.523	21987
887.648	21968
887.773	21979
887.897	22333
888.021	22173
888.146	21949
888.27	22196
888.395	22249
888.519	22211
888.643	22234
888.767	22188
888.891	22040
889.015	21873
889.139	21968
889.263	21907
889.387	22051
889.511	22078
889.635	22090
889.759	21873
889.883	21907
890.006	21835
890.13	21979
890.254	21907
890.377	21743
890.501	21656
890.624	21534
890.748	21610
890.871	21485
890.995	21507
891.118	21332
891.241	21481
891.364	21428
891.488	21534
891.611	21496
891.734	21408
891.857	21408
891.98	21477
892.103	21405
892.226	21462
892.349	21374
892.471	21291
892.594	21321
892.717	21405
892.839	21321
892.962	21348
893.085	21412
893.207	21279
893.33	21165
893.452	21287
893.575	21310
893.697	21386
893.819	21477
893.941	21538
894.064	21450
894.186	21382
894.308	21127
894.43	21496
894.552	21469
894.674	21523
894.796	21283
894.918	21321
895.04	21199
895.161	21355
895.283	21192
895.405	21123
895.526	21351
895.648	21317
895.769	21275
895.891	21272
896.012	21389
896.134	21302
896.255	21386
896.376	21329
896.498	21325
896.619	21336
896.74	21340
896.861	21298
896.982	21701
897.103	21599
897.224	21485
897.345	21473
897.466	21439
897.587	21545
897.708	21591
897.828	21526
897.949	21405
898.07	21317
898.19	21397
898.311	21447
898.431	21466
898.552	21481
898.672	21610
898.792	21561
898.913	21428
899.033	21382
899.153	21336
899.273	21112
899.393	21135
899.513	21336
899.633	21085
899.753	21230
899.873	21081
899.993	21287
900.113	21112
900.232	21203
900.352	21127
900.472	21047
900.591	21005
900.711	20960
900.83	21017
900.95	20994
901.069	21104
901.189	20826
901.308	20583
901.427	20457
901.546	20659
901.665	20465
901.784	20530
901.904	20389
902.023	20408
902.141	20005
902.26	20046
902.379	20157
902.498	20096
902.617	19909
902.735	20058
902.854	19955
902.973	19883
903.091	19803
903.21	19704
903.328	19765
903.446	19548
903.565	19491
903.683	19472
903.801	19449
903.919	19354
904.038	19396
904.156	19263
904.274	19297
904.392	19206
904.51	19187
904.627	19247
904.745	19118
904.863	19221
904.981	18954
905.098	19015
905.216	18856
905.334	18840
905.451	18920
905.569	18802
905.686	18954
905.803	18810
905.921	18608
906.038	18806
906.155	18772
906.272	18661
906.389	18604
906.506	18555
906.623	18467
906.74	18361
906.857	18361
906.974	18342
907.091	18483
907.208	18540
907.324	18479
907.441	18384
907.557	18220
907.674	18053
907.79	18167
907.907	18144
908.023	18194
908.139	18117
908.256	17965
908.372	18026
908.488	18064
908.604	17794
908.72	17866
908.836	17885
908.952	17786
909.068	17882
909.184	17954
909.3	17798
909.415	17939
909.531	17817
909.647	17452
909.762	17604
909.878	17520
909.993	17478
910.108	17585
910.224	17539
910.339	17547
910.454	17440
910.57	17356
910.685	17311
910.8	17535
910.915	17501
911.03	17334
911.145	17155
911.259	17094
911.374	17086
911.489	16938
911.604	17052
911.718	16858
911.833	16938
911.947	16694
912.062	16702
912.176	16927
912.291	16835
912.405	16889
912.519	17083
912.633	17060
912.748	16942
912.862	16889
912.976	16706
913.09	16504
913.204	16733
913.318	16694
913.431	16793
913.545	16812
913.659	16713
913.772	16645
913.886	16519
914	16447
914.113	16516
914.226	16649
914.34	16607
914.453	16299
914.566	16497
914.68	16318
914.793	16322
914.906	16048
915.019	15998
915.132	15991
915.245	16021
915.358	16116
915.47	15964
915.583	16010
915.696	16029
915.809	16135
915.921	16181
916.034	16074
916.146	15979
916.259	15812
916.371	16002
916.483	15953
916.595	15865
916.708	15842
916.82	15842
916.932	15816
917.044	15831
917.156	15770
917.268	15633
917.38	15641
917.491	15720
917.603	15675
917.715	15701
917.826	15644
917.938	15576
918.049	15481
918.161	15705
918.272	15720
918.384	15793
918.495	15523
918.606	15462
918.717	15275
918.828	15458
918.939	15420
919.05	15367
919.161	15329
919.272	15161
919.383	15279
919.494	15367
919.604	15500
919.715	15408
919.826	15348
919.936	15378
920.047	15405
920.157	15351
920.267	15523
920.378	15302
920.488	15351
920.598	15564
920.708	15629
920.818	15492
920.928	15370
921.038	15633
921.148	15530
921.258	15287
921.368	15222
921.477	15116
921.587	15047
921.697	14956
921.806	15058
921.916	15051
922.025	14682
922.134	14655
922.244	14659
922.353	14670
922.462	14625
922.571	14454
922.68	14267
922.789	14347
922.898	14267
923.007	14358
923.116	14358
923.224	14263
923.333	14324
923.442	14183
923.55	14168
923.659	14214
923.767	14256
923.876	14130
923.984	14161
924.092	14039
924.201	14103
924.309	14008
924.417	14039
924.525	13940
924.633	13989
924.741	14689
924.849	13674
924.956	13902
925.064	13738
925.172	13677
925.279	13696
925.387	13765
925.494	13696
925.602	13864
925.709	13803
925.816	13628
925.924	13643
926.031	13700
926.138	13586
926.245	13670
926.352	13453
926.459	13715
926.566	13605
926.673	13533
926.779	13468
926.886	13457
926.993	13282
927.099	13247
927.206	13129
927.312	13278
927.419	13263
927.525	13209
927.631	13263
927.737	13198
927.843	13137
927.95	13000
928.056	13069
928.162	13023
928.267	12993
928.373	13803
928.479	13110
928.585	12848
928.69	13004
928.796	12973
928.901	12901
929.007	12764
929.112	12848
929.218	12802
929.323	12787
929.428	12707
929.533	12791
929.638	12658
929.743	12772
929.848	12783
929.953	12597
930.058	12517
930.163	12388
930.267	12433
930.372	12570
930.477	12410
930.581	12608
930.685	12369
930.79	12258
930.894	12258
930.998	12228
931.103	12460
931.207	11977
931.311	11863
931.415	11866
931.519	11688
931.623	11596
