Data from test_V78500241_749.txt Node
Date: Fri Mar 25 15:46:59 CST 2022
User: usil
Spectrometer: V785-0024
Trigger mode: 0
Integration Time (sec): 4.000000E-1
Scans to average: 1
Nonlinearity correction enabled: false
Boxcar width: 0
Storing dark spectrum: false
XAxis mode: Wavelengths
Number of Pixels in Spectrum: 1024
>>>>>Begin Spectral Data<<<<<
801.071	28390
801.214	28284
801.356	27968
801.499	27987
801.641	27831
801.783	27914
801.926	28051
802.068	27918
802.211	27770
802.353	27739
802.496	27610
802.638	27523
802.78	27644
802.923	27466
803.065	27310
803.208	27572
803.35	27545
803.492	27713
803.635	27686
803.777	27652
803.919	27793
804.061	27903
804.204	27789
804.346	27625
804.488	27656
804.63	27701
804.773	27603
804.915	27899
805.057	27998
805.199	27835
805.341	27960
805.483	27953
805.626	27808
805.768	27682
805.91	27937
806.052	28002
806.194	27812
806.336	28101
806.478	27991
806.62	27934
806.762	27968
806.904	28147
807.046	28390
807.188	28291
807.33	28360
807.472	28413
807.614	28409
807.756	28226
807.898	28238
808.04	28166
808.182	28128
808.324	28158
808.465	28295
808.607	28497
808.749	28481
808.891	28698
809.033	28736
809.174	28557
809.316	28565
809.458	28535
809.6	28497
809.741	28793
809.883	28740
810.025	28908
810.166	28778
810.308	28949
810.45	28816
810.591	28702
810.733	28683
810.875	28546
811.016	28523
811.158	28691
811.299	28729
811.441	28957
811.582	28771
811.724	28675
811.865	28508
812.007	28618
812.148	28588
812.29	28710
812.431	28752
812.573	28927
812.714	29094
812.855	29018
812.997	29181
813.138	29425
813.279	29189
813.421	29246
813.562	29079
813.703	29037
813.845	28801
813.986	28531
814.127	28413
814.268	28249
814.41	28386
814.551	28192
814.692	28394
814.833	28200
814.974	28246
815.115	28226
815.256	28310
815.397	28162
815.539	28192
815.68	28257
815.821	28040
815.962	28147
816.103	28120
816.244	27949
816.385	27857
816.526	27968
816.666	27785
816.807	27633
816.948	27690
817.089	27633
817.23	27671
817.371	27523
817.512	27625
817.653	27572
817.793	27542
817.934	27671
818.075	27591
818.216	27530
818.356	27462
818.497	27644
818.638	27237
818.778	27367
818.919	27355
819.06	27587
819.2	27496
819.341	27606
819.481	27595
819.622	27705
819.762	27907
819.903	27918
820.043	27911
820.184	27701
820.324	27701
820.465	27781
820.605	27751
820.746	27781
820.886	27530
821.026	27705
821.167	27728
821.307	27876
821.447	27663
821.588	27473
821.728	27462
821.868	27226
822.008	27272
822.149	27154
822.289	27013
822.429	26682
822.569	26739
822.709	26758
822.849	26617
822.99	26560
823.13	26579
823.27	26488
823.41	26301
823.55	26282
823.69	26400
823.83	26590
823.97	26438
824.11	26256
824.25	26122
824.389	26252
824.529	26393
824.669	26252
824.809	26389
824.949	26298
825.089	26374
825.228	26252
825.368	26016
825.508	26183
825.648	26142
825.787	26138
825.927	26206
826.067	26168
826.206	26016
826.346	26145
826.485	26145
826.625	26084
826.765	26214
826.904	26058
827.044	25898
827.183	25811
827.323	25822
827.462	25928
827.601	25909
827.741	25818
827.88	25921
828.02	25852
828.159	25727
828.298	25860
828.437	25887
828.577	25795
828.716	25921
828.855	25708
828.994	25552
829.134	25521
829.273	25556
829.412	25506
829.551	25575
829.69	25525
829.829	25571
829.968	25601
830.107	25590
830.246	25529
830.385	25422
830.524	25411
830.663	25369
830.802	25164
830.941	25164
831.08	25091
831.219	25301
831.357	25168
831.496	25301
831.635	25225
831.774	25027
831.913	25031
832.051	24886
832.19	24844
832.329	24939
832.467	24817
832.606	24897
832.744	24821
832.883	24863
833.022	24635
833.16	24791
833.299	24814
833.437	24913
833.576	24821
833.714	24943
833.852	24905
833.991	24844
834.129	25053
834.267	24981
834.406	24886
834.544	24810
834.682	24951
834.821	24825
834.959	24970
835.097	24810
835.235	24894
835.373	24798
835.511	24844
835.65	24722
835.788	24715
835.926	24669
836.064	24559
836.202	24471
836.34	24760
836.478	24783
836.615	24677
836.753	24597
836.891	24631
837.029	24821
837.167	24612
837.305	24585
837.443	24525
837.58	24513
837.718	24661
837.856	24681
837.993	24471
838.131	24544
838.269	24407
838.406	24460
838.544	24270
838.681	24152
838.819	24133
838.956	23904
839.094	24022
839.231	24064
839.369	24140
839.506	24277
839.643	24182
839.781	24011
839.918	23939
840.055	23999
840.193	23939
840.33	23870
840.467	23965
840.604	23992
840.742	24251
840.879	23798
841.016	23847
841.153	23798
841.29	23866
841.427	23847
841.564	23931
841.701	23771
841.838	23874
841.975	23824
842.112	23726
842.249	23714
842.385	23642
842.522	23855
842.659	23695
842.796	23672
842.933	23653
843.069	23615
843.206	23490
843.343	23665
843.479	23661
843.616	23665
843.752	23334
843.889	23410
844.025	23600
844.162	23452
844.298	23486
844.435	23383
844.571	23391
844.708	23474
844.844	23623
844.98	23592
845.117	23634
845.253	23471
845.389	23231
845.525	23353
845.661	23273
845.798	23033
845.934	23178
846.07	23155
846.206	23212
846.342	23334
846.478	23197
846.614	22968
846.75	22653
846.886	22881
847.022	22854
847.158	22869
847.294	22839
847.429	22957
847.565	22797
847.701	23048
847.837	22664
847.972	22497
848.108	22771
848.244	22675
848.379	22382
848.515	22497
848.65	22329
848.786	22405
848.921	22417
849.057	22626
849.192	22481
849.328	22542
849.463	22386
849.598	22481
849.734	22344
849.869	22261
850.004	22295
850.14	22162
850.275	22226
850.41	22078
850.545	22143
850.68	22181
850.815	22379
850.95	22188
851.085	22348
851.22	22234
851.355	22215
851.49	22116
851.625	22169
851.76	22253
851.895	22177
852.03	22124
852.165	22276
852.299	22234
852.434	22325
852.569	22249
852.703	22322
852.838	22135
852.973	22390
853.107	22436
853.242	22090
853.376	22086
853.511	21983
853.645	22097
853.78	22169
853.914	22044
854.048	22116
854.183	22063
854.317	22257
854.451	22249
854.585	22154
854.72	22109
854.854	22188
854.988	22013
855.122	21983
855.256	21998
855.39	21926
855.524	22059
855.658	22013
855.792	22124
855.926	22040
856.06	21922
856.194	22154
856.327	22074
856.461	21918
856.595	21968
856.729	22143
856.862	22211
856.996	22059
857.13	22188
857.263	22044
857.397	22101
857.53	21869
857.664	22010
857.797	22082
857.931	22143
858.064	21915
858.197	22169
858.331	21922
858.464	21953
858.597	22029
858.731	22086
858.864	22044
858.997	21991
859.13	22109
859.263	22051
859.396	22082
859.529	22044
859.662	21945
859.795	21956
859.928	22082
860.061	22185
860.194	22246
860.327	22097
860.46	22112
860.592	22158
860.725	22242
860.858	22105
860.99	22082
861.123	21945
861.256	21991
861.388	22116
861.521	22778
861.653	21895
861.786	21812
861.918	22002
862.05	21857
862.183	21975
862.315	21994
862.447	21964
862.58	22029
862.712	21709
862.844	21724
862.976	21797
863.108	21808
863.24	22185
863.372	21728
863.504	21762
863.636	21774
863.768	21747
863.9	21732
864.032	21698
864.164	21637
864.296	21812
864.428	21998
864.559	21854
864.691	21686
864.823	21785
864.954	21743
865.086	21667
865.217	21618
865.349	21587
865.48	21564
865.612	21671
865.743	21739
865.875	21599
866.006	21622
866.137	21580
866.269	21679
866.4	21736
866.531	21568
866.662	21599
866.793	21576
866.924	21587
867.055	21614
867.186	21618
867.317	21690
867.448	21564
867.579	21473
867.71	21485
867.841	21401
867.972	21606
868.103	21648
868.233	21610
868.364	21526
868.495	21656
868.625	21648
868.756	21994
868.886	21686
869.017	21720
869.147	21937
869.278	21888
869.408	21778
869.539	21831
869.669	21838
869.799	21953
869.929	21911
870.06	21922
870.19	22044
870.32	22158
870.45	22284
870.58	22188
870.71	22287
870.84	22360
870.97	22105
871.1	22188
871.23	22421
871.36	22447
871.489	22352
871.619	22432
871.749	22386
871.879	22489
872.008	22489
872.138	22344
872.267	22352
872.397	22223
872.526	22128
872.656	22287
872.785	22261
872.915	22421
873.044	22478
873.173	22421
873.303	22485
873.432	22497
873.561	22459
873.69	22417
873.819	22394
873.948	22352
874.077	22344
874.206	22413
874.335	22500
874.464	22546
874.593	22569
874.722	22691
874.851	22694
874.979	22611
875.108	22710
875.237	22611
875.365	22512
875.494	22512
875.623	22793
875.751	22596
875.88	22565
876.008	22672
876.136	22786
876.265	23064
876.393	23102
876.521	23071
876.65	22995
876.778	22949
876.906	22889
877.034	23052
877.162	22961
877.29	22949
877.418	22915
877.546	23067
877.674	22999
877.802	23079
877.93	22972
878.058	22919
878.185	22778
878.313	22869
878.441	22942
878.568	22717
878.696	22968
878.824	22995
878.951	22991
879.079	23136
879.206	23212
879.333	23075
879.461	23037
879.588	23121
879.715	23204
879.842	23181
879.97	23018
880.097	22786
880.224	22812
880.351	22881
880.478	22850
880.605	22672
880.732	22862
880.859	22961
880.986	22805
881.112	22740
881.239	22592
881.366	22481
881.493	22428
881.619	22398
881.746	22291
881.872	22333
881.999	22367
882.125	22310
882.252	22398
882.378	22306
882.505	22474
882.631	22188
882.757	22131
882.883	22188
883.01	22078
883.136	22040
883.262	21895
883.388	21903
883.514	21979
883.64	22059
883.766	22013
883.892	21857
884.018	21831
884.143	21895
884.269	22074
884.395	21656
884.52	21713
884.646	21660
884.772	21679
884.897	21519
885.023	21759
885.148	21892
885.274	21888
885.399	21724
885.524	21580
885.65	21690
885.775	21705
885.9	21622
886.025	21747
886.15	21789
886.275	21694
886.4	21606
886.525	21564
886.65	21618
886.775	21557
886.9	21755
887.025	21838
887.149	21595
887.274	21511
887.399	21496
887.523	21454
887.648	21355
887.773	21351
887.897	21485
888.021	21397
888.146	21443
888.27	21439
888.395	21507
888.519	21572
888.643	21348
888.767	21526
888.891	21332
889.015	21298
889.139	21336
889.263	21161
889.387	21454
889.511	21515
889.635	21370
889.759	21169
889.883	21199
890.006	21389
890.13	21313
890.254	21241
890.377	21066
890.501	20910
890.624	20887
890.748	21009
890.871	20800
890.995	20762
891.118	20796
891.241	20864
891.364	20727
891.488	20872
891.611	20746
891.734	20773
891.857	20773
891.98	20830
892.103	20842
892.226	20826
892.349	20765
892.471	20579
892.594	20762
892.717	20678
892.839	20659
892.962	20750
893.085	20785
893.207	20735
893.33	20575
893.452	20629
893.575	20773
893.697	20720
893.819	20804
893.941	20853
894.064	20731
894.186	20507
894.308	20556
894.43	20663
894.552	20823
894.674	20819
894.796	20564
894.918	20678
895.04	20636
895.161	20754
895.283	20602
895.405	20674
895.526	20781
895.648	20750
895.769	20705
895.891	20811
896.012	20701
896.134	20724
896.255	20644
896.376	20674
896.498	20655
896.619	20743
896.74	20625
896.861	20663
896.982	21062
897.103	21104
897.224	20956
897.345	20918
897.466	20941
897.587	20929
897.708	21013
897.828	20971
897.949	20735
898.07	20716
898.19	20754
898.311	21013
898.431	20880
898.552	21017
898.672	20971
898.792	20929
898.913	20887
899.033	20712
899.153	20636
899.273	20689
899.393	20674
899.513	20754
899.633	20659
899.753	20640
899.873	20530
899.993	20636
900.113	20503
900.232	20518
900.352	20533
900.472	20355
900.591	20320
900.711	20461
900.83	20347
900.95	20507
901.069	20374
901.189	20286
901.308	20096
901.427	19993
901.546	19959
901.665	19978
901.784	20012
901.904	19791
902.023	19712
902.141	19537
902.26	19533
902.379	19487
902.498	19575
902.617	19407
902.735	19426
902.854	19518
902.973	19449
903.091	19156
903.21	19202
903.328	19156
903.446	19069
903.565	19080
903.683	18890
903.801	18715
903.919	18924
904.038	18996
904.156	18779
904.274	18760
904.392	18772
904.51	18665
904.627	18681
904.745	18661
904.863	18684
904.981	18475
905.098	18429
905.216	18334
905.334	18391
905.451	18330
905.569	18311
905.686	18448
905.803	18414
905.921	18110
906.038	18224
906.155	18194
906.272	18034
906.389	18041
906.506	17973
906.623	17946
906.74	17939
906.857	17737
906.974	17798
907.091	17939
907.208	18110
907.324	17916
907.441	17863
907.557	17619
907.674	17547
907.79	17539
907.907	17532
908.023	17547
908.139	17585
908.256	17474
908.372	17524
908.488	17474
908.604	17391
908.72	17212
908.836	17315
908.952	17368
909.068	17395
909.184	17258
909.3	17482
909.415	17421
909.531	17417
909.647	17022
909.762	17174
909.878	17018
909.993	17105
910.108	16953
910.224	16999
910.339	17067
910.454	16908
910.57	16812
910.685	16854
910.8	17025
910.915	16972
911.03	16710
911.145	16675
911.259	16580
911.374	16470
911.489	16527
911.604	16436
911.718	16284
911.833	16379
911.947	16272
912.062	16162
912.176	16344
912.291	16402
912.405	16447
912.519	16592
912.633	16478
912.748	16386
912.862	16280
912.976	16226
913.09	16082
913.204	16128
913.318	16071
913.431	16223
913.545	16173
913.659	16215
913.772	16101
913.886	15968
914	15960
914.113	16025
914.226	16067
914.34	16116
914.453	15850
914.566	16029
914.68	15808
914.793	15823
914.906	15701
915.019	15542
915.132	15466
915.245	15606
915.358	15568
915.47	15576
915.583	15500
915.696	15625
915.809	15736
915.921	15652
916.034	15447
916.146	15351
916.259	15412
916.371	15580
916.483	15587
916.595	15408
916.708	15374
916.82	15507
916.932	15401
917.044	15389
917.156	15329
917.268	15188
917.38	15233
917.491	15165
917.603	15275
917.715	15287
917.826	15237
917.938	15123
918.049	15001
918.161	15131
918.272	15249
918.384	15283
918.495	15169
918.606	14967
918.717	14804
918.828	14952
918.939	14975
919.05	14872
919.161	14826
919.272	14678
919.383	14765
919.494	14960
919.604	15230
919.715	14883
919.826	14819
919.936	14849
920.047	14937
920.157	14845
920.267	15077
920.378	14929
920.488	14807
920.598	15066
920.708	15135
920.818	15074
920.928	14998
921.038	15169
921.148	15207
921.258	14872
921.368	14765
921.477	14651
921.587	14651
921.697	14579
921.806	14625
921.916	14499
922.025	14415
922.134	14225
922.244	14195
922.353	14355
922.462	14081
922.571	14153
922.68	13978
922.789	13955
922.898	13833
923.007	13845
923.116	13887
923.224	13959
923.333	13963
923.442	13784
923.55	13750
923.659	13761
923.767	13795
923.876	13685
923.984	13780
924.092	13674
924.201	13685
924.309	13559
924.417	13708
924.525	13483
924.633	13567
924.741	14450
924.849	13301
924.956	13407
925.064	13415
925.172	13194
925.279	13297
925.387	13266
925.494	13285
925.602	13533
925.709	13320
925.816	13251
925.924	13270
926.031	13259
926.138	13209
926.245	13244
926.352	13156
926.459	13236
926.566	13331
926.673	13183
926.779	13069
926.886	13103
926.993	12916
927.099	12909
927.206	12764
927.312	12783
927.419	12878
927.525	12886
927.631	12852
927.737	12684
927.843	12650
927.95	12597
928.056	12642
928.162	12566
928.267	12707
928.373	13217
928.479	12749
928.585	12498
928.69	12620
928.796	12635
928.901	12467
929.007	12391
929.112	12555
929.218	12475
929.323	12414
929.428	12391
929.533	12528
929.638	12334
929.743	12308
929.848	12471
929.953	12330
930.058	12266
930.163	12019
930.267	12148
930.372	12315
930.477	12003
930.581	12334
930.685	12041
930.79	11927
930.894	11939
930.998	11874
931.103	12114
931.207	11775
931.311	11592
931.415	11497
931.519	11334
931.623	11372
