Data from test_V78500241_3291.txt Node
Date: Fri Mar 25 16:04:35 CST 2022
User: usil
Spectrometer: V785-0024
Trigger mode: 0
Integration Time (sec): 4.000000E-1
Scans to average: 1
Nonlinearity correction enabled: false
Boxcar width: 0
Storing dark spectrum: false
XAxis mode: Wavelengths
Number of Pixels in Spectrum: 1024
>>>>>Begin Spectral Data<<<<<
801.071	28721
801.214	28694
801.356	28360
801.499	28314
801.641	28261
801.783	28424
801.926	28436
802.068	28390
802.211	28242
802.353	28249
802.496	27899
802.638	28090
802.78	28025
802.923	27922
803.065	27949
803.208	27934
803.35	28112
803.492	28070
803.635	28238
803.777	28032
803.919	28310
804.061	28554
804.204	28188
804.346	28314
804.488	28082
804.63	28185
804.773	28128
804.915	28284
805.057	28493
805.199	28215
805.341	28489
805.483	28394
805.626	28367
805.768	28348
805.91	28379
806.052	28386
806.194	28375
806.336	28634
806.478	28390
806.62	28322
806.762	28573
806.904	28694
807.046	28904
807.188	28816
807.33	28725
807.472	29018
807.614	28694
807.756	28755
807.898	28771
808.04	28607
808.182	28630
808.324	28702
808.465	28759
808.607	28854
808.749	29102
808.891	29288
809.033	29246
809.174	29200
809.316	29124
809.458	29029
809.6	29041
809.741	29109
809.883	29318
810.025	29391
810.166	29341
810.308	29372
810.45	29330
810.591	29383
810.733	29288
810.875	29178
811.016	28976
811.158	29128
811.299	29193
811.441	29284
811.582	29258
811.724	29117
811.865	29132
812.007	29071
812.148	29132
812.29	29197
812.431	29296
812.573	29375
812.714	29402
812.855	29657
812.997	29707
813.138	29764
813.279	29832
813.421	29585
813.562	29687
813.703	29383
813.845	29326
813.986	29006
814.127	28995
814.268	28949
814.41	28828
814.551	28896
814.692	28942
814.833	28752
814.974	28809
815.115	28858
815.256	28717
815.397	28721
815.539	28767
815.68	28713
815.821	28588
815.962	28706
816.103	28672
816.244	28546
816.385	28489
816.526	28432
816.666	28268
816.807	28021
816.948	28230
817.089	28318
817.23	28169
817.371	28074
817.512	28116
817.653	28249
817.793	28215
817.934	28169
818.075	28181
818.216	28257
818.356	28055
818.497	28147
818.638	27846
818.778	27808
818.919	27854
819.06	27857
819.2	28067
819.341	28044
819.481	28070
819.622	28322
819.762	28443
819.903	28398
820.043	28424
820.184	28424
820.324	28363
820.465	28443
820.605	28318
820.746	28181
820.886	28154
821.026	28211
821.167	28154
821.307	28158
821.447	28128
821.588	28090
821.728	27987
821.868	27736
822.008	27561
822.149	27625
822.289	27538
822.429	27329
822.569	27363
822.709	27222
822.849	27245
822.99	27157
823.13	27146
823.27	27058
823.41	26956
823.55	26937
823.69	27112
823.83	26967
823.97	26864
824.11	26746
824.25	26952
824.389	26891
824.529	26910
824.669	26781
824.809	26963
824.949	26872
825.089	26872
825.228	26826
825.368	26613
825.508	26689
825.648	26659
825.787	26724
825.927	26720
826.067	26594
826.206	26705
826.346	26807
826.485	26785
826.625	26682
826.765	26739
826.904	26739
827.044	26366
827.183	26431
827.323	26541
827.462	26446
827.601	26442
827.741	26434
827.88	26419
828.02	26252
828.159	26377
828.298	26377
828.437	26507
828.577	26446
828.716	26465
828.855	26282
828.994	26202
829.134	26119
829.273	26084
829.412	26073
829.551	26027
829.69	26035
829.829	26145
829.968	26248
830.107	26202
830.246	26187
830.385	26062
830.524	25959
830.663	25868
830.802	25875
830.941	25689
831.08	25586
831.219	25586
831.357	25765
831.496	25906
831.635	25826
831.774	25556
831.913	25540
832.051	25479
832.19	25400
832.329	25495
832.467	25331
832.606	25274
832.744	25331
832.883	25293
833.022	25346
833.16	25343
833.299	25426
833.437	25304
833.576	25445
833.714	25529
833.852	25457
833.991	25506
834.129	25514
834.267	25487
834.406	25445
834.544	25415
834.682	25438
834.821	25476
834.959	25605
835.097	25285
835.235	25529
835.373	25400
835.511	25422
835.65	25228
835.788	25297
835.926	25099
836.064	25042
836.202	25259
836.34	25289
836.478	25343
836.615	25289
836.753	25225
836.891	25403
837.029	25403
837.167	25266
837.305	25171
837.443	25228
837.58	25015
837.718	25145
837.856	25133
837.993	25091
838.131	25012
838.269	24867
838.406	24890
838.544	24882
838.681	24776
838.819	24764
838.956	24551
839.094	24467
839.231	24661
839.369	24684
839.506	24886
839.643	24913
839.781	24429
839.918	24429
840.055	24547
840.193	24555
840.33	24338
840.467	24467
840.604	24471
840.742	24711
840.879	24372
841.016	24365
841.153	24292
841.29	24525
841.427	24350
841.564	24475
841.701	24372
841.838	24441
841.975	24308
842.112	24399
842.249	24346
842.385	24235
842.522	24467
842.659	24342
842.796	24163
842.933	24232
843.069	24041
843.206	24205
843.343	24292
843.479	24251
843.616	24296
843.752	24015
843.889	23984
844.025	24072
844.162	23946
844.298	24068
844.435	23855
844.571	23939
844.708	23984
844.844	24148
844.98	24152
845.117	24034
845.253	23889
845.389	23855
845.525	23923
845.661	23901
845.798	23767
845.934	23737
846.07	23604
846.206	23832
846.342	23707
846.478	23737
846.614	23417
846.75	23493
846.886	23471
847.022	23493
847.158	23467
847.294	23387
847.429	23478
847.565	23410
847.701	23726
847.837	23284
847.972	23117
848.108	23223
848.244	23235
848.379	22980
848.515	22991
848.65	22915
848.786	23075
848.921	23193
849.057	23086
849.192	23132
849.328	23037
849.463	23220
849.598	22957
849.734	22915
849.869	22911
850.004	22805
850.14	22820
850.275	22831
850.41	22675
850.545	22752
850.68	22752
850.815	22752
850.95	22812
851.085	22843
851.22	22831
851.355	22927
851.49	22877
851.625	22873
851.76	22729
851.895	22733
852.03	22611
852.165	22797
852.299	22664
852.434	22854
852.569	22866
852.703	22767
852.838	22858
852.973	22927
853.107	22850
853.242	22523
853.376	22683
853.511	22557
853.645	22497
853.78	22729
853.914	22577
854.048	22554
854.183	22580
854.317	22580
854.451	22854
854.585	22573
854.72	22653
854.854	22736
854.988	22535
855.122	22580
855.256	22561
855.39	22615
855.524	22618
855.658	22660
855.792	22771
855.926	22645
856.06	22607
856.194	22660
856.327	22622
856.461	22478
856.595	22577
856.729	22592
856.862	22797
856.996	22580
857.13	22721
857.263	22713
857.397	22733
857.53	22500
857.664	22630
857.797	22672
857.931	22687
858.064	22687
858.197	22843
858.331	22554
858.464	22588
858.597	22356
858.731	22611
858.864	22573
858.997	22588
859.13	22546
859.263	22691
859.396	22641
859.529	22599
859.662	22538
859.795	22656
859.928	22702
860.061	22858
860.194	22759
860.327	22828
860.46	22702
860.592	22744
860.725	22752
860.858	22645
860.99	22489
861.123	22611
861.256	22459
861.388	22607
861.521	23326
861.653	22462
861.786	22341
861.918	22424
862.05	22516
862.183	22516
862.315	22584
862.447	22645
862.58	22519
862.712	22272
862.844	22337
862.976	22356
863.108	22386
863.24	22942
863.372	22261
863.504	22485
863.636	22348
863.768	22424
863.9	22280
864.032	22234
864.164	22344
864.296	22230
864.428	22489
864.559	22367
864.691	22287
864.823	22325
864.954	22207
865.086	22303
865.217	22291
865.349	22177
865.48	22074
865.612	22078
865.743	22352
865.875	22196
866.006	22131
866.137	22284
866.269	22200
866.4	22329
866.531	22093
866.662	21953
866.793	22070
866.924	22196
867.055	22086
867.186	22177
867.317	22154
867.448	22025
867.579	22101
867.71	22044
867.841	21983
867.972	22101
868.103	22051
868.233	22082
868.364	22109
868.495	22310
868.625	22341
868.756	22204
868.886	22371
869.017	22405
869.147	22413
869.278	22421
869.408	22329
869.539	22398
869.669	22367
869.799	22306
869.929	22485
870.06	22440
870.19	22599
870.32	22710
870.45	22687
870.58	22809
870.71	22858
870.84	22881
870.97	22717
871.1	22782
871.23	22816
871.36	23029
871.489	22843
871.619	22839
871.749	22961
871.879	22949
872.008	22999
872.138	22999
872.267	22999
872.397	22805
872.526	22809
872.656	22858
872.785	22801
872.915	23025
873.044	23052
873.173	22873
873.303	22877
873.432	23037
873.561	23124
873.69	22991
873.819	23037
873.948	23010
874.077	23033
874.206	22900
874.335	22987
874.464	23105
874.593	23178
874.722	23075
874.851	23159
874.979	23204
875.108	23208
875.237	23121
875.365	23136
875.494	23117
875.623	23121
875.751	23288
875.88	23356
876.008	23303
876.136	23341
876.265	23558
876.393	23752
876.521	23710
876.65	23729
876.778	23649
876.906	23623
877.034	23478
877.162	23653
877.29	23547
877.418	23676
877.546	23661
877.674	23455
877.802	23551
877.93	23486
878.058	23531
878.185	23455
878.313	23459
878.441	23360
878.568	23410
878.696	23444
878.824	23524
878.951	23646
879.079	23684
879.206	23832
879.333	23710
879.461	23573
879.588	23771
879.715	23680
879.842	23718
879.97	23551
880.097	23334
880.224	23353
880.351	23433
880.478	23402
880.605	23200
880.732	23330
880.859	23547
880.986	23334
881.112	23452
881.239	23151
881.366	23041
881.493	22995
881.619	23041
881.746	22946
881.872	23010
881.999	22927
882.125	22831
882.252	22911
882.378	22847
882.505	22980
882.631	22755
882.757	22649
882.883	22729
883.01	22573
883.136	22470
883.262	22531
883.388	22367
883.514	22653
883.64	22573
883.766	22561
883.892	22398
884.018	22325
884.143	22618
884.269	22577
884.395	22386
884.52	22226
884.646	22242
884.772	22139
884.897	22143
885.023	22249
885.148	22394
885.274	22375
885.399	22265
885.524	22169
885.65	22268
885.775	22268
885.9	22238
886.025	22337
886.15	22356
886.275	22196
886.4	22082
886.525	22211
886.65	22055
886.775	22135
886.9	22325
887.025	22481
887.149	22169
887.274	22044
887.399	22002
887.523	21930
887.648	22063
887.773	22021
887.897	22150
888.021	21964
888.146	21953
888.27	22105
888.395	21945
888.519	22059
888.643	21918
888.767	21956
888.891	21930
889.015	21743
889.139	21899
889.263	21701
889.387	21880
889.511	21930
889.635	21842
889.759	21682
889.883	21637
890.006	21793
890.13	21812
890.254	21713
890.377	21816
890.501	21507
890.624	21496
890.748	21564
890.871	21420
890.995	21306
891.118	21370
891.241	21336
891.364	21275
891.488	21424
891.611	21401
891.734	21298
891.857	21416
891.98	21249
892.103	21340
892.226	21332
892.349	21211
892.471	21154
892.594	21237
892.717	21203
892.839	21188
892.962	21157
893.085	21237
893.207	21112
893.33	21062
893.452	21142
893.575	21272
893.697	21180
893.819	21435
893.941	21435
894.064	21222
894.186	21123
894.308	21036
894.43	21291
894.552	21283
894.674	21222
894.796	21207
894.918	21176
895.04	21199
895.161	21207
895.283	21146
895.405	21131
895.526	21188
895.648	21211
895.769	21195
895.891	21119
896.012	21241
896.134	21173
896.255	21218
896.376	21176
896.498	21161
896.619	21146
896.74	21138
896.861	21226
896.982	21488
897.103	21587
897.224	21447
897.345	21336
897.466	21256
897.587	21412
897.708	21481
897.828	21469
897.949	21214
898.07	21146
898.19	21344
898.311	21466
898.431	21336
898.552	21363
898.672	21443
898.792	21488
898.913	21313
899.033	21245
899.153	21180
899.273	21062
899.393	21131
899.513	21146
899.633	21157
899.753	21203
899.873	21108
899.993	21161
900.113	21028
900.232	21028
900.352	21028
900.472	20971
900.591	20857
900.711	20838
900.83	20815
900.95	20941
901.069	20948
901.189	20750
901.308	20537
901.427	20473
901.546	20381
901.665	20427
901.784	20518
901.904	20183
902.023	20180
902.141	20115
902.26	20005
902.379	20081
902.498	19955
902.617	19978
902.735	19982
902.854	19921
902.973	19757
903.091	19552
903.21	19620
903.328	19590
903.446	19426
903.565	19335
903.683	19396
903.801	19232
903.919	19285
904.038	19483
904.156	19133
904.274	19148
904.392	19133
904.51	19118
904.627	19080
904.745	19263
904.863	19209
904.981	18985
905.098	18810
905.216	18817
905.334	18905
905.451	18844
905.569	18779
905.686	18897
905.803	18840
905.921	18540
906.038	18608
906.155	18585
906.272	18650
906.389	18479
906.506	18232
906.623	18361
906.74	18292
906.857	18239
906.974	18114
907.091	18410
907.208	18357
907.324	18376
907.441	18190
907.557	18007
907.674	18045
907.79	18079
907.907	17999
908.023	18072
908.139	18022
908.256	17916
908.372	18022
908.488	17961
908.604	17809
908.72	17824
908.836	17733
908.952	17741
909.068	17760
909.184	17897
909.3	17794
909.415	17836
909.531	17737
909.647	17608
909.762	17391
909.878	17577
909.993	17467
910.108	17398
910.224	17425
910.339	17398
910.454	17254
910.57	17204
910.685	17170
910.8	17414
910.915	17387
911.03	17277
911.145	16980
911.259	17052
911.374	17033
911.489	16995
911.604	16831
911.718	16873
911.833	16763
911.947	16679
912.062	16577
912.176	16740
912.291	16850
912.405	16767
912.519	16972
912.633	16869
912.748	16736
912.862	16713
912.976	16497
913.09	16451
913.204	16550
913.318	16607
913.431	16759
913.545	16588
913.659	16596
913.772	16569
913.886	16405
914	16436
914.113	16474
914.226	16402
914.34	16394
914.453	16265
914.566	16333
914.68	16310
914.793	16192
914.906	16044
915.019	16124
915.132	15915
915.245	15895
915.358	15964
915.47	15937
915.583	15922
915.696	15953
915.809	16074
915.921	16071
916.034	15831
916.146	15873
916.259	15823
916.371	15972
916.483	15892
916.595	15743
916.708	15759
916.82	15778
916.932	15766
917.044	15724
917.156	15751
917.268	15568
917.38	15701
917.491	15625
917.603	15656
917.715	15618
917.826	15709
917.938	15568
918.049	15408
918.161	15481
918.272	15667
918.384	15557
918.495	15458
918.606	15233
918.717	15256
918.828	15370
918.939	15298
919.05	15260
919.161	15260
919.272	15104
919.383	15123
919.494	15302
919.604	15496
919.715	15317
919.826	15161
919.936	15237
920.047	15252
920.157	15344
920.267	15447
920.378	15176
920.488	15237
920.598	15359
920.708	15515
920.818	15420
920.928	15397
921.038	15644
921.148	15530
921.258	15230
921.368	15093
921.477	15017
921.587	14994
921.697	14861
921.806	14826
921.916	14849
922.025	14720
922.134	14613
922.244	14610
922.353	14629
922.462	14499
922.571	14473
922.68	14221
922.789	14183
922.898	14240
923.007	14145
923.116	14206
923.224	14180
923.333	14221
923.442	14088
923.55	14100
923.659	14111
923.767	14214
923.876	13993
923.984	14088
924.092	13913
924.201	13947
924.309	13986
924.417	13936
924.525	13947
924.633	13959
924.741	14625
924.849	13616
924.956	13822
925.064	13727
925.172	13616
925.279	13586
925.387	13681
925.494	13597
925.602	13765
925.709	13651
925.816	13571
925.924	13449
926.031	13636
926.138	13601
926.245	13563
926.352	13468
926.459	13677
926.566	13582
926.673	13556
926.779	13358
926.886	13255
926.993	13228
927.099	13183
927.206	13141
927.312	13122
927.419	13228
927.525	13168
927.631	13202
927.737	13050
927.843	13015
927.95	12878
928.056	13004
928.162	12993
928.267	13031
928.373	13529
928.479	13072
928.585	12779
928.69	12852
928.796	13000
928.901	12795
929.007	12719
929.112	12768
929.218	12878
929.323	12681
929.428	12688
929.533	12791
929.638	12536
929.743	12608
929.848	12673
929.953	12612
930.058	12517
930.163	12380
930.267	12391
930.372	12490
930.477	12300
930.581	12536
930.685	12388
930.79	12254
930.894	12285
930.998	12190
931.103	12289
931.207	12041
931.311	11923
931.415	11824
931.519	11562
931.623	11581
