Data from test_V78500241_1373.txt Node
Date: Fri Mar 25 15:51:18 CST 2022
User: usil
Spectrometer: V785-0024
Trigger mode: 0
Integration Time (sec): 4.000000E-1
Scans to average: 1
Nonlinearity correction enabled: false
Boxcar width: 0
Storing dark spectrum: false
XAxis mode: Wavelengths
Number of Pixels in Spectrum: 1024
>>>>>Begin Spectral Data<<<<<
801.071	28246
801.214	28322
801.356	28040
801.499	28059
801.641	27918
801.783	27899
801.926	27956
802.068	27846
802.211	27911
802.353	27892
802.496	27682
802.638	27515
802.78	27504
802.923	27583
803.065	27473
803.208	27408
803.35	27606
803.492	27694
803.635	27789
803.777	27736
803.919	27838
804.061	28109
804.204	27907
804.346	27812
804.488	27774
804.63	27633
804.773	27713
804.915	27686
805.057	28010
805.199	27831
805.341	27998
805.483	28082
805.626	28021
805.768	27918
805.91	27991
806.052	28013
806.194	27964
806.336	28105
806.478	28051
806.62	27960
806.762	28120
806.904	28265
807.046	28527
807.188	28443
807.33	28527
807.472	28455
807.614	28303
807.756	28318
807.898	28166
808.04	28143
808.182	28219
808.324	28185
808.465	28386
808.607	28398
808.749	28573
808.891	28694
809.033	28710
809.174	28649
809.316	28653
809.458	28611
809.6	28577
809.741	28793
809.883	28744
810.025	28877
810.166	29010
810.308	29071
810.45	28911
810.591	28797
810.733	28755
810.875	28637
811.016	28497
811.158	28588
811.299	28748
811.441	28828
811.582	28782
811.724	28687
811.865	28603
812.007	28793
812.148	28664
812.29	28664
812.431	28755
812.573	29022
812.714	28999
812.855	28934
812.997	29269
813.138	29452
813.279	29239
813.421	29292
813.562	29132
813.703	29003
813.845	29025
813.986	28573
814.127	28615
814.268	28398
814.41	28557
814.551	28341
814.692	28413
814.833	28379
814.974	28344
815.115	28375
815.256	28223
815.397	28230
815.539	28447
815.68	28188
815.821	28120
815.962	28093
816.103	28124
816.244	28048
816.385	27778
816.526	27854
816.666	27778
816.807	27561
816.948	27644
817.089	27861
817.23	27766
817.371	27564
817.512	27709
817.653	27622
817.793	27629
817.934	27587
818.075	27838
818.216	27606
818.356	27671
818.497	27523
818.638	27370
818.778	27492
818.919	27427
819.06	27344
819.2	27591
819.341	27698
819.481	27800
819.622	27899
819.762	27960
819.903	27759
820.043	27842
820.184	27766
820.324	27755
820.465	27831
820.605	27755
820.746	27770
820.886	27606
821.026	27804
821.167	27762
821.307	27789
821.447	27774
821.588	27698
821.728	27435
821.868	27355
822.008	27233
822.149	27218
822.289	27127
822.429	26876
822.569	26891
822.709	26830
822.849	26583
822.99	26720
823.13	26697
823.27	26594
823.41	26556
823.55	26343
823.69	26598
823.83	26377
823.97	26400
824.11	26278
824.25	26271
824.389	26412
824.529	26427
824.669	26233
824.809	26381
824.949	26381
825.089	26560
825.228	26343
825.368	26149
825.508	26240
825.648	26286
825.787	26176
825.927	26320
826.067	26016
826.206	26138
826.346	26313
826.485	26305
826.625	26237
826.765	26370
826.904	26309
827.044	25951
827.183	25989
827.323	25856
827.462	25909
827.601	25875
827.741	25818
827.88	25947
828.02	25776
828.159	25750
828.298	25959
828.437	25959
828.577	25822
828.716	25837
828.855	25708
828.994	25696
829.134	25609
829.273	25552
829.412	25620
829.551	25449
829.69	25571
829.829	25575
829.968	25685
830.107	25662
830.246	25556
830.385	25529
830.524	25521
830.663	25578
830.802	25396
830.941	25145
831.08	25118
831.219	25209
831.357	25274
831.496	25479
831.635	25179
831.774	25122
831.913	24958
832.051	25122
832.19	24932
832.329	25061
832.467	24928
832.606	24837
832.744	24814
832.883	24772
833.022	24760
833.16	24916
833.299	25038
833.437	24749
833.576	24924
833.714	24932
833.852	25088
833.991	24890
834.129	25023
834.267	24996
834.406	24886
834.544	24932
834.682	24947
834.821	24783
834.959	25148
835.097	24852
835.235	25015
835.373	24882
835.511	24882
835.65	24726
835.788	24829
835.926	24601
836.064	24555
836.202	24654
836.34	24707
836.478	24829
836.615	24673
836.753	24696
836.891	24787
837.029	24715
837.167	24654
837.305	24631
837.443	24490
837.58	24589
837.718	24677
837.856	24635
837.993	24498
838.131	24589
838.269	24483
838.406	24532
838.544	24357
838.681	24270
838.819	24224
838.956	24072
839.094	23885
839.231	24015
839.369	24079
839.506	24494
839.643	24235
839.781	24038
839.918	23893
840.055	24018
840.193	24011
840.33	23851
840.467	24079
840.604	23935
840.742	24239
840.879	23954
841.016	23817
841.153	23878
841.29	23931
841.427	23920
841.564	23931
841.701	23851
841.838	23893
841.975	23851
842.112	23817
842.249	23748
842.385	23619
842.522	23870
842.659	23927
842.796	23657
842.933	23699
843.069	23657
843.206	23577
843.343	23653
843.479	23741
843.616	23798
843.752	23436
843.889	23379
844.025	23657
844.162	23387
844.298	23596
844.435	23383
844.571	23421
844.708	23543
844.844	23684
844.98	23630
845.117	23653
845.253	23444
845.389	23315
845.525	23307
845.661	23288
845.798	23311
845.934	23155
846.07	23178
846.206	23284
846.342	23204
846.478	23181
846.614	23067
846.75	22877
846.886	22896
847.022	22889
847.158	22961
847.294	22972
847.429	22911
847.565	22797
847.701	23193
847.837	22740
847.972	22706
848.108	22908
848.244	22801
848.379	22462
848.515	22451
848.65	22584
848.786	22573
848.921	22584
849.057	22713
849.192	22588
849.328	22641
849.463	22428
849.598	22603
849.734	22356
849.869	22341
850.004	22363
850.14	22325
850.275	22329
850.41	22219
850.545	22234
850.68	22261
850.815	22265
850.95	22295
851.085	22508
851.22	22394
851.355	22341
851.49	22253
851.625	22284
851.76	22268
851.895	22215
852.03	22169
852.165	22284
852.299	22363
852.434	22386
852.569	22287
852.703	22268
852.838	22402
852.973	22535
853.107	22493
853.242	22135
853.376	22063
853.511	22021
853.645	22055
853.78	22242
853.914	22154
854.048	22112
854.183	22131
854.317	22238
854.451	22295
854.585	22032
854.72	22082
854.854	22158
854.988	22055
855.122	22017
855.256	21953
855.39	22025
855.524	22234
855.658	22093
855.792	22044
855.926	22150
856.06	22147
856.194	22230
856.327	22177
856.461	22040
856.595	21987
856.729	22131
856.862	22173
856.996	22173
857.13	22025
857.263	22299
857.397	22272
857.53	22192
857.664	22246
857.797	22097
857.931	22158
858.064	22158
858.197	22154
858.331	22002
858.464	22059
858.597	21983
858.731	22143
858.864	22067
858.997	22120
859.13	22109
859.263	22036
859.396	22188
859.529	22078
859.662	22055
859.795	21998
859.928	22135
860.061	22291
860.194	22382
860.327	22238
860.46	22109
860.592	22246
860.725	22219
860.858	22246
860.99	22204
861.123	22097
861.256	22112
861.388	22112
861.521	22683
861.653	22006
861.786	21960
861.918	21934
862.05	21884
862.183	21994
862.315	22013
862.447	22112
862.58	21911
862.712	21816
862.844	21911
862.976	21816
863.108	21861
863.24	22322
863.372	21751
863.504	21895
863.636	21907
863.768	21899
863.9	21724
864.032	21831
864.164	21857
864.296	21945
864.428	21918
864.559	21884
864.691	21884
864.823	21713
864.954	21717
865.086	21766
865.217	21648
865.349	21641
865.48	21694
865.612	21614
865.743	21903
865.875	21728
866.006	21732
866.137	21892
866.269	21660
866.4	21564
866.531	21656
866.662	21603
866.793	21690
866.924	21591
867.055	21652
867.186	21656
867.317	21572
867.448	21469
867.579	21648
867.71	21660
867.841	21629
867.972	21599
868.103	21576
868.233	21583
868.364	21545
868.495	21694
868.625	21880
868.756	21964
868.886	21804
869.017	21854
869.147	22070
869.278	21983
869.408	21960
869.539	21884
869.669	22013
869.799	21960
869.929	21987
870.06	21915
870.19	22150
870.32	22124
870.45	22067
870.58	22253
870.71	22333
870.84	22291
870.97	22318
871.1	22169
871.23	22428
871.36	22344
871.489	22386
871.619	22481
871.749	22443
871.879	22481
872.008	22599
872.138	22474
872.267	22440
872.397	22447
872.526	22280
872.656	22280
872.785	22261
872.915	22348
873.044	22573
873.173	22527
873.303	22512
873.432	22512
873.561	22611
873.69	22561
873.819	22504
873.948	22622
874.077	22535
874.206	22398
874.335	22451
874.464	22527
874.593	22649
874.722	22546
874.851	22706
874.979	22725
875.108	22672
875.237	22626
875.365	22721
875.494	22626
875.623	22782
875.751	22683
875.88	22702
876.008	22694
876.136	22911
876.265	23083
876.393	23235
876.521	23155
876.65	23155
876.778	23136
876.906	23033
877.034	22984
877.162	23132
877.29	22987
877.418	23075
877.546	23140
877.674	23048
877.802	23018
877.93	23006
878.058	22995
878.185	22839
878.313	23056
878.441	23064
878.568	22927
878.696	22976
878.824	22980
878.951	23022
879.079	23151
879.206	23421
879.333	23242
879.461	23064
879.588	23204
879.715	23254
879.842	23284
879.97	23121
880.097	22892
880.224	22930
880.351	22885
880.478	22892
880.605	22904
880.732	22881
880.859	23109
880.986	22942
881.112	22892
881.239	22683
881.366	22596
881.493	22459
881.619	22478
881.746	22455
881.872	22409
881.999	22424
882.125	22379
882.252	22577
882.378	22371
882.505	22542
882.631	22386
882.757	22185
882.883	22223
883.01	22101
883.136	22196
883.262	21960
883.388	21892
883.514	22162
883.64	22139
883.766	22067
883.892	21899
884.018	21941
884.143	21991
884.269	22185
884.395	21819
884.52	21709
884.646	21682
884.772	21739
884.897	21652
885.023	21686
885.148	21979
885.274	21800
885.399	21838
885.524	21770
885.65	21759
885.775	21720
885.9	21793
886.025	21846
886.15	21793
886.275	21644
886.4	21526
886.525	21568
886.65	21774
886.775	21728
886.9	21873
887.025	21907
887.149	21667
887.274	21614
887.399	21534
887.523	21530
887.648	21519
887.773	21359
887.897	21587
888.021	21610
888.146	21424
888.27	21656
888.395	21564
888.519	21523
888.643	21629
888.767	21591
888.891	21382
889.015	21355
889.139	21329
889.263	21192
889.387	21412
889.511	21469
889.635	21526
889.759	21199
889.883	21249
890.006	21351
890.13	21310
890.254	21218
890.377	21188
890.501	21119
890.624	20941
890.748	21188
890.871	21013
890.995	20902
891.118	20952
891.241	20815
891.364	20811
891.488	20948
891.611	20815
891.734	20857
891.857	20899
891.98	20876
892.103	20849
892.226	20861
892.349	20853
892.471	20727
892.594	20868
892.717	20792
892.839	20701
892.962	20788
893.085	20864
893.207	20674
893.33	20613
893.452	20670
893.575	20746
893.697	20785
893.819	20918
893.941	20883
894.064	20762
894.186	20674
894.308	20640
894.43	20876
894.552	20811
894.674	20883
894.796	20655
894.918	20743
895.04	20609
895.161	20750
895.283	20876
895.405	20735
895.526	20701
895.648	20746
895.769	20804
895.891	20754
896.012	20781
896.134	20773
896.255	20765
896.376	20712
896.498	20750
896.619	20845
896.74	20716
896.861	20792
896.982	21112
897.103	21203
897.224	20986
897.345	20906
897.466	20796
897.587	20918
897.708	21104
897.828	21013
897.949	20960
898.07	20731
898.19	20861
898.311	20956
898.431	20914
898.552	20807
898.672	21051
898.792	21024
898.913	20883
899.033	20823
899.153	20724
899.273	20613
899.393	20609
899.513	20781
899.633	20716
899.753	20708
899.873	20545
899.993	20716
900.113	20499
900.232	20625
900.352	20625
900.472	20507
900.591	20328
900.711	20568
900.83	20370
900.95	20552
901.069	20556
901.189	20320
901.308	20195
901.427	20081
901.546	20134
901.665	20050
901.784	20020
901.904	20008
902.023	19811
902.141	19700
902.26	19651
902.379	19613
902.498	19495
902.617	19506
902.735	19712
902.854	19487
902.973	19514
903.091	19362
903.21	19240
903.328	19232
903.446	19164
903.565	19023
903.683	18989
903.801	18913
903.919	18871
904.038	18913
904.156	18768
904.274	18913
904.392	18635
904.51	18684
904.627	18791
904.745	18787
904.863	18802
904.981	18620
905.098	18471
905.216	18456
905.334	18540
905.451	18311
905.569	18327
905.686	18445
905.803	18437
905.921	18163
906.038	18296
906.155	18136
906.272	18186
906.389	18060
906.506	17935
906.623	17863
906.74	17897
906.857	17821
906.974	17889
907.091	18121
907.208	18106
907.324	17923
907.441	17885
907.557	17760
907.674	17657
907.79	17566
907.907	17604
908.023	17608
908.139	17665
908.256	17570
908.372	17573
908.488	17581
908.604	17414
908.72	17269
908.836	17425
908.952	17356
909.068	17303
909.184	17436
909.3	17345
909.415	17448
909.531	17455
909.647	17174
909.762	17102
909.878	17056
909.993	17098
910.108	16999
910.224	16991
910.339	16965
910.454	16911
910.57	16927
910.685	16949
910.8	17018
910.915	17014
911.03	16854
911.145	16634
911.259	16615
911.374	16782
911.489	16607
911.604	16573
911.718	16462
911.833	16428
911.947	16341
912.062	16329
912.176	16462
912.291	16424
912.405	16398
912.519	16497
912.633	16550
912.748	16405
912.862	16447
912.976	16200
913.09	16124
913.204	16242
913.318	16147
913.431	16337
913.545	16185
913.659	16230
913.772	16128
913.886	16040
914	15934
914.113	16090
914.226	16082
914.34	16059
914.453	15827
914.566	16025
914.68	15850
914.793	15762
914.906	15713
915.019	15652
915.132	15530
915.245	15618
915.358	15629
915.47	15633
915.583	15701
915.696	15561
915.809	15717
915.921	15728
916.034	15599
916.146	15485
916.259	15401
916.371	15500
916.483	15523
916.595	15428
916.708	15416
916.82	15431
916.932	15370
917.044	15458
917.156	15412
917.268	15222
917.38	15298
917.491	15184
917.603	15180
917.715	15367
917.826	15359
917.938	15070
918.049	15036
918.161	15173
918.272	15363
918.384	15169
918.495	15199
918.606	14982
918.717	14895
918.828	14971
918.939	15009
919.05	14944
919.161	15013
919.272	14830
919.383	14785
919.494	14986
919.604	15135
919.715	14925
919.826	14929
919.936	14956
920.047	15028
920.157	14990
920.267	15146
920.378	14899
920.488	14918
920.598	15154
920.708	15123
920.818	15043
920.928	15028
921.038	15222
921.148	15195
921.258	14918
921.368	14731
921.477	14750
921.587	14701
921.697	14568
921.806	14743
921.916	14556
922.025	14324
922.134	14366
922.244	14320
922.353	14355
922.462	14149
922.571	14164
922.68	13974
922.789	13936
922.898	14035
923.007	13871
923.116	14008
923.224	13951
923.333	13902
923.442	13814
923.55	13727
923.659	13814
923.767	13894
923.876	13719
923.984	13715
924.092	13693
924.201	13639
924.309	13712
924.417	13662
924.525	13605
924.633	13518
924.741	14549
924.849	13350
924.956	13480
925.064	13400
925.172	13350
925.279	13369
925.387	13324
925.494	13327
925.602	13491
925.709	13472
925.816	13293
925.924	13206
926.031	13354
926.138	13308
926.245	13263
926.352	13118
926.459	13320
926.566	13346
926.673	13202
926.779	13099
926.886	13019
926.993	12958
927.099	12962
927.206	12913
927.312	12817
927.419	12985
927.525	12932
927.631	12844
927.737	12749
927.843	12779
927.95	12719
928.056	12722
928.162	12677
928.267	12798
928.373	13327
928.479	12734
928.585	12582
928.69	12612
928.796	12635
928.901	12498
929.007	12452
929.112	12597
929.218	12513
929.323	12479
929.428	12486
929.533	12513
929.638	12388
929.743	12304
929.848	12509
929.953	12342
930.058	12262
930.163	12068
930.267	12041
930.372	12235
930.477	12041
930.581	12330
930.685	12079
930.79	12015
930.894	12057
930.998	12019
931.103	12087
931.207	11661
931.311	11630
931.415	11573
931.519	11402
931.623	11341
