Data from test_V78500241_3535.txt Node
Date: Fri Mar 25 16:06:17 CST 2022
User: usil
Spectrometer: V785-0024
Trigger mode: 0
Integration Time (sec): 4.000000E-1
Scans to average: 1
Nonlinearity correction enabled: false
Boxcar width: 0
Storing dark spectrum: false
XAxis mode: Wavelengths
Number of Pixels in Spectrum: 1024
>>>>>Begin Spectral Data<<<<<
801.071	28942
801.214	28778
801.356	28531
801.499	28561
801.641	28500
801.783	28519
801.926	28523
802.068	28436
802.211	28417
802.353	28405
802.496	28223
802.638	28143
802.78	28078
802.923	28143
803.065	28051
803.208	28211
803.35	28238
803.492	28280
803.635	28295
803.777	28287
803.919	28478
804.061	28717
804.204	28451
804.346	28348
804.488	28261
804.63	28500
804.773	28226
804.915	28523
805.057	28569
805.199	28447
805.341	28584
805.483	28542
805.626	28660
805.768	28443
805.91	28557
806.052	28603
806.194	28478
806.336	28816
806.478	28679
806.62	28493
806.762	28740
806.904	28908
807.046	29060
807.188	28934
807.33	29067
807.472	29086
807.614	28896
807.756	28953
807.898	28987
808.04	28888
808.182	28797
808.324	28938
808.465	28976
808.607	29136
808.749	29402
808.891	29417
809.033	29520
809.174	29375
809.316	29254
809.458	29136
809.6	29242
809.741	29326
809.883	29440
810.025	29577
810.166	29619
810.308	29547
810.45	29551
810.591	29478
810.733	29372
810.875	29372
811.016	29242
811.158	29231
811.299	29269
811.441	29467
811.582	29368
811.724	29391
811.865	29239
812.007	29181
812.148	29368
812.29	29402
812.431	29402
812.573	29707
812.714	29554
812.855	29775
812.997	29862
813.138	30053
813.279	29824
813.421	29859
813.562	29790
813.703	29600
813.845	29467
813.986	29105
814.127	29033
814.268	29029
814.41	29094
814.551	29117
814.692	29037
814.833	28908
814.974	28896
815.115	29075
815.256	28801
815.397	28904
815.539	28927
815.68	28866
815.821	28649
815.962	28771
816.103	28797
816.244	28725
816.385	28580
816.526	28717
816.666	28394
816.807	28295
816.948	28363
817.089	28344
817.23	28310
817.371	28246
817.512	28344
817.653	28295
817.793	28234
817.934	28390
818.075	28329
818.216	28162
818.356	28139
818.497	28166
818.638	27987
818.778	28131
818.919	28128
819.06	28177
819.2	28329
819.341	28379
819.481	28272
819.622	28546
819.762	28664
819.903	28603
820.043	28481
820.184	28485
820.324	28466
820.465	28451
820.605	28299
820.746	28417
820.886	28325
821.026	28459
821.167	28337
821.307	28516
821.447	28329
821.588	28253
821.728	28097
821.868	27918
822.008	27831
822.149	27873
822.289	27899
822.429	27622
822.569	27477
822.709	27667
822.849	27279
822.99	27386
823.13	27279
823.27	27245
823.41	27184
823.55	27062
823.69	27112
823.83	27176
823.97	27001
824.11	26940
824.25	26838
824.389	27051
824.529	27127
824.669	26940
824.809	26925
824.949	27077
825.089	26853
825.228	27093
825.368	26876
825.508	26815
825.648	26918
825.787	26796
825.927	26914
826.067	26895
826.206	26826
826.346	26842
826.485	26921
826.625	26811
826.765	26963
826.904	26918
827.044	26583
827.183	26583
827.323	26484
827.462	26636
827.601	26507
827.741	26526
827.88	26552
828.02	26336
828.159	26495
828.298	26453
828.437	26564
828.577	26518
828.716	26651
828.855	26438
828.994	26176
829.134	26385
829.273	26282
829.412	26248
829.551	26092
829.69	26366
829.829	26225
829.968	26320
830.107	26358
830.246	26259
830.385	26206
830.524	26138
830.663	26054
830.802	26016
830.941	25708
831.08	25887
831.219	25993
831.357	25982
831.496	26039
831.635	25898
831.774	25753
831.913	25647
832.051	25780
832.19	25662
832.329	25666
832.467	25647
832.606	25575
832.744	25419
832.883	25571
833.022	25476
833.16	25491
833.299	25533
833.437	25586
833.576	25563
833.714	25571
833.852	25601
833.991	25689
834.129	25837
834.267	25601
834.406	25643
834.544	25613
834.682	25487
834.821	25453
834.959	25719
835.097	25472
835.235	25601
835.373	25510
835.511	25514
835.65	25464
835.788	25388
835.926	25206
836.064	25072
836.202	25190
836.34	25362
836.478	25499
836.615	25392
836.753	25377
836.891	25419
837.029	25525
837.167	25392
837.305	25259
837.443	25168
837.58	25293
837.718	25266
837.856	25225
837.993	25156
838.131	25198
838.269	25088
838.406	25225
838.544	25072
838.681	24817
838.819	24924
838.956	24730
839.094	24661
839.231	24776
839.369	24886
839.506	25091
839.643	24992
839.781	24757
839.918	24574
840.055	24597
840.193	24665
840.33	24544
840.467	24532
840.604	24627
840.742	24833
840.879	24559
841.016	24525
841.153	24395
841.29	24726
841.427	24623
841.564	24673
841.701	24642
841.838	24589
841.975	24551
842.112	24452
842.249	24464
842.385	24399
842.522	24464
842.659	24509
842.796	24452
842.933	24201
843.069	24292
843.206	24346
843.343	24292
843.479	24327
843.616	24292
843.752	24114
843.889	24186
844.025	24273
844.162	24102
844.298	24095
844.435	23996
844.571	24152
844.708	24197
844.844	24372
844.98	24239
845.117	24239
845.253	24026
845.389	23969
845.525	23946
845.661	23882
845.798	23767
845.934	23923
846.07	23847
846.206	23901
846.342	24106
846.478	23821
846.614	23661
846.75	23448
846.886	23646
847.022	23653
847.158	23661
847.294	23539
847.429	23657
847.565	23516
847.701	23805
847.837	23147
847.972	23280
848.108	23531
848.244	23349
848.379	23193
848.515	23235
848.65	23064
848.786	23265
848.921	23216
849.057	23162
849.192	23273
849.328	23189
849.463	23204
849.598	23052
849.734	23136
849.869	22953
850.004	22953
850.14	23014
850.275	22919
850.41	22885
850.545	22824
850.68	22755
850.815	23037
850.95	22896
851.085	23136
851.22	23094
851.355	23071
851.49	22877
851.625	22869
851.76	22847
851.895	22858
852.03	22881
852.165	23022
852.299	23041
852.434	23121
852.569	22946
852.703	22999
852.838	22976
852.973	23022
853.107	23018
853.242	22938
853.376	22778
853.511	22626
853.645	22691
853.78	22915
853.914	22767
854.048	22744
854.183	22729
854.317	22733
854.451	22946
854.585	22679
854.72	22759
854.854	22820
854.988	22611
855.122	22698
855.256	22596
855.39	22706
855.524	22797
855.658	22782
855.792	22653
855.926	22717
856.06	22862
856.194	22805
856.327	22649
856.461	22672
856.595	22729
856.729	22679
856.862	22717
856.996	22786
857.13	22694
857.263	22873
857.397	22877
857.53	22656
857.664	22820
857.797	22847
857.931	22866
858.064	22843
858.197	22919
858.331	22744
858.464	22767
858.597	22706
858.731	22717
858.864	22660
858.997	22698
859.13	22816
859.263	22767
859.396	22843
859.529	22801
859.662	22630
859.795	22618
859.928	22740
860.061	22835
860.194	22976
860.327	22763
860.46	22763
860.592	23044
860.725	22953
860.858	22774
860.99	22831
861.123	22797
861.256	22626
861.388	22767
861.521	23452
861.653	22618
861.786	22637
861.918	22584
862.05	22508
862.183	22668
862.315	22694
862.447	22733
862.58	22664
862.712	22588
862.844	22337
862.976	22573
863.108	22516
863.24	22854
863.372	22318
863.504	22443
863.636	22409
863.768	22561
863.9	22603
864.032	22341
864.164	22371
864.296	22424
864.428	22538
864.559	22550
864.691	22500
864.823	22523
864.954	22478
865.086	22451
865.217	22303
865.349	22257
865.48	22341
865.612	22329
865.743	22504
865.875	22310
866.006	22280
866.137	22382
866.269	22284
866.4	22261
866.531	22185
866.662	22074
866.793	22417
866.924	22253
867.055	22185
867.186	22333
867.317	22268
867.448	22265
867.579	22238
867.71	22192
867.841	22192
867.972	22230
868.103	22112
868.233	22211
868.364	22211
868.495	22405
868.625	22466
868.756	22645
868.886	22424
869.017	22443
869.147	22557
869.278	22630
869.408	22352
869.539	22508
869.669	22565
869.799	22493
869.929	22546
870.06	22664
870.19	22733
870.32	22706
870.45	22820
870.58	22763
870.71	22991
870.84	22965
870.97	22858
871.1	22953
871.23	23121
871.36	22957
871.489	23083
871.619	22949
871.749	22991
871.879	23102
872.008	23174
872.138	23174
872.267	23037
872.397	22972
872.526	22934
872.656	22839
872.785	22968
872.915	23105
873.044	23235
873.173	23056
873.303	23174
873.432	23094
873.561	23227
873.69	23117
873.819	23010
873.948	23231
874.077	23212
874.206	23086
874.335	23147
874.464	23102
874.593	23254
874.722	23258
874.851	23383
874.979	23429
875.108	23326
875.237	23189
875.365	23193
875.494	23239
875.623	23303
875.751	23296
875.88	23372
876.008	23353
876.136	23493
876.265	23733
876.393	23745
876.521	23748
876.65	23695
876.778	23684
876.906	23566
877.034	23661
877.162	23665
877.29	23596
877.418	23668
877.546	23604
877.674	23585
877.802	23710
877.93	23604
878.058	23509
878.185	23448
878.313	23528
878.441	23554
878.568	23528
878.696	23482
878.824	23638
878.951	23680
879.079	23885
879.206	23745
879.333	23783
879.461	23676
879.588	23794
879.715	23901
879.842	23969
879.97	23752
880.097	23425
880.224	23539
880.351	23501
880.478	23383
880.605	23417
880.732	23478
880.859	23596
880.986	23452
881.112	23417
881.239	23337
881.366	23239
881.493	23124
881.619	23044
881.746	23204
881.872	23037
881.999	23052
882.125	22968
882.252	23029
882.378	22972
882.505	23216
882.631	22809
882.757	22748
882.883	22774
883.01	22622
883.136	22725
883.262	22611
883.388	22641
883.514	22805
883.64	22801
883.766	22603
883.892	22493
884.018	22409
884.143	22596
884.269	22725
884.395	22489
884.52	22249
884.646	22371
884.772	22352
884.897	22169
885.023	22310
885.148	22451
885.274	22565
885.399	22352
885.524	22375
885.65	22272
885.775	22303
885.9	22367
886.025	22363
886.15	22398
886.275	22306
886.4	22135
886.525	22329
886.65	22204
886.775	22188
886.9	22409
887.025	22440
887.149	22363
887.274	22261
887.399	22097
887.523	22055
887.648	22002
887.773	22010
887.897	22147
888.021	22086
888.146	22017
888.27	22188
888.395	22097
888.519	22044
888.643	22055
888.767	22086
888.891	21934
889.015	21922
889.139	21960
889.263	21781
889.387	22013
889.511	22074
889.635	22029
889.759	21865
889.883	21857
890.006	21762
890.13	21819
890.254	21690
890.377	21800
890.501	21705
890.624	21545
890.748	21595
890.871	21553
890.995	21443
891.118	21344
891.241	21477
891.364	21439
891.488	21466
891.611	21393
891.734	21412
891.857	21473
891.98	21435
892.103	21408
892.226	21431
892.349	21294
892.471	21344
892.594	21325
892.717	21310
892.839	21359
892.962	21389
893.085	21408
893.207	21310
893.33	21272
893.452	21146
893.575	21355
893.697	21192
893.819	21397
893.941	21485
894.064	21572
894.186	21249
894.308	21157
894.43	21370
894.552	21401
894.674	21321
894.796	21207
894.918	21287
895.04	21142
895.161	21340
895.283	21336
895.405	21157
895.526	21249
895.648	21203
895.769	21344
895.891	21294
896.012	21249
896.134	21325
896.255	21283
896.376	21241
896.498	21260
896.619	21302
896.74	21272
896.861	21431
896.982	21587
897.103	21724
897.224	21416
897.345	21443
897.466	21424
897.587	21587
897.708	21603
897.828	21625
897.949	21454
898.07	21317
898.19	21485
898.311	21564
898.431	21435
898.552	21511
898.672	21481
898.792	21492
898.913	21538
899.033	21401
899.153	21252
899.273	21150
899.393	21275
899.513	21142
899.633	21275
899.753	21127
899.873	21062
899.993	21180
900.113	21119
900.232	21176
900.352	21157
900.472	21081
900.591	20990
900.711	20929
900.83	20979
900.95	21142
901.069	21009
901.189	20853
901.308	20640
901.427	20632
901.546	20503
901.665	20514
901.784	20602
901.904	20389
902.023	20355
902.141	20157
902.26	20069
902.379	20187
902.498	20058
902.617	20103
902.735	20031
902.854	19936
902.973	19936
903.091	19776
903.21	19613
903.328	19586
903.446	19464
903.565	19411
903.683	19544
903.801	19293
903.919	19491
904.038	19426
904.156	19297
904.274	19228
904.392	19236
904.51	19171
904.627	19217
904.745	19278
904.863	19221
904.981	19137
905.098	18954
905.216	18859
905.334	18878
905.451	19004
905.569	18791
905.686	18928
905.803	18882
905.921	18749
906.038	18821
906.155	18791
906.272	18631
906.389	18601
906.506	18407
906.623	18448
906.74	18475
906.857	18270
906.974	18311
907.091	18506
907.208	18445
907.324	18525
907.441	18338
907.557	18243
907.674	18159
907.79	18121
907.907	18148
908.023	18034
908.139	18190
908.256	18087
908.372	18015
908.488	17942
908.604	17851
908.72	17847
908.836	17840
908.952	17813
909.068	17859
909.184	17927
909.3	17802
909.415	17832
909.531	17764
909.647	17551
909.762	17611
909.878	17547
909.993	17585
910.108	17516
910.224	17516
910.339	17596
910.454	17372
910.57	17299
910.685	17250
910.8	17554
910.915	17532
911.03	17364
911.145	17086
911.259	17022
911.374	17041
911.489	17067
911.604	16980
911.718	16934
911.833	16843
911.947	16618
912.062	16744
912.176	16915
912.291	16911
912.405	16816
912.519	16984
912.633	17071
912.748	16915
912.862	16805
912.976	16683
913.09	16603
913.204	16561
913.318	16763
913.431	16698
913.545	16618
913.659	16763
913.772	16573
913.886	16489
914	16421
914.113	16523
914.226	16497
914.34	16466
914.453	16299
914.566	16500
914.68	16409
914.793	16272
914.906	16086
915.019	16067
915.132	16032
915.245	16124
915.358	16067
915.47	15907
915.583	15968
915.696	16063
915.809	16002
915.921	16154
916.034	15994
916.146	15907
916.259	15926
916.371	15968
916.483	15975
916.595	15823
916.708	15884
916.82	15785
916.932	15838
917.044	15884
917.156	15709
917.268	15701
917.38	15724
917.491	15610
917.603	15618
917.715	15778
917.826	15652
917.938	15580
918.049	15519
918.161	15534
918.272	15724
918.384	15717
918.495	15606
918.606	15488
918.717	15252
918.828	15466
918.939	15397
919.05	15222
919.161	15294
919.272	15066
919.383	15222
919.494	15370
919.604	15629
919.715	15382
919.826	15252
919.936	15420
920.047	15439
920.157	15428
920.267	15496
920.378	15401
920.488	15272
920.598	15545
920.708	15622
920.818	15397
920.928	15447
921.038	15557
921.148	15572
921.258	15329
921.368	15180
921.477	15077
921.587	15180
921.697	14990
921.806	15058
921.916	14880
922.025	14830
922.134	14636
922.244	14606
922.353	14663
922.462	14533
922.571	14503
922.68	14347
922.789	14275
922.898	14317
923.007	14233
923.116	14305
923.224	14298
923.333	14301
923.442	14187
923.55	14115
923.659	14149
923.767	14157
923.876	14084
923.984	14195
924.092	14073
924.201	14111
924.309	14050
924.417	14054
924.525	13989
924.633	13959
924.741	14880
924.849	13879
924.956	13849
925.064	13811
925.172	13685
925.279	13643
925.387	13780
925.494	13655
925.602	13822
925.709	13731
925.816	13582
925.924	13643
926.031	13715
926.138	13639
926.245	13636
926.352	13491
926.459	13666
926.566	13696
926.673	13597
926.779	13445
926.886	13415
926.993	13259
927.099	13152
927.206	13232
927.312	13103
927.419	13244
927.525	13179
927.631	13232
927.737	13137
927.843	13095
927.95	12954
928.056	13008
928.162	13065
928.267	13072
928.373	13681
928.479	13072
928.585	12916
928.69	12943
928.796	13008
928.901	12894
929.007	12749
929.112	12890
929.218	12795
929.323	12795
929.428	12810
929.533	12890
929.638	12677
929.743	12711
929.848	12677
929.953	12711
930.058	12616
930.163	12357
930.267	12429
930.372	12528
930.477	12376
930.581	12616
930.685	12471
930.79	12315
930.894	12228
930.998	12201
931.103	12437
931.207	12019
931.311	11923
931.415	11840
931.519	11703
931.623	11608
