Data from test_V78500241_2776.txt Node
Date: Fri Mar 25 16:01:01 CST 2022
User: usil
Spectrometer: V785-0024
Trigger mode: 0
Integration Time (sec): 4.000000E-1
Scans to average: 1
Nonlinearity correction enabled: false
Boxcar width: 0
Storing dark spectrum: false
XAxis mode: Wavelengths
Number of Pixels in Spectrum: 1024
>>>>>Begin Spectral Data<<<<<
801.071	29113
801.214	29098
801.356	28911
801.499	28816
801.641	28733
801.783	28767
801.926	28801
802.068	28763
802.211	28763
802.353	28793
802.496	28455
802.638	28557
802.78	28630
802.923	28405
803.065	28242
803.208	28390
803.35	28527
803.492	28584
803.635	28672
803.777	28664
803.919	28668
804.061	29174
804.204	28843
804.346	28580
804.488	28607
804.63	28626
804.773	28588
804.915	28850
805.057	28930
805.199	28793
805.341	28729
805.483	28862
805.626	28820
805.768	28774
805.91	29014
806.052	28888
806.194	28816
806.336	29094
806.478	28965
806.62	28957
806.762	29006
806.904	29280
807.046	29459
807.188	29326
807.33	29334
807.472	29436
807.614	29322
807.756	29307
807.898	29254
808.04	29387
808.182	29132
808.324	29102
808.465	29349
808.607	29334
808.749	29531
808.891	29668
809.033	29695
809.174	29687
809.316	29741
809.458	29657
809.6	29539
809.741	29756
809.883	29767
810.025	29752
810.166	29954
810.308	29802
810.45	29859
810.591	29851
810.733	29661
810.875	29745
811.016	29573
811.158	29539
811.299	29566
811.441	29809
811.582	29824
811.724	29699
811.865	29687
812.007	29794
812.148	29745
812.29	29912
812.431	30003
812.573	30057
812.714	29931
812.855	30270
812.997	30334
813.138	30334
813.279	30349
813.421	30140
813.562	30098
813.703	30026
813.845	29786
813.986	29714
814.127	29592
814.268	29436
814.41	29368
814.551	29410
814.692	29661
814.833	29277
814.974	29372
815.115	29398
815.256	29288
815.397	29235
815.539	29315
815.68	29162
815.821	29071
815.962	29083
816.103	29147
816.244	29140
816.385	29083
816.526	28980
816.666	28873
816.807	28641
816.948	28831
817.089	28790
817.23	28763
817.371	28824
817.512	28740
817.653	28698
817.793	28698
817.934	28752
818.075	28706
818.216	28630
818.356	28691
818.497	28557
818.638	28626
818.778	28379
818.919	28508
819.06	28531
819.2	28683
819.341	28729
819.481	28702
819.622	28915
819.762	29022
819.903	29117
820.043	28904
820.184	28991
820.324	28927
820.465	29014
820.605	28805
820.746	28828
820.886	28736
821.026	28828
821.167	28888
821.307	28820
821.447	28702
821.588	28668
821.728	28535
821.868	28299
822.008	28367
822.149	28211
822.289	28280
822.429	28021
822.569	27846
822.709	27899
822.849	27842
822.99	27747
823.13	27762
823.27	27686
823.41	27614
823.55	27431
823.69	27545
823.83	27679
823.97	27481
824.11	27450
824.25	27306
824.389	27344
824.529	27291
824.669	27291
824.809	27587
824.949	27561
825.089	27538
825.228	27268
825.368	27298
825.508	27218
825.648	27306
825.787	27389
825.927	27351
826.067	27245
826.206	27237
826.346	27431
826.485	27424
826.625	27348
826.765	27370
826.904	27599
827.044	27184
827.183	27043
827.323	26906
827.462	27131
827.601	27036
827.741	27013
827.88	27089
828.02	26910
828.159	27108
828.298	27165
828.437	27051
828.577	26990
828.716	27070
828.855	26948
828.994	26636
829.134	26781
829.273	26804
829.412	26731
829.551	26788
829.69	26530
829.829	26800
829.968	26708
830.107	26811
830.246	26674
830.385	26708
830.524	26514
830.663	26568
830.802	26385
830.941	26195
831.08	26282
831.219	26450
831.357	26313
831.496	26526
831.635	26278
831.774	26278
831.913	26180
832.051	26115
832.19	26191
832.329	26119
832.467	26103
832.606	25879
832.744	25894
832.883	25966
833.022	25947
833.16	25932
833.299	26020
833.437	25959
833.576	26081
833.714	26161
833.852	26100
833.991	26096
834.129	26024
834.267	26103
834.406	26130
834.544	25955
834.682	26103
834.821	26039
834.959	26195
835.097	25830
835.235	26142
835.373	26069
835.511	26077
835.65	25833
835.788	25947
835.926	25871
836.064	25803
836.202	25544
836.34	25978
836.478	25989
836.615	25772
836.753	25772
836.891	25974
837.029	25852
837.167	25795
837.305	25719
837.443	25723
837.58	25613
837.718	25830
837.856	25597
837.993	25616
838.131	25651
838.269	25518
838.406	25506
838.544	25468
838.681	25259
838.819	25285
838.956	25171
839.094	25160
839.231	25160
839.369	25354
839.506	25476
839.643	25377
839.781	25133
839.918	25053
840.055	25206
840.193	25080
840.33	25042
840.467	24962
840.604	25137
840.742	25247
840.879	24840
841.016	24985
841.153	25065
841.29	25187
841.427	25107
841.564	25038
841.701	25103
841.838	25000
841.975	24916
842.112	24928
842.249	24791
842.385	24856
842.522	25187
842.659	24897
842.796	24760
842.933	24795
843.069	24688
843.206	24806
843.343	24810
843.479	24802
843.616	24802
843.752	24711
843.889	24570
844.025	24669
844.162	24559
844.298	24696
844.435	24593
844.571	24574
844.708	24620
844.844	24688
844.98	24798
845.117	24536
845.253	24475
845.389	24429
845.525	24422
845.661	24441
845.798	24292
845.934	24319
846.07	24224
846.206	24350
846.342	24422
846.478	24319
846.614	24205
846.75	23961
846.886	24045
847.022	24034
847.158	24091
847.294	24030
847.429	24034
847.565	23973
847.701	24338
847.837	23707
847.972	23638
848.108	23843
848.244	23809
848.379	23642
848.515	23566
848.65	23653
848.786	23642
848.921	23581
849.057	23729
849.192	23638
849.328	23733
849.463	23642
849.598	23543
849.734	23383
849.869	23512
850.004	23486
850.14	23387
850.275	23376
850.41	23299
850.545	23299
850.68	23376
850.815	23372
850.95	23273
851.085	23592
851.22	23471
851.355	23463
851.49	23246
851.625	23269
851.76	23364
851.895	23250
852.03	23303
852.165	23391
852.299	23284
852.434	23345
852.569	23436
852.703	23353
852.838	23334
852.973	23360
853.107	23429
853.242	23280
853.376	23258
853.511	23003
853.645	23006
853.78	23235
853.914	23212
854.048	23136
854.183	23178
854.317	23250
854.451	23414
854.585	23159
854.72	23117
854.854	23189
854.988	23060
855.122	23121
855.256	23018
855.39	23132
855.524	23356
855.658	23189
855.792	23220
855.926	23216
856.06	23132
856.194	23155
856.327	23083
856.461	23071
856.595	23083
856.729	23193
856.862	23250
856.996	23185
857.13	23216
857.263	23353
857.397	23349
857.53	23197
857.664	23296
857.797	23242
857.931	23337
858.064	23140
858.197	23292
858.331	23231
858.464	22968
858.597	23147
858.731	23166
858.864	23140
858.997	23121
859.13	23124
859.263	23307
859.396	23273
859.529	23105
859.662	23117
859.795	23334
859.928	23178
860.061	23341
860.194	23311
860.327	23239
860.46	23136
860.592	23185
860.725	23254
860.858	23368
860.99	23280
861.123	23071
861.256	23235
861.388	23246
861.521	23901
861.653	23048
861.786	22900
861.918	23010
862.05	23010
862.183	23128
862.315	23143
862.447	23170
862.58	23109
862.712	22820
862.844	22866
862.976	22889
863.108	22949
863.24	23311
863.372	22873
863.504	22812
863.636	22923
863.768	22885
863.9	22908
864.032	22782
864.164	22797
864.296	23006
864.428	22991
864.559	22968
864.691	23033
864.823	22915
864.954	22763
865.086	22828
865.217	22755
865.349	22637
865.48	22816
865.612	22774
865.743	22824
865.875	22721
866.006	22706
866.137	22755
866.269	22736
866.4	22763
866.531	22660
866.662	22672
866.793	22729
866.924	22713
867.055	22744
867.186	22694
867.317	22675
867.448	22538
867.579	22679
867.71	22561
867.841	22710
867.972	22668
868.103	22618
868.233	22733
868.364	22725
868.495	22801
868.625	23018
868.756	22949
868.886	22793
869.017	22923
869.147	22915
869.278	22957
869.408	23033
869.539	22911
869.669	23018
869.799	23018
869.929	23014
870.06	23143
870.19	23265
870.32	23261
870.45	23277
870.58	23337
870.71	23524
870.84	23337
870.97	23242
871.1	23334
871.23	23459
871.36	23497
871.489	23417
871.619	23414
871.749	23391
871.879	23570
872.008	23535
872.138	23516
872.267	23474
872.397	23353
872.526	23368
872.656	23322
872.785	23250
872.915	23657
873.044	23695
873.173	23490
873.303	23684
873.432	23611
873.561	23752
873.69	23493
873.819	23558
873.948	23516
874.077	23543
874.206	23562
874.335	23547
874.464	23707
874.593	23627
874.722	23786
874.851	23783
874.979	23752
875.108	23836
875.237	23714
875.365	23642
875.494	23722
875.623	23779
875.751	23707
875.88	23847
876.008	23859
876.136	23965
876.265	24072
876.393	24239
876.521	24194
876.65	24251
876.778	24247
876.906	24076
877.034	24038
877.162	24003
877.29	23939
877.418	24159
877.546	24106
877.674	24117
877.802	24022
877.93	24064
878.058	24053
878.185	23950
878.313	24106
878.441	24197
878.568	23809
878.696	23897
878.824	23984
878.951	24167
879.079	24266
879.206	24273
879.333	24087
879.461	24064
879.588	24144
879.715	24194
879.842	24270
879.97	24159
880.097	23939
880.224	23855
880.351	24026
880.478	23904
880.605	23969
880.732	23904
880.859	24079
880.986	23882
881.112	23904
881.239	23718
881.366	23623
881.493	23558
881.619	23330
881.746	23471
881.872	23383
881.999	23452
882.125	23383
882.252	23425
882.378	23448
882.505	23372
882.631	23265
882.757	23162
882.883	23151
883.01	23178
883.136	23174
883.262	23018
883.388	23006
883.514	23041
883.64	23056
883.766	23075
883.892	22866
884.018	22896
884.143	22999
884.269	23006
884.395	22778
884.52	22850
884.646	22793
884.772	22618
884.897	22603
885.023	22660
885.148	22854
885.274	22877
885.399	22919
885.524	22729
885.65	22744
885.775	22755
885.9	22698
886.025	22805
886.15	22869
886.275	22748
886.4	22710
886.525	22660
886.65	22569
886.775	22649
886.9	22721
887.025	22991
887.149	22656
887.274	22538
887.399	22413
887.523	22405
887.648	22348
887.773	22363
887.897	22478
888.021	22451
888.146	22436
888.27	22580
888.395	22588
888.519	22519
888.643	22615
888.767	22565
888.891	22325
889.015	22421
889.139	22310
889.263	22230
889.387	22375
889.511	22402
889.635	22424
889.759	22219
889.883	22158
890.006	22207
890.13	22306
890.254	22246
890.377	22185
890.501	22154
890.624	21895
890.748	22067
890.871	22002
890.995	21857
891.118	21743
891.241	21778
891.364	21831
891.488	21915
891.611	21842
891.734	21960
891.857	21953
891.98	21766
892.103	21778
892.226	21850
892.349	21682
892.471	21595
892.594	21671
892.717	21652
892.839	21732
892.962	21686
893.085	21743
893.207	21698
893.33	21629
893.452	21591
893.575	21720
893.697	21675
893.819	21812
893.941	21884
894.064	21785
894.186	21667
894.308	21549
894.43	21637
894.552	21728
894.674	21739
894.796	21542
894.918	21705
895.04	21595
895.161	21732
895.283	21660
895.405	21564
895.526	21660
895.648	21652
895.769	21656
895.891	21660
896.012	21766
896.134	21663
896.255	21682
896.376	21629
896.498	21583
896.619	21774
896.74	21587
896.861	21614
896.982	21762
897.103	21827
897.224	21827
897.345	21835
897.466	21732
897.587	21835
897.708	21831
897.828	21915
897.949	21857
898.07	21762
898.19	21644
898.311	21922
898.431	21724
898.552	21759
898.672	21789
898.792	21800
898.913	21778
899.033	21728
899.153	21534
899.273	21542
899.393	21507
899.513	21660
899.633	21587
899.753	21454
899.873	21378
899.993	21564
900.113	21454
900.232	21542
900.352	21469
900.472	21553
900.591	21252
900.711	21268
900.83	21260
900.95	21447
901.069	21378
901.189	21089
901.308	20937
901.427	20807
901.546	20891
901.665	20899
901.784	20853
901.904	20765
902.023	20590
902.141	20457
902.26	20347
902.379	20469
902.498	20522
902.617	20206
902.735	20377
902.854	20259
902.973	20233
903.091	20107
903.21	20081
903.328	19997
903.446	20008
903.565	19791
903.683	19856
903.801	19601
903.919	19852
904.038	19830
904.156	19594
904.274	19655
904.392	19449
904.51	19552
904.627	19521
904.745	19518
904.863	19537
904.981	19407
905.098	19274
905.216	19228
905.334	19316
905.451	19263
905.569	19259
905.686	19308
905.803	19263
905.921	19034
906.038	19057
906.155	19023
906.272	18909
906.389	18943
906.506	18772
906.623	18798
906.74	18802
906.857	18650
906.974	18707
907.091	18897
907.208	18817
907.324	18642
907.441	18631
907.557	18582
907.674	18456
907.79	18528
907.907	18483
908.023	18441
908.139	18452
908.256	18311
908.372	18338
908.488	18323
908.604	18228
908.72	18144
908.836	18243
908.952	18106
909.068	18410
909.184	18224
909.3	18091
909.415	18174
909.531	18129
909.647	17882
909.762	17821
909.878	17859
909.993	17878
910.108	17859
910.224	17790
910.339	17832
910.454	17687
910.57	17653
910.685	17589
910.8	17931
910.915	17745
911.03	17665
911.145	17589
911.259	17482
911.374	17501
911.489	17322
911.604	17296
911.718	17185
911.833	17220
911.947	17037
912.062	17006
912.176	17250
912.291	17231
912.405	17200
912.519	17326
912.633	17360
912.748	17204
912.862	17094
912.976	16984
913.09	16877
913.204	16908
913.318	16987
913.431	17067
913.545	17003
913.659	17025
913.772	16873
913.886	16831
914	16691
914.113	16771
914.226	16816
914.34	16862
914.453	16535
914.566	16748
914.68	16653
914.793	16508
914.906	16371
915.019	16253
915.132	16249
915.245	16268
915.358	16299
915.47	16371
915.583	16371
915.696	16299
915.809	16413
915.921	16405
916.034	16196
916.146	16173
916.259	16223
916.371	16322
916.483	16215
916.595	16128
916.708	16177
916.82	16143
916.932	16051
917.044	16006
917.156	16002
917.268	15945
917.38	15915
917.491	15907
917.603	15880
917.715	15975
917.826	15915
917.938	15827
918.049	15770
918.161	15895
918.272	15968
918.384	15953
918.495	15762
918.606	15629
918.717	15572
918.828	15591
918.939	15720
919.05	15633
919.161	15526
919.272	15511
919.383	15458
919.494	15530
919.604	15698
919.715	15667
919.826	15500
919.936	15599
920.047	15656
920.157	15641
920.267	15648
920.378	15610
920.488	15625
920.598	15759
920.708	15781
920.818	15785
920.928	15675
921.038	15781
921.148	15770
921.258	15454
921.368	15462
921.477	15313
921.587	15329
921.697	15146
921.806	15336
921.916	15123
922.025	15028
922.134	14807
922.244	14849
922.353	15013
922.462	14864
922.571	14720
922.68	14583
922.789	14541
922.898	14613
923.007	14495
923.116	14632
923.224	14590
923.333	14610
923.442	14450
923.55	14442
923.659	14431
923.767	14522
923.876	14320
923.984	14385
924.092	14275
924.201	14332
924.309	14278
924.417	14206
924.525	14195
924.633	14176
924.741	15116
924.849	13921
924.956	14107
925.064	14005
925.172	13833
925.279	13849
925.387	13936
925.494	13993
925.602	14062
925.709	13921
925.816	13769
925.924	13909
926.031	13997
926.138	13879
926.245	13974
926.352	13788
926.459	13890
926.566	13947
926.673	13757
926.779	13731
926.886	13624
926.993	13567
927.099	13472
927.206	13327
927.312	13369
927.419	13491
927.525	13384
927.631	13407
927.737	13407
927.843	13244
927.95	13217
928.056	13369
928.162	13304
928.267	13339
928.373	13856
928.479	13358
928.585	13118
928.69	13107
928.796	13209
928.901	13198
929.007	12996
929.112	13072
929.218	13072
929.323	13046
929.428	13000
929.533	13194
929.638	12905
929.743	12913
929.848	12901
929.953	13027
930.058	12814
930.163	12684
930.267	12669
930.372	12829
930.477	12559
930.581	12795
930.685	12540
930.79	12483
930.894	12597
930.998	12418
931.103	12582
931.207	12228
931.311	12201
931.415	12133
931.519	11885
931.623	11916
