Data from test_V78500241_3093.txt Node
Date: Fri Mar 25 16:03:13 CST 2022
User: usil
Spectrometer: V785-0024
Trigger mode: 0
Integration Time (sec): 4.000000E-1
Scans to average: 1
Nonlinearity correction enabled: false
Boxcar width: 0
Storing dark spectrum: false
XAxis mode: Wavelengths
Number of Pixels in Spectrum: 1024
>>>>>Begin Spectral Data<<<<<
801.071	28546
801.214	28466
801.356	28268
801.499	28181
801.641	28234
801.783	28166
801.926	28166
802.068	28013
802.211	28044
802.353	27968
802.496	27759
802.638	27911
802.78	27778
802.923	27739
803.065	27530
803.208	27774
803.35	27690
803.492	27804
803.635	27987
803.777	27838
803.919	28063
804.061	28333
804.204	27998
804.346	27983
804.488	27865
804.63	28048
804.773	27930
804.915	28040
805.057	28196
805.199	27907
805.341	28143
805.483	28219
805.626	28154
805.768	28090
805.91	28242
806.052	28341
806.194	28105
806.336	28322
806.478	28090
806.62	28131
806.762	28401
806.904	28352
807.046	28748
807.188	28535
807.33	28653
807.472	28637
807.614	28626
807.756	28626
807.898	28447
808.04	28485
808.182	28421
808.324	28504
808.465	28550
808.607	28748
808.749	28843
808.891	28930
809.033	29102
809.174	28805
809.316	28839
809.458	28771
809.6	28786
809.741	28831
809.883	28873
810.025	29223
810.166	29041
810.308	29258
810.45	29124
810.591	29006
810.733	28900
810.875	28805
811.016	28809
811.158	28763
811.299	28946
811.441	29064
811.582	29083
811.724	28854
811.865	28809
812.007	28896
812.148	28778
812.29	28835
812.431	28991
812.573	29303
812.714	29303
812.855	29368
812.997	29471
813.138	29524
813.279	29509
813.421	29410
813.562	29269
813.703	29056
813.845	29022
813.986	28786
814.127	28706
814.268	28584
814.41	28634
814.551	28478
814.692	28538
814.833	28573
814.974	28618
815.115	28618
815.256	28550
815.397	28573
815.539	28455
815.68	28363
815.821	28379
815.962	28363
816.103	28421
816.244	28226
816.385	28154
816.526	28211
816.666	27979
816.807	27914
816.948	27922
817.089	27895
817.23	27869
817.371	27827
817.512	27785
817.653	27914
817.793	27808
817.934	27979
818.075	27888
818.216	27781
818.356	27838
818.497	27781
818.638	27633
818.778	27732
818.919	27675
819.06	27766
819.2	27728
819.341	27778
819.481	27953
819.622	27994
819.762	28280
819.903	28249
820.043	28139
820.184	28010
820.324	28101
820.465	28063
820.605	27994
820.746	27899
820.886	27892
821.026	27998
821.167	27899
821.307	27968
821.447	27888
821.588	27762
821.728	27736
821.868	27580
822.008	27408
822.149	27374
822.289	27401
822.429	27058
822.569	26982
822.709	27070
822.849	26853
822.99	26887
823.13	26883
823.27	26762
823.41	26750
823.55	26625
823.69	26686
823.83	26754
823.97	26651
824.11	26442
824.25	26412
824.389	26476
824.529	26720
824.669	26541
824.809	26587
824.949	26686
825.089	26571
825.228	26499
825.368	26374
825.508	26404
825.648	26412
825.787	26434
825.927	26511
826.067	26381
826.206	26473
826.346	26377
826.485	26492
826.625	26537
826.765	26366
826.904	26355
827.044	26111
827.183	26096
827.323	26084
827.462	26134
827.601	26168
827.741	26092
827.88	26069
828.02	25860
828.159	26096
828.298	26149
828.437	26142
828.577	26069
828.716	26126
828.855	25959
828.994	25757
829.134	25807
829.273	25841
829.412	25746
829.551	25731
829.69	25883
829.829	25814
829.968	25845
830.107	25849
830.246	25894
830.385	25674
830.524	25704
830.663	25696
830.802	25613
830.941	25400
831.08	25369
831.219	25586
831.357	25430
831.496	25597
831.635	25392
831.774	25392
831.913	25327
832.051	25183
832.19	25209
832.329	25206
832.467	25137
832.606	24962
832.744	24939
832.883	25038
833.022	25027
833.16	25046
833.299	25228
833.437	25031
833.576	25027
833.714	25129
833.852	25263
833.991	25209
834.129	25050
834.267	25141
834.406	25209
834.544	25209
834.682	25126
834.821	25114
834.959	25312
835.097	25046
835.235	25175
835.373	25213
835.511	25095
835.65	24894
835.788	25107
835.926	24875
836.064	24844
836.202	24802
836.34	25000
836.478	25110
836.615	25019
836.753	24905
836.891	25012
837.029	24882
837.167	24905
837.305	24867
837.443	24833
837.58	24772
837.718	24886
837.856	24715
837.993	24787
838.131	24814
838.269	24654
838.406	24730
838.544	24673
838.681	24494
838.819	24509
838.956	24262
839.094	24327
839.231	24319
839.369	24498
839.506	24582
839.643	24525
839.781	24235
839.918	24182
840.055	24239
840.193	24311
840.33	24220
840.467	24182
840.604	24148
840.742	24441
840.879	23980
841.016	24030
841.153	24060
841.29	24167
841.427	24121
841.564	24190
841.701	24205
841.838	24079
841.975	24121
842.112	24095
842.249	24163
842.385	24057
842.522	24129
842.659	24057
842.796	23897
842.933	23961
843.069	23904
843.206	23958
843.343	23916
843.479	23878
843.616	23988
843.752	23676
843.889	23741
844.025	23855
844.162	23630
844.298	23737
844.435	23695
844.571	23752
844.708	23627
844.844	23771
844.98	23836
845.117	23733
845.253	23783
845.389	23703
845.525	23596
845.661	23722
845.798	23387
845.934	23577
846.07	23425
846.206	23436
846.342	23623
846.478	23406
846.614	23246
846.75	23079
846.886	23113
847.022	23258
847.158	23079
847.294	23060
847.429	23189
847.565	23227
847.701	23277
847.837	22927
847.972	22942
848.108	22984
848.244	22972
848.379	22771
848.515	22748
848.65	22656
848.786	22752
848.921	22793
849.057	22786
849.192	22809
849.328	22797
849.463	22854
849.598	22637
849.734	22637
849.869	22565
850.004	22588
850.14	22451
850.275	22462
850.41	22462
850.545	22462
850.68	22466
850.815	22622
850.95	22455
851.085	22835
851.22	22588
851.355	22599
851.49	22478
851.625	22592
851.76	22588
851.895	22432
852.03	22428
852.165	22538
852.299	22535
852.434	22546
852.569	22489
852.703	22459
852.838	22660
852.973	22744
853.107	22649
853.242	22535
853.376	22246
853.511	22249
853.645	22363
853.78	22451
853.914	22447
854.048	22219
854.183	22348
854.317	22337
854.451	22660
854.585	22478
854.72	22299
854.854	22500
854.988	22261
855.122	22322
855.256	22154
855.39	22318
855.524	22417
855.658	22356
855.792	22337
855.926	22356
856.06	22386
856.194	22443
856.327	22363
856.461	22261
856.595	22249
856.729	22249
856.862	22314
856.996	22295
857.13	22356
857.263	22630
857.397	22375
857.53	22272
857.664	22478
857.797	22299
857.931	22466
858.064	22386
858.197	22466
858.331	22325
858.464	22211
858.597	22272
858.731	22329
858.864	22238
858.997	22436
859.13	22314
859.263	22337
859.396	22428
859.529	22371
859.662	22253
859.795	22310
859.928	22295
860.061	22561
860.194	22440
860.327	22318
860.46	22360
860.592	22451
860.725	22497
860.858	22470
860.99	22341
861.123	22211
861.256	22318
861.388	22223
861.521	23006
861.653	22219
861.786	22215
861.918	22226
862.05	22268
862.183	22306
862.315	22181
862.447	22379
862.58	22284
862.712	22067
862.844	21964
862.976	22086
863.108	22051
863.24	22379
863.372	21956
863.504	22101
863.636	22120
863.768	22055
863.9	22200
864.032	22055
864.164	22029
864.296	22124
864.428	22162
864.559	22010
864.691	22147
864.823	22044
864.954	22010
865.086	22021
865.217	21945
865.349	21884
865.48	21930
865.612	21937
865.743	21998
865.875	22078
866.006	21926
866.137	21800
866.269	21918
866.4	21907
866.531	21911
866.662	21762
866.793	21968
866.924	21823
867.055	21789
867.186	22013
867.317	21755
867.448	21846
867.579	21873
867.71	21793
867.841	21823
867.972	21892
868.103	21861
868.233	21873
868.364	21888
868.495	21861
868.625	21983
868.756	22147
868.886	21922
869.017	22070
869.147	22204
869.278	22329
869.408	22131
869.539	22196
869.669	22238
869.799	22097
869.929	22215
870.06	22234
870.19	22443
870.32	22367
870.45	22375
870.58	22531
870.71	22603
870.84	22603
870.97	22417
871.1	22512
871.23	22706
871.36	22675
871.489	22717
871.619	22615
871.749	22618
871.879	22721
872.008	22733
872.138	22805
872.267	22683
872.397	22607
872.526	22569
872.656	22356
872.785	22409
872.915	22835
873.044	22706
873.173	22706
873.303	22824
873.432	22725
873.561	22797
873.69	22805
873.819	22725
873.948	22782
874.077	22847
874.206	22603
874.335	22809
874.464	22812
874.593	22877
874.722	22892
874.851	23067
874.979	22896
875.108	23060
875.237	22862
875.365	22908
875.494	22908
875.623	23006
875.751	22908
875.88	23041
876.008	23048
876.136	23143
876.265	23235
876.393	23528
876.521	23372
876.65	23330
876.778	23212
876.906	23265
877.034	23265
877.162	23410
877.29	23216
877.418	23326
877.546	23337
877.674	23185
877.802	23277
877.93	23220
878.058	23292
878.185	23189
878.313	23216
878.441	23155
878.568	23083
878.696	23288
878.824	23208
878.951	23307
879.079	23486
879.206	23547
879.333	23273
879.461	23383
879.588	23322
879.715	23570
879.842	23482
879.97	23307
880.097	23136
880.224	23162
880.351	23166
880.478	23029
880.605	23048
880.732	23204
880.859	23261
880.986	23083
881.112	23022
881.239	22877
881.366	22839
881.493	22824
881.619	22649
881.746	22866
881.872	22736
881.999	22630
882.125	22561
882.252	22660
882.378	22687
882.505	22729
882.631	22580
882.757	22344
882.883	22489
883.01	22344
883.136	22348
883.262	22177
883.388	22242
883.514	22303
883.64	22390
883.766	22268
883.892	22093
884.018	22181
884.143	22352
884.269	22451
884.395	22067
884.52	21926
884.646	22002
884.772	21880
884.897	21846
885.023	22067
885.148	22044
885.274	22105
885.399	22074
885.524	22013
885.65	22025
885.775	22063
885.9	21949
886.025	22112
886.15	22067
886.275	21823
886.4	21842
886.525	21941
886.65	21922
886.775	21930
886.9	22013
887.025	22242
887.149	21941
887.274	21812
887.399	21705
887.523	21789
887.648	21606
887.773	21606
887.897	21751
888.021	21793
888.146	21717
888.27	21812
888.395	21876
888.519	21857
888.643	21633
888.767	21774
888.891	21629
889.015	21488
889.139	21507
889.263	21591
889.387	21686
889.511	21743
889.635	21728
889.759	21485
889.883	21447
890.006	21580
890.13	21580
890.254	21389
890.377	21435
890.501	21332
890.624	21173
890.748	21306
890.871	21195
890.995	21005
891.118	21039
891.241	21093
891.364	21142
891.488	21222
891.611	21135
891.734	21119
891.857	21154
891.98	21043
892.103	21043
892.226	20990
892.349	21013
892.471	20834
892.594	21032
892.717	21154
892.839	20998
892.962	20986
893.085	21089
893.207	20902
893.33	20872
893.452	20944
893.575	21058
893.697	20902
893.819	21192
893.941	21241
894.064	21195
894.186	20929
894.308	20773
894.43	21039
894.552	21203
894.674	21020
894.796	20956
894.918	20891
895.04	20975
895.161	21028
895.283	20887
895.405	20906
895.526	20967
895.648	20994
895.769	20895
895.891	21009
896.012	21119
896.134	20990
896.255	20956
896.376	20925
896.498	20956
896.619	20872
896.74	20910
896.861	21017
896.982	21180
897.103	21435
897.224	21237
897.345	21249
897.466	21119
897.587	21127
897.708	21222
897.828	21184
897.949	21112
898.07	20899
898.19	21096
898.311	21214
898.431	21074
898.552	21009
898.672	21222
898.792	21184
898.913	21154
899.033	21108
899.153	20971
899.273	20872
899.393	20952
899.513	20906
899.633	20902
899.753	20910
899.873	20731
899.993	20906
900.113	20773
900.232	20739
900.352	20727
900.472	20697
900.591	20560
900.711	20636
900.83	20621
900.95	20781
901.069	20727
901.189	20461
901.308	20218
901.427	20092
901.546	20233
901.665	20225
901.784	20202
901.904	20199
902.023	20035
902.141	19753
902.26	19662
902.379	19841
902.498	19700
902.617	19609
902.735	19712
902.854	19696
902.973	19708
903.091	19400
903.21	19426
903.328	19415
903.446	19282
903.565	19274
903.683	19297
903.801	19015
903.919	19050
904.038	19091
904.156	19080
904.274	19034
904.392	18909
904.51	18958
904.627	18905
904.745	18913
904.863	18981
904.981	18700
905.098	18616
905.216	18597
905.334	18684
905.451	18551
905.569	18589
905.686	18582
905.803	18551
905.921	18403
906.038	18589
906.155	18422
906.272	18323
906.389	18376
906.506	18083
906.623	18209
906.74	18129
906.857	18148
906.974	18019
907.091	18232
907.208	18213
907.324	18163
907.441	17999
907.557	17851
907.674	17756
907.79	17794
907.907	17851
908.023	17870
908.139	17805
908.256	17805
908.372	17726
908.488	17802
908.604	17608
908.72	17512
908.836	17630
908.952	17532
909.068	17665
909.184	17627
909.3	17493
909.415	17558
909.531	17676
909.647	17269
909.762	17330
909.878	17265
909.993	17239
910.108	17132
910.224	17239
910.339	17258
910.454	17162
910.57	17094
910.685	16953
910.8	17269
910.915	17223
911.03	16991
911.145	16805
911.259	16744
911.374	16843
911.489	16717
911.604	16771
911.718	16679
911.833	16561
911.947	16519
912.062	16474
912.176	16637
912.291	16493
912.405	16603
912.519	16782
912.633	16664
912.748	16618
912.862	16653
912.976	16474
913.09	16352
913.204	16344
913.318	16379
913.431	16641
913.545	16402
913.659	16523
913.772	16379
913.886	16306
914	16360
914.113	16310
914.226	16280
914.34	16226
914.453	16120
914.566	16242
914.68	16124
914.793	16074
914.906	15850
915.019	15808
915.132	15759
915.245	15755
915.358	15800
915.47	15732
915.583	15831
915.696	15869
915.809	15865
915.921	15873
916.034	15724
916.146	15694
916.259	15667
916.371	15747
916.483	15633
916.595	15496
916.708	15614
916.82	15606
916.932	15572
917.044	15591
917.156	15515
917.268	15367
917.38	15431
917.491	15344
917.603	15374
917.715	15496
917.826	15542
917.938	15435
918.049	15256
918.161	15363
918.272	15507
918.384	15386
918.495	15310
918.606	15192
918.717	15081
918.828	15192
918.939	15169
919.05	15127
919.161	15085
919.272	14842
919.383	14982
919.494	15142
919.604	15294
919.715	15123
919.826	15024
919.936	15013
920.047	15138
920.157	15146
920.267	15211
920.378	15108
920.488	15017
920.598	15272
920.708	15397
920.818	15245
920.928	15233
921.038	15306
921.148	15268
921.258	15047
921.368	14876
921.477	14857
921.587	14712
921.697	14693
921.806	14861
921.916	14693
922.025	14499
922.134	14427
922.244	14450
922.353	14476
922.462	14370
922.571	14339
922.68	14149
922.789	14077
922.898	14115
923.007	14115
923.116	14111
923.224	14020
923.333	13986
923.442	13879
923.55	13940
923.659	13997
923.767	14084
923.876	13788
923.984	13890
924.092	13841
924.201	13811
924.309	13856
924.417	13906
924.525	13719
924.633	13738
924.741	14568
924.849	13613
924.956	13639
925.064	13578
925.172	13388
925.279	13445
925.387	13502
925.494	13419
925.602	13658
925.709	13632
925.816	13415
925.924	13392
926.031	13476
926.138	13426
926.245	13453
926.352	13316
926.459	13460
926.566	13441
926.673	13438
926.779	13217
926.886	13103
926.993	13004
927.099	12958
927.206	13027
927.312	12905
927.419	13179
927.525	13008
927.631	13076
927.737	12973
927.843	12920
927.95	12753
928.056	12863
928.162	12821
928.267	12894
928.373	13544
928.479	12875
928.585	12601
928.69	12741
928.796	12894
928.901	12669
929.007	12582
929.112	12673
929.218	12620
929.323	12559
929.428	12597
929.533	12700
929.638	12467
929.743	12601
929.848	12585
929.953	12486
930.058	12464
930.163	12194
930.267	12243
930.372	12327
930.477	12232
930.581	12365
930.685	12258
930.79	12064
930.894	12110
930.998	12098
931.103	12254
931.207	11897
931.311	11767
931.415	11703
931.519	11505
931.623	11433
