Data from test_V78500241_2740.txt Node
Date: Fri Mar 25 16:00:46 CST 2022
User: usil
Spectrometer: V785-0024
Trigger mode: 0
Integration Time (sec): 4.000000E-1
Scans to average: 1
Nonlinearity correction enabled: false
Boxcar width: 0
Storing dark spectrum: false
XAxis mode: Wavelengths
Number of Pixels in Spectrum: 1024
>>>>>Begin Spectral Data<<<<<
801.071	28306
801.214	28398
801.356	28139
801.499	28154
801.641	27983
801.783	27941
801.926	28002
802.068	27934
802.211	27819
802.353	27949
802.496	27717
802.638	27728
802.78	27660
802.923	27492
803.065	27492
803.208	27599
803.35	27603
803.492	27842
803.635	27831
803.777	27907
803.919	27743
804.061	28131
804.204	27953
804.346	27941
804.488	27797
804.63	27880
804.773	27705
804.915	27873
805.057	27945
805.199	27979
805.341	27949
805.483	28021
805.626	28032
805.768	27888
805.91	27941
806.052	27987
806.194	27975
806.336	28116
806.478	28093
806.62	28147
806.762	28192
806.904	28470
807.046	28519
807.188	28409
807.33	28554
807.472	28557
807.614	28314
807.756	28337
807.898	28398
808.04	28329
808.182	28219
808.324	28234
808.465	28325
808.607	28546
808.749	28675
808.891	28702
809.033	28896
809.174	28672
809.316	28611
809.458	28554
809.6	28691
809.741	28816
809.883	28793
810.025	28938
810.166	29086
810.308	28984
810.45	28896
810.591	28805
810.733	28653
810.875	28664
811.016	28622
811.158	28710
811.299	28752
811.441	28908
811.582	28896
811.724	28702
811.865	28744
812.007	28672
812.148	28641
812.29	28892
812.431	28930
812.573	28968
812.714	29128
812.855	29204
812.997	29364
813.138	29463
813.279	29296
813.421	29284
813.562	29128
813.703	29025
813.845	29041
813.986	28675
814.127	28554
814.268	28443
814.41	28497
814.551	28504
814.692	28504
814.833	28341
814.974	28379
815.115	28535
815.256	28272
815.397	28348
815.539	28424
815.68	28211
815.821	28181
815.962	28207
816.103	28257
816.244	28086
816.385	28002
816.526	28067
816.666	27835
816.807	27644
816.948	27819
817.089	27816
817.23	27835
817.371	27808
817.512	27713
817.653	27732
817.793	27732
817.934	27698
818.075	27705
818.216	27804
818.356	27816
818.497	27507
818.638	27359
818.778	27466
818.919	27519
819.06	27629
819.2	27667
819.341	27823
819.481	27675
819.622	27895
819.762	28032
819.903	28051
820.043	27926
820.184	27926
820.324	27884
820.465	28006
820.605	27793
820.746	27778
820.886	27732
821.026	27823
821.167	27808
821.307	27823
821.447	27827
821.588	27606
821.728	27557
821.868	27443
822.008	27146
822.149	27291
822.289	27264
822.429	27104
822.569	26845
822.709	26944
822.849	26849
822.99	26743
823.13	26663
823.27	26621
823.41	26526
823.55	26499
823.69	26492
823.83	26552
823.97	26427
824.11	26457
824.25	26168
824.389	26465
824.529	26476
824.669	26408
824.809	26446
824.949	26400
825.089	26530
825.228	26404
825.368	26290
825.508	26168
825.648	26259
825.787	26168
825.927	26404
826.067	26199
826.206	26180
826.346	26271
826.485	26278
826.625	26233
826.765	26248
826.904	26313
827.044	25936
827.183	25997
827.323	25978
827.462	26001
827.601	26020
827.741	26012
827.88	25849
828.02	25871
828.159	25913
828.298	25978
828.437	26043
828.577	25913
828.716	25986
828.855	25879
828.994	25788
829.134	25696
829.273	25681
829.412	25624
829.551	25552
829.69	25658
829.829	25658
829.968	25662
830.107	25746
830.246	25719
830.385	25552
830.524	25499
830.663	25411
830.802	25441
830.941	25343
831.08	25202
831.219	25369
831.357	25373
831.496	25426
831.635	25050
831.774	25065
831.913	25156
832.051	25126
832.19	25023
832.329	25168
832.467	24852
832.606	24810
832.744	24821
832.883	24924
833.022	24909
833.16	24852
833.299	24863
833.437	25012
833.576	24996
833.714	24981
833.852	25038
833.991	25065
834.129	25038
834.267	25099
834.406	25061
834.544	24970
834.682	24977
834.821	24920
834.959	25236
835.097	24977
835.235	25008
835.373	24973
835.511	24825
835.65	24730
835.788	24901
835.926	24730
836.064	24639
836.202	24669
836.34	24840
836.478	25004
836.615	24897
836.753	24738
836.891	24837
837.029	24760
837.167	24833
837.305	24760
837.443	24585
837.58	24696
837.718	24722
837.856	24642
837.993	24681
838.131	24574
838.269	24486
838.406	24623
838.544	24532
838.681	24262
838.819	24243
838.956	24026
839.094	24095
839.231	24258
839.369	24357
839.506	24376
839.643	24372
839.781	24140
839.918	24098
840.055	24049
840.193	24114
840.33	24007
840.467	24011
840.604	24045
840.742	24232
840.879	23901
841.016	23885
841.153	24018
841.29	23916
841.427	23996
841.564	24034
841.701	24041
841.838	23882
841.975	23992
842.112	23927
842.249	23813
842.385	23783
842.522	24038
842.659	23942
842.796	23718
842.933	23726
843.069	23695
843.206	23661
843.343	23817
843.479	23653
843.616	23718
843.752	23615
843.889	23512
844.025	23691
844.162	23406
844.298	23512
844.435	23539
844.571	23417
844.708	23554
844.844	23657
844.98	23729
845.117	23649
845.253	23505
845.389	23417
845.525	23406
845.661	23410
845.798	23296
845.934	23269
846.07	23372
846.206	23311
846.342	23395
846.478	23395
846.614	23090
846.75	22965
846.886	23037
847.022	23071
847.158	23064
847.294	23018
847.429	23006
847.565	23075
847.701	23220
847.837	22786
847.972	22850
848.108	22900
848.244	22782
848.379	22626
848.515	22493
848.65	22542
848.786	22607
848.921	22550
849.057	22778
849.192	22675
849.328	22656
849.463	22687
849.598	22455
849.734	22550
849.869	22462
850.004	22466
850.14	22394
850.275	22413
850.41	22253
850.545	22386
850.68	22295
850.815	22341
850.95	22352
851.085	22535
851.22	22462
851.355	22409
851.49	22249
851.625	22348
851.76	22306
851.895	22306
852.03	22356
852.165	22402
852.299	22443
852.434	22424
852.569	22333
852.703	22421
852.838	22386
852.973	22455
853.107	22409
853.242	22409
853.376	22211
853.511	22093
853.645	22158
853.78	22306
853.914	22192
854.048	22185
854.183	22219
854.317	22139
854.451	22455
854.585	22253
854.72	22147
854.854	22223
854.988	22150
855.122	22238
855.256	22006
855.39	22128
855.524	22382
855.658	22181
855.792	22147
855.926	22234
856.06	22272
856.194	22398
856.327	22128
856.461	22055
856.595	22196
856.729	22200
856.862	22314
856.996	22147
857.13	22223
857.263	22261
857.397	22356
857.53	22082
857.664	22268
857.797	22249
857.931	22268
858.064	22116
858.197	22253
858.331	22257
858.464	22158
858.597	22074
858.731	22200
858.864	22169
858.997	22166
859.13	22139
859.263	22200
859.396	22242
859.529	22067
859.662	22082
859.795	22196
859.928	22242
860.061	22299
860.194	22386
860.327	22154
860.46	22196
860.592	22291
860.725	22325
860.858	22299
860.99	22139
861.123	22131
861.256	22120
861.388	22109
861.521	22835
861.653	21949
861.786	21918
861.918	22040
862.05	21994
862.183	22109
862.315	22124
862.447	22173
862.58	22067
862.712	21846
862.844	21861
862.976	21876
863.108	22017
863.24	22287
863.372	21793
863.504	21865
863.636	21911
863.768	21876
863.9	21915
864.032	21937
864.164	21800
864.296	21736
864.428	21930
864.559	21998
864.691	22029
864.823	21823
864.954	21876
865.086	21751
865.217	21759
865.349	21751
865.48	21766
865.612	21797
865.743	21850
865.875	21812
866.006	21656
866.137	21873
866.269	21648
866.4	21819
866.531	21717
866.662	21637
866.793	21705
866.924	21701
867.055	21625
867.186	21656
867.317	21709
867.448	21599
867.579	21823
867.71	21705
867.841	21682
867.972	21644
868.103	21789
868.233	21622
868.364	21698
868.495	21838
868.625	21835
868.756	22036
868.886	21816
869.017	21964
869.147	22090
869.278	22025
869.408	21934
869.539	21903
869.669	21892
869.799	21960
869.929	22086
870.06	22010
870.19	22306
870.32	22284
870.45	22204
870.58	22287
870.71	22447
870.84	22382
870.97	22367
871.1	22363
871.23	22478
871.36	22569
871.489	22485
871.619	22550
871.749	22596
871.879	22504
872.008	22641
872.138	22596
872.267	22516
872.397	22337
872.526	22318
872.656	22394
872.785	22284
872.915	22622
873.044	22672
873.173	22577
873.303	22512
873.432	22656
873.561	22733
873.69	22599
873.819	22531
873.948	22626
874.077	22584
874.206	22538
874.335	22557
874.464	22755
874.593	22847
874.722	22790
874.851	22744
874.979	22820
875.108	22850
875.237	22725
875.365	22672
875.494	22691
875.623	22919
875.751	22656
875.88	22854
876.008	22782
876.136	23003
876.265	23155
876.393	23315
876.521	23307
876.65	23345
876.778	23242
876.906	23075
877.034	23094
877.162	23147
877.29	23071
877.418	23033
877.546	23140
877.674	23094
877.802	23124
877.93	23079
878.058	23048
878.185	23041
878.313	22984
878.441	23151
878.568	23014
878.696	23029
878.824	23128
878.951	23208
879.079	23239
879.206	23410
879.333	23193
879.461	23117
879.588	23197
879.715	23273
879.842	23360
879.97	23261
880.097	22953
880.224	22866
880.351	23044
880.478	22984
880.605	22866
880.732	22858
880.859	23079
880.986	22976
881.112	22942
881.239	22900
881.366	22675
881.493	22557
881.619	22561
881.746	22451
881.872	22637
881.999	22508
882.125	22497
882.252	22489
882.378	22424
882.505	22561
882.631	22386
882.757	22314
882.883	22306
883.01	22226
883.136	22078
883.262	22067
883.388	21953
883.514	22177
883.64	22230
883.766	22078
883.892	21998
884.018	21987
884.143	22131
884.269	22147
884.395	21930
884.52	21770
884.646	21800
884.772	21793
884.897	21713
885.023	21850
885.148	21998
885.274	21945
885.399	21907
885.524	21770
885.65	21941
885.775	21930
885.9	21835
886.025	21953
886.15	21876
886.275	21663
886.4	21660
886.525	21854
886.65	21705
886.775	21819
886.9	21888
887.025	21926
887.149	21599
887.274	21618
887.399	21564
887.523	21564
887.648	21549
887.773	21496
887.897	21686
888.021	21564
888.146	21447
888.27	21819
888.395	21610
888.519	21610
888.643	21564
888.767	21629
888.891	21454
889.015	21386
889.139	21412
889.263	21386
889.387	21488
889.511	21576
889.635	21629
889.759	21355
889.883	21291
890.006	21416
890.13	21393
890.254	21340
890.377	21336
890.501	21131
890.624	20990
890.748	21062
890.871	21001
890.995	20849
891.118	20842
891.241	20956
891.364	21017
891.488	21154
891.611	20956
891.734	21036
891.857	21062
891.98	20975
892.103	20895
892.226	20925
892.349	20895
892.471	20731
892.594	20845
892.717	20902
892.839	20727
892.962	20891
893.085	20872
893.207	20876
893.33	20765
893.452	20712
893.575	20754
893.697	20845
893.819	20952
893.941	21028
894.064	20998
894.186	20750
894.308	20765
894.43	20895
894.552	20944
894.674	20956
894.796	20659
894.918	20727
895.04	20743
895.161	20921
895.283	20807
895.405	20686
895.526	20754
895.648	20796
895.769	20902
895.891	20743
896.012	21024
896.134	20857
896.255	20769
896.376	20811
896.498	20796
896.619	20773
896.74	20781
896.861	20880
896.982	21055
897.103	21176
897.224	21112
897.345	21051
897.466	20956
897.587	21028
897.708	21199
897.828	21024
897.949	20986
898.07	20883
898.19	20891
898.311	21032
898.431	20921
898.552	20952
898.672	21142
898.792	21142
898.913	20883
899.033	20807
899.153	20796
899.273	20674
899.393	20796
899.513	20716
899.633	20667
899.753	20834
899.873	20629
899.993	20739
900.113	20613
900.232	20632
900.352	20701
900.472	20507
900.591	20454
900.711	20503
900.83	20571
900.95	20651
901.069	20575
901.189	20408
901.308	20229
901.427	20134
901.546	20172
901.665	20153
901.784	20077
901.904	20008
902.023	19864
902.141	19746
902.26	19651
902.379	19750
902.498	19552
902.617	19605
902.735	19571
902.854	19499
902.973	19582
903.091	19240
903.21	19228
903.328	19148
903.446	19198
903.565	19103
903.683	19046
903.801	18897
903.919	18962
904.038	19076
904.156	18856
904.274	18920
904.392	18802
904.51	18779
904.627	18776
904.745	18806
904.863	18954
904.981	18620
905.098	18601
905.216	18566
905.334	18525
905.451	18521
905.569	18494
905.686	18559
905.803	18483
905.921	18247
906.038	18391
906.155	18201
906.272	18144
906.389	18140
906.506	18041
906.623	18117
906.74	17984
906.857	18060
906.974	17988
907.091	18114
907.208	18178
907.324	18041
907.441	18022
907.557	17726
907.674	17741
907.79	17573
907.907	17627
908.023	17714
908.139	17771
908.256	17623
908.372	17608
908.488	17653
908.604	17452
908.72	17615
908.836	17440
908.952	17436
909.068	17448
909.184	17471
909.3	17486
909.415	17482
909.531	17448
909.647	17178
909.762	17162
909.878	17121
909.993	17086
910.108	16987
910.224	17018
910.339	17064
910.454	17079
910.57	16885
910.685	16828
910.8	17079
910.915	17086
911.03	16980
911.145	16839
911.259	16740
911.374	16717
911.489	16729
911.604	16596
911.718	16512
911.833	16489
911.947	16352
912.062	16265
912.176	16500
912.291	16508
912.405	16508
912.519	16683
912.633	16630
912.748	16519
912.862	16382
912.976	16363
913.09	16230
913.204	16120
913.318	16261
913.431	16337
913.545	16348
913.659	16386
913.772	16318
913.886	16109
914	16040
914.113	16192
914.226	16173
914.34	16139
914.453	15994
914.566	16044
914.68	15979
914.793	15911
914.906	15759
915.019	15610
915.132	15629
915.245	15587
915.358	15599
915.47	15595
915.583	15599
915.696	15622
915.809	15846
915.921	15705
916.034	15572
916.146	15595
916.259	15557
916.371	15660
916.483	15557
916.595	15405
916.708	15408
916.82	15580
916.932	15386
917.044	15431
917.156	15298
917.268	15302
917.38	15310
917.491	15275
917.603	15298
917.715	15294
917.826	15450
917.938	15283
918.049	15127
918.161	15260
918.272	15344
918.384	15336
918.495	15329
918.606	15043
918.717	15001
918.828	15070
918.939	15077
919.05	14902
919.161	15005
919.272	14842
919.383	14914
919.494	15043
919.604	15173
919.715	15036
919.826	14906
919.936	15017
920.047	15020
920.157	14956
920.267	15180
920.378	14941
920.488	14982
920.598	15169
920.708	15252
920.818	15081
920.928	15112
921.038	15150
921.148	15226
921.258	14895
921.368	14845
921.477	14735
921.587	14830
921.697	14526
921.806	14739
921.916	14720
922.025	14419
922.134	14396
922.244	14248
922.353	14415
922.462	14214
922.571	14263
922.68	13997
922.789	14062
922.898	13997
923.007	13951
923.116	14020
923.224	13955
923.333	13932
923.442	13860
923.55	13791
923.659	13925
923.767	13852
923.876	13807
923.984	13868
924.092	13742
924.201	13769
924.309	13769
924.417	13746
924.525	13715
924.633	13734
924.741	14621
924.849	13449
924.956	13597
925.064	13381
925.172	13335
925.279	13384
925.387	13445
925.494	13381
925.602	13518
925.709	13365
925.816	13274
925.924	13335
926.031	13316
926.138	13282
926.245	13339
926.352	13206
926.459	13369
926.566	13324
926.673	13217
926.779	13168
926.886	13152
926.993	12954
927.099	12886
927.206	12932
927.312	12821
927.419	12962
927.525	12844
927.631	13000
927.737	12753
927.843	12825
927.95	12791
928.056	12791
928.162	12772
928.267	12848
928.373	13293
928.479	12783
928.585	12616
928.69	12711
928.796	12703
928.901	12715
929.007	12456
929.112	12601
929.218	12483
929.323	12513
929.428	12407
929.533	12597
929.638	12494
929.743	12319
929.848	12467
929.953	12361
930.058	12281
930.163	12098
930.267	12125
930.372	12266
930.477	11992
930.581	12334
930.685	12133
930.79	11958
930.894	12068
930.998	12015
931.103	12091
931.207	11729
931.311	11710
931.415	11668
931.519	11398
931.623	11414
