Data from test_V78500241_2863.txt Node
Date: Fri Mar 25 16:01:38 CST 2022
User: usil
Spectrometer: V785-0024
Trigger mode: 0
Integration Time (sec): 4.000000E-1
Scans to average: 1
Nonlinearity correction enabled: false
Boxcar width: 0
Storing dark spectrum: false
XAxis mode: Wavelengths
Number of Pixels in Spectrum: 1024
>>>>>Begin Spectral Data<<<<<
801.071	28968
801.214	28949
801.356	28805
801.499	28752
801.641	28634
801.783	28557
801.926	28710
802.068	28630
802.211	28508
802.353	28508
802.496	28440
802.638	28299
802.78	28265
802.923	28219
803.065	28063
803.208	28356
803.35	28291
803.492	28531
803.635	28550
803.777	28523
803.919	28828
804.061	28854
804.204	28706
804.346	28565
804.488	28470
804.63	28424
804.773	28462
804.915	28653
805.057	28740
805.199	28577
805.341	28748
805.483	28672
805.626	28774
805.768	28626
805.91	28672
806.052	28850
806.194	28588
806.336	29022
806.478	28763
806.62	28752
806.762	29029
806.904	29083
807.046	29330
807.188	29239
807.33	29124
807.472	29349
807.614	29166
807.756	29166
807.898	29140
808.04	28957
808.182	28927
808.324	29060
808.465	29056
808.607	29349
808.749	29368
808.891	29748
809.033	29752
809.174	29406
809.316	29482
809.458	29531
809.6	29326
809.741	29581
809.883	29539
810.025	29726
810.166	29840
810.308	29668
810.45	29707
810.591	29714
810.733	29486
810.875	29433
811.016	29448
811.158	29315
811.299	29524
811.441	29642
811.582	29608
811.724	29577
811.865	29372
812.007	29501
812.148	29482
812.29	29493
812.431	29813
812.573	29726
812.714	29904
812.855	29893
812.997	30011
813.138	30197
813.279	30026
813.421	30022
813.562	29961
813.703	29885
813.845	29786
813.986	29577
814.127	29398
814.268	29193
814.41	29292
814.551	29200
814.692	29345
814.833	29280
814.974	29307
815.115	29136
815.256	29098
815.397	29071
815.539	29121
815.68	29006
815.821	28915
815.962	28999
816.103	29102
816.244	28866
816.385	28987
816.526	28801
816.666	28561
816.807	28493
816.948	28519
817.089	28554
817.23	28527
817.371	28413
817.512	28500
817.653	28485
817.793	28531
817.934	28577
818.075	28470
818.216	28527
818.356	28615
818.497	28367
818.638	28333
818.778	28375
818.919	28322
819.06	28246
819.2	28367
819.341	28516
819.481	28607
819.622	28721
819.762	28968
819.903	28755
820.043	28672
820.184	28626
820.324	28580
820.465	28862
820.605	28748
820.746	28656
820.886	28592
821.026	28622
821.167	28615
821.307	28679
821.447	28504
821.588	28440
821.728	28333
821.868	28135
822.008	28021
822.149	28063
822.289	27998
822.429	27679
822.569	27759
822.709	27728
822.849	27507
822.99	27485
823.13	27553
823.27	27576
823.41	27256
823.55	27302
823.69	27401
823.83	27321
823.97	27351
824.11	27112
824.25	27203
824.389	27112
824.529	27154
824.669	27222
824.809	27321
824.949	27291
825.089	27176
825.228	27222
825.368	27005
825.508	27058
825.648	27066
825.787	27176
825.927	27150
826.067	27119
826.206	27150
826.346	27169
826.485	27222
826.625	27135
826.765	27291
826.904	27123
827.044	26826
827.183	26910
827.323	26849
827.462	26853
827.601	26823
827.741	26648
827.88	26849
828.02	26754
828.159	26629
828.298	26872
828.437	26891
828.577	26830
828.716	26880
828.855	26678
828.994	26541
829.134	26511
829.273	26560
829.412	26598
829.551	26419
829.69	26400
829.829	26552
829.968	26545
830.107	26648
830.246	26579
830.385	26526
830.524	26560
830.663	26362
830.802	26240
830.941	25986
831.08	26043
831.219	26024
831.357	26202
831.496	26294
831.635	26138
831.774	26008
831.913	26046
832.051	25902
832.19	25837
832.329	25925
832.467	25906
832.606	25723
832.744	25731
832.883	25746
833.022	25791
833.16	25655
833.299	25830
833.437	25715
833.576	25742
833.714	25925
833.852	25830
833.991	25833
834.129	26024
834.267	25921
834.406	26012
834.544	25776
834.682	25769
834.821	25811
834.959	25932
835.097	25776
835.235	25909
835.373	25932
835.511	25765
835.65	25757
835.788	25712
835.926	25578
836.064	25331
836.202	25575
836.34	25628
836.478	25723
836.615	25597
836.753	25734
836.891	25693
837.029	25616
837.167	25594
837.305	25445
837.443	25476
837.58	25445
837.718	25548
837.856	25643
837.993	25388
838.131	25483
838.269	25426
838.406	25476
838.544	25274
838.681	25099
838.819	25194
838.956	25057
839.094	24962
839.231	24943
839.369	25027
839.506	25304
839.643	25255
839.781	24958
839.918	24840
840.055	25053
840.193	24894
840.33	24791
840.467	24722
840.604	24817
840.742	25129
840.879	24681
841.016	24627
841.153	24783
841.29	24802
841.427	24958
841.564	24734
841.701	24947
841.838	24711
841.975	24650
842.112	24753
842.249	24684
842.385	24608
842.522	24814
842.659	24631
842.796	24601
842.933	24585
843.069	24593
843.206	24616
843.343	24639
843.479	24608
843.616	24578
843.752	24357
843.889	24311
844.025	24536
844.162	24311
844.298	24369
844.435	24319
844.571	24376
844.708	24319
844.844	24578
844.98	24509
845.117	24361
845.253	24300
845.389	24239
845.525	24213
845.661	24216
845.798	24068
845.934	24079
846.07	24022
846.206	23878
846.342	24098
846.478	24011
846.614	23939
846.75	23821
846.886	23649
847.022	23916
847.158	23794
847.294	23748
847.429	23843
847.565	23745
847.701	23939
847.837	23589
847.972	23478
848.108	23524
848.244	23566
848.379	23433
848.515	23345
848.65	23387
848.786	23474
848.921	23315
849.057	23455
849.192	23391
849.328	23410
849.463	23478
849.598	23410
849.734	23258
849.869	23174
850.004	23052
850.14	23029
850.275	23079
850.41	23113
850.545	23132
850.68	23117
850.815	23178
850.95	23147
851.085	23193
851.22	23318
851.355	23242
851.49	23128
851.625	23090
851.76	23083
851.895	23060
852.03	23003
852.165	23132
852.299	23277
852.434	23231
852.569	23136
852.703	23102
852.838	23280
852.973	23307
853.107	23322
853.242	22957
853.376	22835
853.511	22949
853.645	22927
853.78	23041
853.914	23113
854.048	22949
854.183	22915
854.317	22949
854.451	23242
854.585	22934
854.72	22991
854.854	22987
854.988	22828
855.122	22896
855.256	22748
855.39	23006
855.524	22984
855.658	22984
855.792	22980
855.926	23014
856.06	22987
856.194	22999
856.327	22972
856.461	23044
856.595	22820
856.729	22847
856.862	23117
856.996	23018
857.13	22957
857.263	23037
857.397	22923
857.53	22957
857.664	22984
857.797	23056
857.931	23014
858.064	23033
858.197	23113
858.331	22965
858.464	22881
858.597	22835
858.731	22930
858.864	23018
858.997	22847
859.13	22816
859.263	22980
859.396	23105
859.529	22987
859.662	22919
859.795	22949
859.928	22980
860.061	23094
860.194	23181
860.327	23075
860.46	22957
860.592	23067
860.725	23052
860.858	23090
860.99	22972
861.123	22767
861.256	22858
861.388	22938
861.521	23703
861.653	22820
861.786	22809
861.918	22904
862.05	22824
862.183	22961
862.315	22999
862.447	22911
862.58	22892
862.712	22713
862.844	22557
862.976	22729
863.108	22713
863.24	22957
863.372	22645
863.504	22622
863.636	22706
863.768	22599
863.9	22584
864.032	22683
864.164	22565
864.296	22645
864.428	22710
864.559	22694
864.691	22740
864.823	22611
864.954	22603
865.086	22645
865.217	22561
865.349	22474
865.48	22504
865.612	22489
865.743	22634
865.875	22588
866.006	22451
866.137	22588
866.269	22508
866.4	22459
866.531	22508
866.662	22443
866.793	22405
866.924	22519
867.055	22459
867.186	22611
867.317	22428
867.448	22432
867.579	22455
867.71	22314
867.841	22329
867.972	22489
868.103	22474
868.233	22390
868.364	22516
868.495	22573
868.625	22767
868.756	22881
868.886	22694
869.017	22649
869.147	22835
869.278	22854
869.408	22683
869.539	22721
869.669	22713
869.799	22755
869.929	22801
870.06	22892
870.19	23075
870.32	23079
870.45	23143
870.58	22934
870.71	23162
870.84	23246
870.97	23204
871.1	23094
871.23	23231
871.36	23341
871.489	23326
871.619	23269
871.749	23189
871.879	23376
872.008	23395
872.138	23299
872.267	23330
872.397	23185
872.526	23189
872.656	23147
872.785	23235
872.915	23212
873.044	23322
873.173	23231
873.303	23497
873.432	23345
873.561	23433
873.69	23178
873.819	23181
873.948	23341
874.077	23364
874.206	23250
874.335	23387
874.464	23444
874.593	23478
874.722	23516
874.851	23482
874.979	23665
875.108	23520
875.237	23501
875.365	23337
875.494	23452
875.623	23687
875.751	23497
875.88	23600
876.008	23657
876.136	23684
876.265	23882
876.393	24011
876.521	24114
876.65	23961
876.778	23817
876.906	23889
877.034	23821
877.162	23923
877.29	23817
877.418	23878
877.546	23980
877.674	23786
877.802	23805
877.93	23908
878.058	23745
878.185	23722
878.313	23901
878.441	23920
878.568	23611
878.696	23828
878.824	23939
878.951	23980
879.079	24015
879.206	24068
879.333	23980
879.461	23866
879.588	23893
879.715	23958
879.842	24209
879.97	24049
880.097	23638
880.224	23805
880.351	23630
880.478	23657
880.605	23642
880.732	23703
880.859	24018
880.986	23596
881.112	23661
881.239	23573
881.366	23414
881.493	23322
881.619	23315
881.746	23246
881.872	23299
881.999	23258
882.125	23250
882.252	23216
882.378	23246
882.505	23326
882.631	22976
882.757	23022
882.883	23075
883.01	22965
883.136	22790
883.262	22843
883.388	22717
883.514	22953
883.64	22934
883.766	22797
883.892	22626
884.018	22653
884.143	22755
884.269	22881
884.395	22717
884.52	22527
884.646	22504
884.772	22382
884.897	22386
885.023	22546
885.148	22748
885.274	22603
885.399	22748
885.524	22485
885.65	22478
885.775	22497
885.9	22565
886.025	22641
886.15	22512
886.275	22478
886.4	22455
886.525	22531
886.65	22462
886.775	22470
886.9	22691
887.025	22706
887.149	22519
887.274	22310
887.399	22363
887.523	22249
887.648	22188
887.773	22226
887.897	22341
888.021	22196
888.146	22204
888.27	22382
888.395	22405
888.519	22360
888.643	22363
888.767	22352
888.891	22162
889.015	22150
889.139	22010
889.263	21968
889.387	22265
889.511	22413
889.635	22154
889.759	22230
889.883	22078
890.006	22048
890.13	22082
890.254	22002
890.377	21972
890.501	21720
890.624	21762
890.748	21991
890.871	21755
890.995	21500
891.118	21656
891.241	21663
891.364	21583
891.488	21633
891.611	21580
891.734	21690
891.857	21660
891.98	21515
892.103	21561
892.226	21553
892.349	21447
892.471	21355
892.594	21557
892.717	21515
892.839	21435
892.962	21488
893.085	21576
893.207	21450
893.33	21454
893.452	21329
893.575	21553
893.697	21492
893.819	21667
893.941	21545
894.064	21595
894.186	21485
894.308	21374
894.43	21477
894.552	21534
894.674	21462
894.796	21462
894.918	21492
895.04	21344
895.161	21526
895.283	21466
895.405	21431
895.526	21458
895.648	21428
895.769	21534
895.891	21477
896.012	21481
896.134	21534
896.255	21507
896.376	21511
896.498	21496
896.619	21515
896.74	21428
896.861	21466
896.982	21831
897.103	21838
897.224	21774
897.345	21686
897.466	21633
897.587	21652
897.708	21903
897.828	21743
897.949	21701
898.07	21553
898.19	21557
898.311	21587
898.431	21500
898.552	21633
898.672	21633
898.792	21591
898.913	21690
899.033	21557
899.153	21431
899.273	21389
899.393	21336
899.513	21466
899.633	21412
899.753	21374
899.873	21313
899.993	21344
900.113	21458
900.232	21424
900.352	21184
900.472	21195
900.591	21032
900.711	21157
900.83	21096
900.95	21283
901.069	21279
901.189	20971
901.308	20746
901.427	20655
901.546	20609
901.665	20807
901.784	20659
901.904	20530
902.023	20400
902.141	20324
902.26	20153
902.379	20267
902.498	20180
902.617	20103
902.735	20187
902.854	20161
902.973	20100
903.091	19852
903.21	19932
903.328	19814
903.446	19772
903.565	19590
903.683	19620
903.801	19480
903.919	19689
904.038	19483
904.156	19403
904.274	19377
904.392	19403
904.51	19468
904.627	19373
904.745	19468
904.863	19407
904.981	19126
905.098	19042
905.216	19004
905.334	19164
905.451	19065
905.569	19042
905.686	19148
905.803	19152
905.921	18856
906.038	18875
906.155	18844
906.272	18772
906.389	18772
906.506	18585
906.623	18570
906.74	18642
906.857	18540
906.974	18521
907.091	18559
907.208	18597
907.324	18627
907.441	18479
907.557	18315
907.674	18346
907.79	18330
907.907	18277
908.023	18308
908.139	18270
908.256	18224
908.372	18095
908.488	18087
908.604	18125
908.72	17946
908.836	17946
908.952	17912
909.068	18053
909.184	18133
909.3	18007
909.415	18003
909.531	17935
909.647	17687
909.762	17653
909.878	17638
909.993	17684
910.108	17699
910.224	17604
910.339	17668
910.454	17562
910.57	17532
910.685	17448
910.8	17680
910.915	17604
911.03	17566
911.145	17288
911.259	17296
911.374	17330
911.489	17113
911.604	17136
911.718	17018
911.833	16980
911.947	16987
912.062	16908
912.176	16980
912.291	17003
912.405	17014
912.519	17197
912.633	17212
912.748	17071
912.862	16923
912.976	16828
913.09	16710
913.204	16843
913.318	16801
913.431	16900
913.545	16908
913.659	16892
913.772	16793
913.886	16588
914	16577
914.113	16679
914.226	16805
914.34	16542
914.453	16481
914.566	16626
914.68	16512
914.793	16409
914.906	16284
915.019	16204
915.132	16188
915.245	16147
915.358	16238
915.47	16185
915.583	16181
915.696	16158
915.809	16150
915.921	16261
916.034	16071
916.146	15991
916.259	15975
916.371	16067
916.483	15953
916.595	16036
916.708	16063
916.82	15960
916.932	15785
917.044	15949
917.156	15979
917.268	15732
917.38	15823
917.491	15808
917.603	15652
917.715	15865
917.826	15850
917.938	15732
918.049	15530
918.161	15679
918.272	15797
918.384	15888
918.495	15770
918.606	15534
918.717	15511
918.828	15587
918.939	15538
919.05	15412
919.161	15500
919.272	15272
919.383	15382
919.494	15500
919.604	15648
919.715	15572
919.826	15340
919.936	15428
920.047	15511
920.157	15485
920.267	15599
920.378	15393
920.488	15408
920.598	15610
920.708	15823
920.818	15606
920.928	15568
921.038	15778
921.148	15667
921.258	15420
921.368	15302
921.477	15184
921.587	15169
921.697	14986
921.806	15150
921.916	15009
922.025	14876
922.134	14834
922.244	14701
922.353	14762
922.462	14689
922.571	14644
922.68	14495
922.789	14377
922.898	14511
923.007	14385
923.116	14457
923.224	14499
923.333	14419
923.442	14248
923.55	14298
923.659	14290
923.767	14362
923.876	14153
923.984	14317
924.092	14096
924.201	14290
924.309	14187
924.417	14123
924.525	14126
924.633	14084
924.741	15039
924.849	13765
924.956	14043
925.064	13898
925.172	13723
925.279	13765
925.387	13902
925.494	13788
925.602	13868
925.709	13871
925.816	13628
925.924	13723
926.031	13772
926.138	13715
926.245	13814
926.352	13647
926.459	13769
926.566	13784
926.673	13761
926.779	13651
926.886	13506
926.993	13422
927.099	13396
927.206	13259
927.312	13354
927.419	13419
927.525	13320
927.631	13335
927.737	13091
927.843	13126
927.95	13080
928.056	13149
928.162	13202
928.267	13293
928.373	13772
928.479	13129
928.585	13057
928.69	13008
928.796	13187
928.901	13027
929.007	12802
929.112	13008
929.218	12962
929.323	12951
929.428	12741
929.533	12973
929.638	12795
929.743	12772
929.848	12810
929.953	12795
930.058	12677
930.163	12502
930.267	12555
930.372	12612
930.477	12429
930.581	12646
930.685	12532
930.79	12467
930.894	12433
930.998	12407
931.103	12426
931.207	12087
931.311	12136
931.415	11969
931.519	11733
931.623	11752
