Data from test_V78500241_2173.txt Node
Date: Fri Mar 25 15:56:51 CST 2022
User: usil
Spectrometer: V785-0024
Trigger mode: 0
Integration Time (sec): 4.000000E-1
Scans to average: 1
Nonlinearity correction enabled: false
Boxcar width: 0
Storing dark spectrum: false
XAxis mode: Wavelengths
Number of Pixels in Spectrum: 1024
>>>>>Begin Spectral Data<<<<<
801.071	28850
801.214	28710
801.356	28489
801.499	28314
801.641	28333
801.783	28257
801.926	28424
802.068	28341
802.211	28276
802.353	28185
802.496	28162
802.638	28025
802.78	28040
802.923	28017
803.065	27812
803.208	28025
803.35	28086
803.492	28097
803.635	28287
803.777	28082
803.919	28265
804.061	28664
804.204	28394
804.346	28287
804.488	28246
804.63	28242
804.773	28185
804.915	28329
805.057	28421
805.199	28318
805.341	28462
805.483	28337
805.626	28401
805.768	28367
805.91	28352
806.052	28401
806.194	28440
806.336	28710
806.478	28542
806.62	28367
806.762	28409
806.904	28672
807.046	29014
807.188	28850
807.33	28835
807.472	28972
807.614	28793
807.756	28961
807.898	28812
808.04	28653
808.182	28713
808.324	28790
808.465	28892
808.607	28900
808.749	29124
808.891	29246
809.033	29254
809.174	29178
809.316	29124
809.458	29014
809.6	29098
809.741	29235
809.883	29364
810.025	29463
810.166	29478
810.308	29497
810.45	29474
810.591	29269
810.733	29181
810.875	29185
811.016	28923
811.158	28968
811.299	29349
811.441	29246
811.582	29223
811.724	29200
811.865	29117
812.007	29189
812.148	29102
812.29	29296
812.431	29353
812.573	29516
812.714	29646
812.855	29684
812.997	29649
813.138	29897
813.279	29809
813.421	29783
813.562	29809
813.703	29448
813.845	29326
813.986	29067
814.127	28892
814.268	28965
814.41	28972
814.551	28809
814.692	28801
814.833	28767
814.974	28767
815.115	28930
815.256	28900
815.397	28767
815.539	28691
815.68	28809
815.821	28653
815.962	28618
816.103	28774
816.244	28504
816.385	28622
816.526	28474
816.666	28276
816.807	28055
816.948	28204
817.089	28207
817.23	28173
817.371	28204
817.512	28093
817.653	28147
817.793	28025
817.934	28139
818.075	28306
818.216	28196
818.356	28059
818.497	28032
818.638	27987
818.778	27941
818.919	28010
819.06	27979
819.2	28128
819.341	28074
819.481	28086
819.622	28253
819.762	28500
819.903	28447
820.043	28542
820.184	28337
820.324	28318
820.465	28443
820.605	28398
820.746	28249
820.886	28090
821.026	28246
821.167	28253
821.307	28291
821.447	28131
821.588	28082
821.728	27949
821.868	27926
822.008	27667
822.149	27663
822.289	27610
822.429	27313
822.569	27249
822.709	27249
822.849	27116
822.99	27173
823.13	27138
823.27	27077
823.41	27028
823.55	26838
823.69	26963
823.83	27020
823.97	26838
824.11	26788
824.25	26750
824.389	26792
824.529	26830
824.669	26765
824.809	26960
824.949	26937
825.089	26940
825.228	26876
825.368	26705
825.508	26686
825.648	26712
825.787	26746
825.927	26712
826.067	26583
826.206	26609
826.346	26708
826.485	26773
826.625	26773
826.765	26682
826.904	26716
827.044	26514
827.183	26453
827.323	26324
827.462	26427
827.601	26419
827.741	26374
827.88	26453
828.02	26252
828.159	26347
828.298	26579
828.437	26423
828.577	26263
828.716	26434
828.855	26336
828.994	26187
829.134	26187
829.273	26161
829.412	26039
829.551	25928
829.69	25974
829.829	26115
829.968	26176
830.107	26073
830.246	26046
830.385	26035
830.524	25951
830.663	25917
830.802	25750
830.941	25689
831.08	25704
831.219	25807
831.357	25841
831.496	25944
831.635	25742
831.774	25647
831.913	25521
832.051	25544
832.19	25540
832.329	25563
832.467	25339
832.606	25312
832.744	25251
832.883	25388
833.022	25335
833.16	25419
833.299	25411
833.437	25419
833.576	25422
833.714	25400
833.852	25457
833.991	25460
834.129	25613
834.267	25556
834.406	25540
834.544	25556
834.682	25419
834.821	25499
834.959	25620
835.097	25457
835.235	25552
835.373	25388
835.511	25400
835.65	25293
835.788	25362
835.926	25133
836.064	25057
836.202	25179
836.34	25285
836.478	25251
836.615	25190
836.753	25270
836.891	25308
837.029	25289
837.167	25187
837.305	25061
837.443	25080
837.58	24966
837.718	25129
837.856	25190
837.993	24924
838.131	25110
838.269	24920
838.406	25027
838.544	24992
838.681	24833
838.819	24700
838.956	24585
839.094	24604
839.231	24760
839.369	24768
839.506	25057
839.643	24802
839.781	24582
839.918	24536
840.055	24437
840.193	24498
840.33	24346
840.467	24513
840.604	24521
840.742	24642
840.879	24323
841.016	24441
841.153	24247
841.29	24498
841.427	24357
841.564	24536
841.701	24399
841.838	24289
841.975	24296
842.112	24319
842.249	24106
842.385	24311
842.522	24490
842.659	24247
842.796	24102
842.933	24281
843.069	24228
843.206	24163
843.343	24258
843.479	24190
843.616	24144
843.752	23920
843.889	24125
844.025	24041
844.162	24007
844.298	24018
844.435	23866
844.571	23980
844.708	24041
844.844	24159
844.98	24144
845.117	24133
845.253	23863
845.389	23790
845.525	23958
845.661	23756
845.798	23657
845.934	23771
846.07	23741
846.206	23847
846.342	23684
846.478	23798
846.614	23539
846.75	23345
846.886	23398
847.022	23512
847.158	23512
847.294	23414
847.429	23455
847.565	23474
847.701	23691
847.837	23094
847.972	23155
848.108	23322
848.244	23318
848.379	23037
848.515	22980
848.65	23086
848.786	22991
848.921	22984
849.057	23170
849.192	23181
849.328	23102
849.463	22923
849.598	23003
849.734	22854
849.869	22866
850.004	22809
850.14	22885
850.275	22862
850.41	22812
850.545	22790
850.68	22668
850.815	22862
850.95	22812
851.085	22938
851.22	22934
851.355	22831
851.49	22927
851.625	22675
851.76	22858
851.895	22554
852.03	22733
852.165	22748
852.299	22801
852.434	22908
852.569	22694
852.703	22733
852.838	22782
852.973	22946
853.107	22904
853.242	22634
853.376	22672
853.511	22428
853.645	22630
853.78	22649
853.914	22561
854.048	22618
854.183	22535
854.317	22550
854.451	22698
854.585	22596
854.72	22694
854.854	22668
854.988	22596
855.122	22500
855.256	22409
855.39	22645
855.524	22675
855.658	22698
855.792	22630
855.926	22656
856.06	22664
856.194	22713
856.327	22664
856.461	22474
856.595	22516
856.729	22569
856.862	22694
856.996	22607
857.13	22603
857.263	22611
857.397	22683
857.53	22626
857.664	22607
857.797	22672
857.931	22809
858.064	22660
858.197	22675
858.331	22618
858.464	22443
858.597	22459
858.731	22622
858.864	22573
858.997	22535
859.13	22561
859.263	22672
859.396	22622
859.529	22565
859.662	22451
859.795	22516
859.928	22649
860.061	22668
860.194	22885
860.327	22637
860.46	22668
860.592	22691
860.725	22900
860.858	22873
860.99	22603
861.123	22485
861.256	22424
861.388	22596
861.521	23250
861.653	22451
861.786	22295
861.918	22413
862.05	22436
862.183	22516
862.315	22508
862.447	22561
862.58	22546
862.712	22299
862.844	22344
862.976	22417
863.108	22249
863.24	22733
863.372	22265
863.504	22261
863.636	22257
863.768	22318
863.9	22371
864.032	22325
864.164	22219
864.296	22219
864.428	22443
864.559	22344
864.691	22356
864.823	22295
864.954	22371
865.086	22337
865.217	22246
865.349	22204
865.48	22261
865.612	22200
865.743	22325
865.875	22169
866.006	22166
866.137	22162
866.269	22238
866.4	22120
866.531	22150
866.662	22036
866.793	22055
866.924	22147
867.055	22097
867.186	22211
867.317	22048
867.448	21968
867.579	22010
867.71	21975
867.841	21994
867.972	22090
868.103	22010
868.233	22280
868.364	22139
868.495	22188
868.625	22379
868.756	22348
868.886	22154
869.017	22375
869.147	22478
869.278	22398
869.408	22303
869.539	22280
869.669	22341
869.799	22470
869.929	22542
870.06	22417
870.19	22733
870.32	22733
870.45	22793
870.58	22710
870.71	22961
870.84	22938
870.97	22850
871.1	22763
871.23	22881
871.36	22900
871.489	22892
871.619	22957
871.749	23056
871.879	23025
872.008	22987
872.138	22942
872.267	22873
872.397	22809
872.526	22706
872.656	22927
872.785	22664
872.915	23056
873.044	23109
873.173	23022
873.303	23025
873.432	22976
873.561	22995
873.69	22900
873.819	22976
873.948	23075
874.077	22965
874.206	23037
874.335	23079
874.464	23064
874.593	23284
874.722	23098
874.851	23200
874.979	23349
875.108	23231
875.237	23159
875.365	23033
875.494	23151
875.623	23334
875.751	23044
875.88	23239
876.008	23353
876.136	23345
876.265	23630
876.393	23653
876.521	23737
876.65	23657
876.778	23630
876.906	23395
877.034	23467
877.162	23551
877.29	23547
877.418	23596
877.546	23455
877.674	23501
877.802	23539
877.93	23433
878.058	23387
878.185	23383
878.313	23512
878.441	23433
878.568	23387
878.696	23452
878.824	23493
878.951	23680
879.079	23581
879.206	23718
879.333	23676
879.461	23486
879.588	23577
879.715	23668
879.842	23646
879.97	23707
880.097	23269
880.224	23356
880.351	23303
880.478	23353
880.605	23197
880.732	23258
880.859	23482
880.986	23368
881.112	23364
881.239	23170
881.366	23128
881.493	22961
881.619	22797
881.746	22881
881.872	22850
881.999	22923
882.125	22820
882.252	22946
882.378	22858
882.505	22923
882.631	22630
882.757	22565
882.883	22767
883.01	22493
883.136	22466
883.262	22432
883.388	22390
883.514	22603
883.64	22569
883.766	22413
883.892	22379
884.018	22261
884.143	22531
884.269	22603
884.395	22322
884.52	22242
884.646	22181
884.772	22158
884.897	22021
885.023	22204
885.148	22287
885.274	22398
885.399	22211
885.524	22150
885.65	22147
885.775	22048
885.9	22135
886.025	22257
886.15	22322
886.275	22143
886.4	22086
886.525	21998
886.65	22105
886.775	22139
886.9	22318
887.025	22341
887.149	22188
887.274	21983
887.399	21998
887.523	21953
887.648	21895
887.773	21827
887.897	22063
888.021	22074
888.146	21770
888.27	22124
888.395	22090
888.519	22006
888.643	21949
888.767	22036
888.891	21865
889.015	21766
889.139	21720
889.263	21690
889.387	21762
889.511	21941
889.635	21903
889.759	21739
889.883	21732
890.006	21675
890.13	21831
890.254	21481
890.377	21713
890.501	21492
890.624	21367
890.748	21618
890.871	21378
890.995	21195
891.118	21062
891.241	21294
891.364	21393
891.488	21534
891.611	21420
891.734	21195
891.857	21184
891.98	21203
892.103	21344
892.226	21256
892.349	21306
892.471	21081
892.594	21359
892.717	21329
892.839	21173
892.962	21112
893.085	21268
893.207	21100
893.33	20975
893.452	21138
893.575	21340
893.697	21207
893.819	21325
893.941	21405
894.064	21325
894.186	21237
894.308	21268
894.43	21203
894.552	21302
894.674	21218
894.796	21066
894.918	21074
895.04	21135
895.161	21237
895.283	21165
895.405	21123
895.526	21146
895.648	21256
895.769	21317
895.891	21264
896.012	21146
896.134	21218
896.255	21058
896.376	21131
896.498	21116
896.619	21127
896.74	21093
896.861	21214
896.982	21485
897.103	21656
897.224	21492
897.345	21367
897.466	21268
897.587	21336
897.708	21462
897.828	21321
897.949	21291
898.07	21233
898.19	21321
898.311	21416
898.431	21241
898.552	21313
898.672	21424
898.792	21458
898.913	21294
899.033	21279
899.153	21184
899.273	21074
899.393	21104
899.513	21112
899.633	21112
899.753	20952
899.873	20899
899.993	21192
900.113	21085
900.232	21005
900.352	20910
900.472	20834
900.591	20701
900.711	20872
900.83	20746
900.95	20982
901.069	20861
901.189	20682
901.308	20522
901.427	20408
901.546	20480
901.665	20526
901.784	20328
901.904	20290
902.023	20111
902.141	19936
902.26	19898
902.379	19986
902.498	19906
902.617	19879
902.735	19936
902.854	19849
902.973	19856
903.091	19605
903.21	19502
903.328	19601
903.446	19506
903.565	19426
903.683	19430
903.801	19301
903.919	19263
904.038	19228
904.156	19164
904.274	19209
904.392	19141
904.51	19114
904.627	19088
904.745	19133
904.863	19099
904.981	18894
905.098	18760
905.216	18833
905.334	18749
905.451	18871
905.569	18764
905.686	18749
905.803	18810
905.921	18597
906.038	18654
906.155	18467
906.272	18574
906.389	18479
906.506	18330
906.623	18266
906.74	18296
906.857	18171
906.974	18285
907.091	18441
907.208	18445
907.324	18357
907.441	18273
907.557	18110
907.674	17977
907.79	17984
907.907	18026
908.023	18178
908.139	17977
908.256	18045
908.372	17916
908.488	17828
908.604	17847
908.72	17642
908.836	17687
908.952	17665
909.068	17790
909.184	17813
909.3	17687
909.415	17821
909.531	17748
909.647	17364
909.762	17482
909.878	17391
909.993	17417
910.108	17280
910.224	17372
910.339	17452
910.454	17265
910.57	17235
910.685	17208
910.8	17395
910.915	17334
911.03	17242
911.145	17109
911.259	17014
911.374	17124
911.489	16938
911.604	16911
911.718	16717
911.833	16805
911.947	16637
912.062	16687
912.176	16736
912.291	16782
912.405	16759
912.519	17025
912.633	16904
912.748	16736
912.862	16744
912.976	16584
913.09	16500
913.204	16542
913.318	16641
913.431	16550
913.545	16596
913.659	16721
913.772	16497
913.886	16341
914	16306
914.113	16432
914.226	16489
914.34	16371
914.453	16257
914.566	16280
914.68	16318
914.793	16215
914.906	15934
915.019	16006
915.132	15816
915.245	15857
915.358	16021
915.47	15941
915.583	15953
915.696	15956
915.809	16021
915.921	16101
916.034	15865
916.146	15850
916.259	15755
916.371	15918
916.483	15850
916.595	15842
916.708	15648
916.82	15698
916.932	15717
917.044	15690
917.156	15637
917.268	15572
917.38	15576
917.491	15587
917.603	15523
917.715	15618
917.826	15595
917.938	15424
918.049	15408
918.161	15488
918.272	15599
918.384	15561
918.495	15519
918.606	15256
918.717	15138
918.828	15268
918.939	15370
919.05	15249
919.161	15294
919.272	15039
919.383	15180
919.494	15317
919.604	15431
919.715	15249
919.826	15157
919.936	15211
920.047	15294
920.157	15184
920.267	15428
920.378	15180
920.488	15203
920.598	15428
920.708	15450
920.818	15310
920.928	15363
921.038	15557
921.148	15443
921.258	15226
921.368	15085
921.477	14994
921.587	14902
921.697	14834
921.806	15009
921.916	14838
922.025	14670
922.134	14644
922.244	14545
922.353	14648
922.462	14427
922.571	14271
922.68	14347
922.789	14168
922.898	14248
923.007	14218
923.116	14221
923.224	14248
923.333	14161
923.442	14100
923.55	14054
923.659	14065
923.767	14115
923.876	14050
923.984	13967
924.092	13993
924.201	13944
924.309	13906
924.417	13936
924.525	13879
924.633	13875
924.741	14625
924.849	13670
924.956	13715
925.064	13704
925.172	13499
925.279	13643
925.387	13643
925.494	13609
925.602	13628
925.709	13601
925.816	13487
925.924	13521
926.031	13609
926.138	13605
926.245	13620
926.352	13460
926.459	13525
926.566	13620
926.673	13396
926.779	13324
926.886	13259
926.993	13221
927.099	13126
927.206	13088
927.312	13129
927.419	13232
927.525	13133
927.631	13145
927.737	13000
927.843	12977
927.95	12825
928.056	12954
928.162	12939
928.267	12954
928.373	13628
928.479	13126
928.585	12886
928.69	12821
928.796	12966
928.901	12821
929.007	12620
929.112	12821
929.218	12779
929.323	12688
929.428	12711
929.533	12749
929.638	12635
929.743	12604
929.848	12673
929.953	12646
930.058	12513
930.163	12292
930.267	12369
930.372	12441
930.477	12300
930.581	12502
930.685	12365
930.79	12220
930.894	12201
930.998	12159
931.103	12342
931.207	11923
931.311	11942
931.415	11794
931.519	11653
931.623	11573
