Data from test_V78500241_3743.txt Node
Date: Fri Mar 25 16:07:43 CST 2022
User: usil
Spectrometer: V785-0024
Trigger mode: 0
Integration Time (sec): 4.000000E-1
Scans to average: 1
Nonlinearity correction enabled: false
Boxcar width: 0
Storing dark spectrum: false
XAxis mode: Wavelengths
Number of Pixels in Spectrum: 1024
>>>>>Begin Spectral Data<<<<<
801.071	28139
801.214	28299
801.356	27953
801.499	27831
801.641	27629
801.783	27648
801.926	27930
802.068	27873
802.211	27701
802.353	27751
802.496	27424
802.638	27492
802.78	27393
802.923	27504
803.065	27351
803.208	27363
803.35	27526
803.492	27504
803.635	27542
803.777	27443
803.919	27538
804.061	27983
804.204	27717
804.346	27481
804.488	27401
804.63	27553
804.773	27557
804.915	27637
805.057	27724
805.199	27717
805.341	27774
805.483	27819
805.626	27736
805.768	27724
805.91	27682
806.052	27800
806.194	27564
806.336	27960
806.478	27717
806.62	27861
806.762	27945
806.904	28090
807.046	28322
807.188	28173
807.33	28147
807.472	28109
807.614	28196
807.756	28101
807.898	28025
808.04	28010
808.182	28048
808.324	28097
808.465	28128
808.607	28261
808.749	28489
808.891	28497
809.033	28660
809.174	28428
809.316	28554
809.458	28310
809.6	28352
809.741	28592
809.883	28542
810.025	28672
810.166	28908
810.308	28763
810.45	28668
810.591	28656
810.733	28436
810.875	28375
811.016	28481
811.158	28314
811.299	28386
811.441	28447
811.582	28607
811.724	28577
811.865	28401
812.007	28428
812.148	28280
812.29	28440
812.431	28512
812.573	28812
812.714	28858
812.855	28812
812.997	29037
813.138	29113
813.279	29128
813.421	28995
813.562	28923
813.703	28717
813.845	28611
813.986	28348
814.127	28291
814.268	28166
814.41	28158
814.551	28078
814.692	28139
814.833	28025
814.974	28021
815.115	28147
815.256	28017
815.397	28036
815.539	27899
815.68	27842
815.821	27903
815.962	27918
816.103	27899
816.244	27808
816.385	27774
816.526	27842
816.666	27382
816.807	27424
816.948	27458
817.089	27534
817.23	27279
817.371	27363
817.512	27393
817.653	27393
817.793	27389
817.934	27431
818.075	27386
818.216	27329
818.356	27332
818.497	27310
818.638	27176
818.778	27176
818.919	27127
819.06	27241
819.2	27249
819.341	27359
819.481	27488
819.622	27553
819.762	27766
819.903	27633
820.043	27587
820.184	27515
820.324	27549
820.465	27534
820.605	27576
820.746	27462
820.886	27412
821.026	27507
821.167	27405
821.307	27473
821.447	27477
821.588	27420
821.728	27249
821.868	27165
822.008	27039
822.149	26906
822.289	26845
822.429	26796
822.569	26568
822.709	26511
822.849	26351
822.99	26423
823.13	26305
823.27	26431
823.41	26180
823.55	26126
823.69	26164
823.83	26225
823.97	26172
824.11	26020
824.25	25970
824.389	26122
824.529	25989
824.669	26005
824.809	26149
824.949	26126
825.089	26027
825.228	26020
825.368	25883
825.508	25795
825.648	25818
825.787	25959
825.927	25921
826.067	25833
826.206	25963
826.346	25906
826.485	25955
826.625	25921
826.765	26081
826.904	25875
827.044	25852
827.183	25746
827.323	25605
827.462	25712
827.601	25795
827.741	25609
827.88	25635
828.02	25597
828.159	25647
828.298	25723
828.437	25700
828.577	25563
828.716	25723
828.855	25537
828.994	25343
829.134	25293
829.273	25343
829.412	25255
829.551	25240
829.69	25282
829.829	25381
829.968	25354
830.107	25575
830.246	25335
830.385	25171
830.524	25259
830.663	25148
830.802	24954
830.941	24890
831.08	24791
831.219	25012
831.357	25080
831.496	25225
831.635	24985
831.774	24757
831.913	24875
832.051	24669
832.19	24658
832.329	24814
832.467	24654
832.606	24528
832.744	24505
832.883	24528
833.022	24441
833.16	24570
833.299	24696
833.437	24494
833.576	24604
833.714	24745
833.852	24700
833.991	24661
834.129	24764
834.267	24814
834.406	24669
834.544	24719
834.682	24631
834.821	24597
834.959	24810
835.097	24646
835.235	24692
835.373	24544
835.511	24464
835.65	24532
835.788	24544
835.926	24220
836.064	24395
836.202	24304
836.34	24403
836.478	24642
836.615	24486
836.753	24513
836.891	24471
837.029	24597
837.167	24582
837.305	24369
837.443	24399
837.58	24304
837.718	24365
837.856	24357
837.993	24247
838.131	24353
838.269	24167
838.406	24327
838.544	24186
838.681	23908
838.819	23977
838.956	23824
839.094	23809
839.231	23794
839.369	23874
839.506	24178
839.643	24034
839.781	23794
839.918	23859
840.055	23802
840.193	23687
840.33	23668
840.467	23783
840.604	23802
840.742	24022
840.879	23512
841.016	23661
841.153	23623
841.29	23859
841.427	23585
841.564	23726
841.701	23756
841.838	23592
841.975	23562
842.112	23729
842.249	23383
842.385	23402
842.522	23767
842.659	23467
842.796	23364
842.933	23433
843.069	23391
843.206	23436
843.343	23482
843.479	23429
843.616	23501
843.752	23261
843.889	23303
844.025	23307
844.162	23102
844.298	23353
844.435	23254
844.571	23254
844.708	23261
844.844	23421
844.98	23315
845.117	23406
845.253	23151
845.389	23044
845.525	23105
845.661	23132
845.798	22999
845.934	22915
846.07	22892
846.206	23025
846.342	23166
846.478	22911
846.614	22793
846.75	22645
846.886	22634
847.022	22664
847.158	22691
847.294	22668
847.429	22748
847.565	22706
847.701	22782
847.837	22428
847.972	22413
848.108	22519
848.244	22436
848.379	22394
848.515	22333
848.65	22261
848.786	22280
848.921	22337
849.057	22436
849.192	22424
849.328	22295
849.463	22177
849.598	22242
849.734	22272
849.869	22147
850.004	21934
850.14	22124
850.275	21949
850.41	22013
850.545	21930
850.68	22010
850.815	22051
850.95	22036
851.085	22253
851.22	22223
851.355	22090
851.49	22109
851.625	22029
851.76	22029
851.895	22017
852.03	21846
852.165	22048
852.299	22025
852.434	22200
852.569	22090
852.703	22120
852.838	22040
852.973	22215
853.107	22097
853.242	22090
853.376	21892
853.511	21755
853.645	21873
853.78	22086
853.914	21884
854.048	21880
854.183	21972
854.317	21907
854.451	22135
854.585	21831
854.72	21884
854.854	21838
854.988	21884
855.122	21880
855.256	21747
855.39	21755
855.524	21960
855.658	21922
855.792	21835
855.926	21895
856.06	21930
856.194	22086
856.327	22040
856.461	21732
856.595	21724
856.729	21724
856.862	21987
856.996	21922
857.13	22029
857.263	22010
857.397	22029
857.53	21869
857.664	21991
857.797	21949
857.931	21953
858.064	21934
858.197	22048
858.331	21804
858.464	21865
858.597	21865
858.731	21926
858.864	21876
858.997	21907
859.13	21816
859.263	21972
859.396	21949
859.529	21876
859.662	21876
859.795	21907
859.928	21934
860.061	21968
860.194	21998
860.327	21838
860.46	21895
860.592	21895
860.725	22002
860.858	22105
860.99	21831
861.123	21770
861.256	21823
861.388	21922
861.521	22584
861.653	21618
861.786	21648
861.918	21637
862.05	21751
862.183	21755
862.315	21755
862.447	21968
862.58	21759
862.712	21591
862.844	21557
862.976	21736
863.108	21610
863.24	22112
863.372	21549
863.504	21561
863.636	21450
863.768	21637
863.9	21652
864.032	21561
864.164	21523
864.296	21583
864.428	21663
864.559	21724
864.691	21679
864.823	21561
864.954	21580
865.086	21454
865.217	21420
865.349	21462
865.48	21507
865.612	21393
865.743	21633
865.875	21488
866.006	21351
866.137	21507
866.269	21260
866.4	21526
866.531	21374
866.662	21378
866.793	21401
866.924	21367
867.055	21275
867.186	21420
867.317	21439
867.448	21306
867.579	21443
867.71	21291
867.841	21348
867.972	21359
868.103	21359
868.233	21481
868.364	21367
868.495	21473
868.625	21610
868.756	21728
868.886	21557
869.017	21663
869.147	21774
869.278	21778
869.408	21618
869.539	21561
869.669	21686
869.799	21812
869.929	21641
870.06	21755
870.19	21903
870.32	21991
870.45	21994
870.58	21975
870.71	22093
870.84	22185
870.97	21972
871.1	22116
871.23	22143
871.36	22325
871.489	22230
871.619	22215
871.749	22223
871.879	22207
872.008	22215
872.138	22363
872.267	22188
872.397	22185
872.526	22070
872.656	22055
872.785	21983
872.915	22306
873.044	22344
873.173	22253
873.303	22394
873.432	22310
873.561	22329
873.69	22287
873.819	22322
873.948	22447
874.077	22242
874.206	22204
874.335	22246
874.464	22360
874.593	22474
874.722	22577
874.851	22535
874.979	22569
875.108	22603
875.237	22443
875.365	22348
875.494	22474
875.623	22527
875.751	22580
875.88	22466
876.008	22698
876.136	22771
876.265	22843
876.393	22847
876.521	22866
876.65	23041
876.778	22812
876.906	22866
877.034	22672
877.162	22812
877.29	22797
877.418	22816
877.546	22847
877.674	22816
877.802	22744
877.93	22839
878.058	22740
878.185	22683
878.313	22862
878.441	22847
878.568	22634
878.696	22729
878.824	22831
878.951	22934
879.079	23033
879.206	23006
879.333	22965
879.461	22892
879.588	22927
879.715	22991
879.842	23098
879.97	22889
880.097	22710
880.224	22729
880.351	22618
880.478	22733
880.605	22706
880.732	22820
880.859	22930
880.986	22733
881.112	22736
881.239	22523
881.366	22421
881.493	22367
881.619	22306
881.746	22291
881.872	22318
881.999	22188
882.125	22070
882.252	22143
882.378	22131
882.505	22390
882.631	21983
882.757	21930
882.883	22059
883.01	21823
883.136	21819
883.262	21755
883.388	21701
883.514	22002
883.64	21857
883.766	21739
883.892	21770
884.018	21736
884.143	21835
884.269	21926
884.395	21732
884.52	21614
884.646	21595
884.772	21435
884.897	21473
885.023	21473
885.148	21564
885.274	21793
885.399	21648
885.524	21557
885.65	21641
885.775	21500
885.9	21595
886.025	21603
886.15	21599
886.275	21564
886.4	21507
886.525	21610
886.65	21431
886.775	21485
886.9	21572
887.025	21736
887.149	21511
887.274	21237
887.399	21397
887.523	21291
887.648	21245
887.773	21310
887.897	21393
888.021	21340
888.146	21294
888.27	21420
888.395	21428
888.519	21351
888.643	21264
888.767	21336
888.891	21287
889.015	21058
889.139	21173
889.263	21077
889.387	21256
889.511	21344
889.635	21386
889.759	21123
889.883	21036
890.006	21146
890.13	21214
890.254	21043
890.377	20986
890.501	20868
890.624	20800
890.748	20979
890.871	20864
890.995	20720
891.118	20754
891.241	20762
891.364	20720
891.488	20819
891.611	20701
891.734	20651
891.857	20705
891.98	20788
892.103	20693
892.226	20655
892.349	20636
892.471	20419
892.594	20571
892.717	20640
892.839	20640
892.962	20689
893.085	20613
893.207	20461
893.33	20492
893.452	20461
893.575	20716
893.697	20590
893.819	20693
893.941	20758
894.064	20864
894.186	20545
894.308	20385
894.43	20701
894.552	20705
894.674	20670
894.796	20492
894.918	20495
895.04	20621
895.161	20667
895.283	20594
895.405	20564
895.526	20552
895.648	20537
895.769	20461
895.891	20533
896.012	20590
896.134	20526
896.255	20648
896.376	20423
896.498	20545
896.619	20511
896.74	20526
896.861	20636
896.982	20727
897.103	21001
897.224	20853
897.345	20701
897.466	20651
897.587	20864
897.708	20811
897.828	20819
897.949	20769
898.07	20644
898.19	20667
898.311	20857
898.431	20686
898.552	20781
898.672	20925
898.792	20887
898.913	20682
899.033	20648
899.153	20689
899.273	20507
899.393	20514
899.513	20560
899.633	20594
899.753	20617
899.873	20457
899.993	20571
900.113	20503
900.232	20518
900.352	20514
900.472	20282
900.591	20332
900.711	20351
900.83	20153
900.95	20389
901.069	20377
901.189	20088
901.308	19986
901.427	19826
901.546	19917
901.665	19837
901.784	19928
901.904	19807
902.023	19677
902.141	19521
902.26	19407
902.379	19434
902.498	19365
902.617	19392
902.735	19297
902.854	19422
902.973	19263
903.091	19069
903.21	19038
903.328	18970
903.446	19050
903.565	18837
903.683	18859
903.801	18722
903.919	18745
904.038	18760
904.156	18757
904.274	18639
904.392	18582
904.51	18517
904.627	18547
904.745	18589
904.863	18627
904.981	18422
905.098	18209
905.216	18155
905.334	18376
905.451	18342
905.569	18346
905.686	18342
905.803	18220
905.921	18087
906.038	18152
906.155	18140
906.272	18053
906.389	17882
906.506	17809
906.623	17805
906.74	17866
906.857	17672
906.974	17680
907.091	17893
907.208	17836
907.324	17783
907.441	17767
907.557	17558
907.674	17528
907.79	17467
907.907	17444
908.023	17562
908.139	17611
908.256	17425
908.372	17429
908.488	17429
908.604	17311
908.72	17231
908.836	17258
908.952	17235
909.068	17326
909.184	17261
909.3	17284
909.415	17181
909.531	17181
909.647	16972
909.762	16942
909.878	16873
909.993	16942
910.108	16862
910.224	16885
910.339	16858
910.454	16831
910.57	16687
910.685	16710
910.8	16889
910.915	16968
911.03	16748
911.145	16603
911.259	16485
911.374	16573
911.489	16470
911.604	16268
911.718	16276
911.833	16188
911.947	16147
912.062	16112
912.176	16318
912.291	16310
912.405	16204
912.519	16523
912.633	16462
912.748	16314
912.862	16287
912.976	16040
913.09	15998
913.204	16101
913.318	16002
913.431	16154
913.545	16090
913.659	16112
913.772	16086
913.886	15903
914	15812
914.113	15918
914.226	16074
914.34	15956
914.453	15713
914.566	15918
914.68	15713
914.793	15789
914.906	15538
915.019	15500
915.132	15420
915.245	15412
915.358	15504
915.47	15439
915.583	15382
915.696	15492
915.809	15671
915.921	15568
916.034	15275
916.146	15405
916.259	15268
916.371	15397
916.483	15382
916.595	15310
916.708	15260
916.82	15268
916.932	15370
917.044	15230
917.156	15245
917.268	15142
917.38	15138
917.491	15097
917.603	15062
917.715	15089
917.826	15165
917.938	15017
918.049	14804
918.161	15032
918.272	15199
918.384	15184
918.495	15077
918.606	14925
918.717	14880
918.828	14937
918.939	14937
919.05	14826
919.161	14807
919.272	14583
919.383	14636
919.494	14956
919.604	15001
919.715	14823
919.826	14781
919.936	14773
920.047	14887
920.157	14769
920.267	14986
920.378	14857
920.488	14857
920.598	14986
920.708	15112
920.818	14994
920.928	14979
921.038	15104
921.148	15001
921.258	14769
921.368	14640
921.477	14537
921.587	14541
921.697	14374
921.806	14503
921.916	14419
922.025	14252
922.134	14088
922.244	14153
922.353	14237
922.462	14043
922.571	14035
922.68	13906
922.789	13803
922.898	13898
923.007	13769
923.116	13856
923.224	13864
923.333	13784
923.442	13753
923.55	13628
923.659	13647
923.767	13677
923.876	13495
923.984	13708
924.092	13575
924.201	13616
924.309	13548
924.417	13502
924.525	13407
924.633	13502
924.741	14465
924.849	13289
924.956	13434
925.064	13228
925.172	13084
925.279	13202
925.387	13213
925.494	13225
925.602	13346
925.709	13255
925.816	13122
925.924	13168
926.031	13278
926.138	13213
926.245	13270
926.352	13095
926.459	13156
926.566	13206
926.673	13050
926.779	12924
926.886	12977
926.993	12757
927.099	12814
927.206	12722
927.312	12711
927.419	12833
927.525	12776
927.631	12848
927.737	12658
927.843	12585
927.95	12502
928.056	12669
928.162	12597
928.267	12703
928.373	13282
928.479	12677
928.585	12452
928.69	12574
928.796	12612
928.901	12464
929.007	12289
929.112	12532
929.218	12384
929.323	12391
929.428	12391
929.533	12391
929.638	12311
929.743	12258
929.848	12296
929.953	12292
930.058	12159
930.163	11969
930.267	12083
930.372	12136
930.477	11878
930.581	12152
930.685	11992
930.79	11874
930.894	11954
930.998	11878
931.103	11939
931.207	11570
931.311	11535
931.415	11436
931.519	11216
931.623	11235
