Data from test_V78500241_1383.txt Node
Date: Fri Mar 25 15:51:22 CST 2022
User: usil
Spectrometer: V785-0024
Trigger mode: 0
Integration Time (sec): 4.000000E-1
Scans to average: 1
Nonlinearity correction enabled: false
Boxcar width: 0
Storing dark spectrum: false
XAxis mode: Wavelengths
Number of Pixels in Spectrum: 1024
>>>>>Begin Spectral Data<<<<<
801.071	27591
801.214	27629
801.356	27245
801.499	27340
801.641	27283
801.783	27218
801.926	27104
802.068	27226
802.211	27058
802.353	27070
802.496	26982
802.638	26781
802.78	26769
802.923	26712
803.065	26708
803.208	26743
803.35	26807
803.492	26743
803.635	27043
803.777	26876
803.919	27051
804.061	27245
804.204	27093
804.346	26975
804.488	26811
804.63	26948
804.773	26823
804.915	26929
805.057	27214
805.199	26979
805.341	27070
805.483	27138
805.626	27173
805.768	27116
805.91	27077
806.052	27298
806.194	27112
806.336	27256
806.478	27074
806.62	27085
806.762	27370
806.904	27397
807.046	27606
807.188	27454
807.33	27397
807.472	27679
807.614	27534
807.756	27545
807.898	27439
808.04	27329
808.182	27405
808.324	27450
808.465	27412
808.607	27717
808.749	27804
808.891	27838
809.033	27869
809.174	27854
809.316	27755
809.458	27644
809.6	27705
809.741	27934
809.883	28078
810.025	28116
810.166	27972
810.308	28013
810.45	28013
810.591	27892
810.733	27800
810.875	27892
811.016	27507
811.158	27698
811.299	27770
811.441	27918
811.582	27968
811.724	27797
811.865	27618
812.007	27717
812.148	27686
812.29	27778
812.431	27968
812.573	28166
812.714	28029
812.855	28284
812.997	28257
813.138	28557
813.279	28409
813.421	28310
813.562	28150
813.703	28097
813.845	28002
813.986	27705
814.127	27557
814.268	27530
814.41	27416
814.551	27344
814.692	27485
814.833	27469
814.974	27374
815.115	27401
815.256	27233
815.397	27245
815.539	27336
815.68	27192
815.821	27260
815.962	27154
816.103	27161
816.244	27024
816.385	27009
816.526	26918
816.666	26773
816.807	26598
816.948	26800
817.089	26819
817.23	26655
817.371	26826
817.512	26720
817.653	26792
817.793	26693
817.934	26731
818.075	26689
818.216	26727
818.356	26720
818.497	26552
818.638	26476
818.778	26453
818.919	26351
819.06	26503
819.2	26560
819.341	26693
819.481	26594
819.622	26887
819.762	27058
819.903	26986
820.043	26857
820.184	26731
820.324	26765
820.465	26921
820.605	26792
820.746	26682
820.886	26708
821.026	26918
821.167	26906
821.307	26838
821.447	26758
821.588	26583
821.728	26579
821.868	26370
822.008	26256
822.149	26062
822.289	26199
822.429	26012
822.569	25898
822.709	25928
822.849	25677
822.99	25795
823.13	25731
823.27	25734
823.41	25457
823.55	25384
823.69	25552
823.83	25521
823.97	25479
824.11	25263
824.25	25316
824.389	25320
824.529	25415
824.669	25365
824.809	25453
824.949	25312
825.089	25403
825.228	25274
825.368	25133
825.508	25255
825.648	25190
825.787	25141
825.927	25346
826.067	25324
826.206	25240
826.346	25202
826.485	25228
826.625	25247
826.765	25065
826.904	25228
827.044	24932
827.183	24996
827.323	25031
827.462	24962
827.601	25160
827.741	24776
827.88	24981
828.02	24901
828.159	24966
828.298	24996
828.437	24848
828.577	24905
828.716	24989
828.855	24817
828.994	24612
829.134	24544
829.273	24700
829.412	24627
829.551	24612
829.69	24498
829.829	24540
829.968	24707
830.107	24806
830.246	24730
830.385	24471
830.524	24498
830.663	24365
830.802	24296
830.941	24167
831.08	24121
831.219	24292
831.357	24342
831.496	24437
831.635	24277
831.774	24171
831.913	24155
832.051	23980
832.19	23992
832.329	24076
832.467	23828
832.606	23756
832.744	23847
832.883	23927
833.022	23863
833.16	23790
833.299	23904
833.437	23855
833.576	23996
833.714	23980
833.852	24030
833.991	24022
834.129	24136
834.267	24015
834.406	23927
834.544	23931
834.682	23920
834.821	23927
834.959	24030
835.097	23939
835.235	24068
835.373	23965
835.511	23817
835.65	23958
835.788	23741
835.926	23703
836.064	23547
836.202	23566
836.34	23695
836.478	23969
836.615	23950
836.753	23775
836.891	23843
837.029	23748
837.167	23790
837.305	23642
837.443	23608
837.58	23585
837.718	23752
837.856	23471
837.993	23448
838.131	23592
838.269	23535
838.406	23478
838.544	23486
838.681	23250
838.819	23326
838.956	23200
839.094	23086
839.231	23060
839.369	23277
839.506	23509
839.643	23337
839.781	23083
839.918	22915
840.055	23178
840.193	23121
840.33	23033
840.467	23075
840.604	23037
840.742	23341
840.879	22847
841.016	23022
841.153	22946
841.29	23220
841.427	23056
841.564	23143
841.701	23083
841.838	22927
841.975	22949
842.112	22889
842.249	22881
842.385	22843
842.522	22995
842.659	22850
842.796	22797
842.933	22786
843.069	22683
843.206	22782
843.343	22904
843.479	22702
843.616	22786
843.752	22508
843.889	22519
844.025	22767
844.162	22508
844.298	22702
844.435	22512
844.571	22622
844.708	22653
844.844	22668
844.98	22698
845.117	22573
845.253	22516
845.389	22512
845.525	22352
845.661	22436
845.798	22181
845.934	22382
846.07	22226
846.206	22318
846.342	22428
846.478	22261
846.614	22101
846.75	22044
846.886	22010
847.022	22086
847.158	21964
847.294	22048
847.429	22135
847.565	21983
847.701	22268
847.837	21823
847.972	21701
848.108	21819
848.244	21808
848.379	21728
848.515	21686
848.65	21583
848.786	21667
848.921	21488
849.057	21724
849.192	21682
849.328	21595
849.463	21606
849.598	21515
849.734	21435
849.869	21439
850.004	21378
850.14	21359
850.275	21367
850.41	21355
850.545	21268
850.68	21359
850.815	21469
850.95	21287
851.085	21606
851.22	21389
851.355	21443
851.49	21317
851.625	21332
851.76	21329
851.895	21272
852.03	21203
852.165	21291
852.299	21374
852.434	21397
852.569	21359
852.703	21389
852.838	21428
852.973	21534
853.107	21526
853.242	21226
853.376	21367
853.511	21013
853.645	21161
853.78	21230
853.914	21294
854.048	21169
854.183	21150
854.317	21287
854.451	21359
854.585	21298
854.72	21275
854.854	21169
854.988	21123
855.122	21188
855.256	21074
855.39	21317
855.524	21291
855.658	21245
855.792	21222
855.926	21142
856.06	21245
856.194	21298
856.327	21230
856.461	21150
856.595	21188
856.729	21119
856.862	21298
856.996	21066
857.13	21287
857.263	21325
857.397	21279
857.53	21226
857.664	21283
857.797	21252
857.931	21294
858.064	21245
858.197	21329
858.331	21180
858.464	21028
858.597	21074
858.731	21146
858.864	21123
858.997	21116
859.13	21279
859.263	21283
859.396	21127
859.529	21165
859.662	21157
859.795	21157
859.928	21245
860.061	21382
860.194	21431
860.327	21195
860.46	21268
860.592	21283
860.725	21249
860.858	21321
860.99	21138
861.123	21070
861.256	21104
861.388	21135
861.521	21876
861.653	21142
861.786	21096
861.918	20952
862.05	20990
862.183	21157
862.315	21123
862.447	21214
862.58	21039
862.712	20975
862.844	20853
862.976	21062
863.108	21001
863.24	21412
863.372	20918
863.504	20838
863.636	20853
863.768	20891
863.9	20811
864.032	20902
864.164	20906
864.296	20967
864.428	21047
864.559	20971
864.691	20914
864.823	20823
864.954	20811
865.086	20842
865.217	20762
865.349	20678
865.48	20754
865.612	20845
865.743	20880
865.875	20796
866.006	20693
866.137	20746
866.269	20800
866.4	20842
866.531	20773
866.662	20701
866.793	20762
866.924	20564
867.055	20788
867.186	20682
867.317	20678
867.448	20552
867.579	20724
867.71	20587
867.841	20648
867.972	20667
868.103	20765
868.233	20746
868.364	20731
868.495	20796
868.625	21047
868.756	21001
868.886	20861
869.017	20952
869.147	21131
869.278	21108
869.408	21028
869.539	21062
869.669	21112
869.799	21055
869.929	21108
870.06	21203
870.19	21420
870.32	21222
870.45	21294
870.58	21412
870.71	21496
870.84	21466
870.97	21268
871.1	21382
871.23	21412
871.36	21625
871.489	21439
871.619	21397
871.749	21504
871.879	21492
872.008	21709
872.138	21633
872.267	21622
872.397	21397
872.526	21260
872.656	21428
872.785	21469
872.915	21557
873.044	21736
873.173	21583
873.303	21701
873.432	21625
873.561	21785
873.69	21671
873.819	21599
873.948	21663
874.077	21717
874.206	21644
874.335	21694
874.464	21793
874.593	21945
874.722	21823
874.851	21911
874.979	21827
875.108	21835
875.237	21808
875.365	21641
875.494	21755
875.623	21922
875.751	21827
875.88	21819
876.008	21895
876.136	21922
876.265	22166
876.393	22246
876.521	22253
876.65	22204
876.778	22169
876.906	22147
877.034	22329
877.162	22154
877.29	21991
877.418	22124
877.546	22181
877.674	22070
877.802	22036
877.93	22261
878.058	22067
878.185	22067
878.313	22063
878.441	22166
878.568	22013
878.696	22154
878.824	22219
878.951	22246
879.079	22352
879.206	22424
879.333	22318
879.461	22169
879.588	22211
879.715	22405
879.842	22447
879.97	22185
880.097	21915
880.224	21987
880.351	22120
880.478	21880
880.605	21903
880.732	21975
880.859	22185
880.986	21956
881.112	22048
881.239	21854
881.366	21732
881.493	21561
881.619	21675
881.746	21629
881.872	21595
881.999	21583
882.125	21492
882.252	21534
882.378	21519
882.505	21625
882.631	21428
882.757	21306
882.883	21351
883.01	21351
883.136	21310
883.262	21127
883.388	21135
883.514	21264
883.64	21321
883.766	21165
883.892	21062
884.018	21138
884.143	21116
884.269	21214
884.395	20937
884.52	20849
884.646	20883
884.772	20845
884.897	20777
885.023	21013
885.148	21028
885.274	21135
885.399	20941
885.524	20960
885.65	20887
885.775	20967
885.9	20929
886.025	21005
886.15	20941
886.275	20849
886.4	20872
886.525	20845
886.65	20857
886.775	20975
886.9	21013
887.025	20998
887.149	20956
887.274	20750
887.399	20629
887.523	20682
887.648	20731
887.773	20629
887.897	20750
888.021	20735
888.146	20617
888.27	20834
888.395	20834
888.519	20785
888.643	20754
888.767	20625
888.891	20613
889.015	20412
889.139	20522
889.263	20370
889.387	20526
889.511	20640
889.635	20556
889.759	20530
889.883	20533
890.006	20389
890.13	20514
890.254	20415
890.377	20412
890.501	20233
890.624	20199
890.748	20393
890.871	20172
890.995	20062
891.118	19989
891.241	20115
891.364	20008
891.488	20115
891.611	19947
891.734	20069
891.857	20096
891.98	20043
892.103	20050
892.226	20119
892.349	20062
892.471	19837
892.594	20008
892.717	20031
892.839	19898
892.962	20050
893.085	20031
893.207	19940
893.33	19845
893.452	19849
893.575	19944
893.697	19868
893.819	20157
893.941	19997
894.064	20073
894.186	19959
894.308	19913
894.43	20142
894.552	20221
894.674	20096
894.796	19989
894.918	19909
895.04	19898
895.161	20092
895.283	20024
895.405	19833
895.526	20046
895.648	19959
895.769	19883
895.891	19856
896.012	20069
896.134	20054
896.255	20008
896.376	19951
896.498	19967
896.619	19974
896.74	20016
896.861	20012
896.982	20450
897.103	20328
897.224	20237
897.345	20237
897.466	20012
897.587	20225
897.708	20362
897.828	20172
897.949	20119
898.07	19955
898.19	20214
898.311	20305
898.431	20115
898.552	20256
898.672	20229
898.792	20237
898.913	20164
899.033	20084
899.153	20058
899.273	19902
899.393	19871
899.513	20020
899.633	19883
899.753	19944
899.873	20008
899.993	20050
900.113	19925
900.232	20001
900.352	19696
900.472	19833
900.591	19769
900.711	19849
900.83	19693
900.95	19826
901.069	19879
901.189	19590
901.308	19377
901.427	19320
901.546	19495
901.665	19343
901.784	19346
901.904	19137
902.023	19175
902.141	18913
902.26	18932
902.379	18928
902.498	18787
902.617	18810
902.735	18863
902.854	18791
902.973	18776
903.091	18555
903.21	18551
903.328	18563
903.446	18403
903.565	18418
903.683	18292
903.801	18235
903.919	18251
904.038	18258
904.156	18034
904.274	18091
904.392	18091
904.51	17961
904.627	18038
904.745	18102
904.863	18239
904.981	17775
905.098	17779
905.216	17630
905.334	17794
905.451	17851
905.569	17817
905.686	17687
905.803	17840
905.921	17577
906.038	17577
906.155	17592
906.272	17417
906.389	17528
906.506	17341
906.623	17345
906.74	17193
906.857	17223
906.974	17140
907.091	17223
907.208	17433
907.324	17250
907.441	17052
907.557	17045
907.674	16984
907.79	16942
907.907	16968
908.023	16957
908.139	17052
908.256	17010
908.372	16938
908.488	16820
908.604	16634
908.72	16698
908.836	16755
908.952	16755
909.068	16656
909.184	16763
909.3	16862
909.415	16672
909.531	16702
909.647	16462
909.762	16390
909.878	16462
909.993	16398
910.108	16428
910.224	16405
910.339	16390
910.454	16185
910.57	16295
910.685	16166
910.8	16379
910.915	16379
911.03	16306
911.145	15991
911.259	16025
911.374	15964
911.489	15983
911.604	15876
911.718	15804
911.833	15774
911.947	15739
912.062	15622
912.176	15705
912.291	15789
912.405	15751
912.519	16059
912.633	15903
912.748	15838
912.862	15724
912.976	15530
913.09	15477
913.204	15496
913.318	15610
913.431	15663
913.545	15568
913.659	15633
913.772	15526
913.886	15424
914	15420
914.113	15553
914.226	15420
914.34	15466
914.453	15332
914.566	15351
914.68	15256
914.793	15245
914.906	15108
915.019	14929
915.132	15077
915.245	14990
915.358	15001
915.47	15077
915.583	14994
915.696	14933
915.809	15142
915.921	15165
916.034	14971
916.146	14941
916.259	14895
916.371	14963
916.483	14975
916.595	14754
916.708	14830
916.82	14727
916.932	14765
917.044	14796
917.156	14792
917.268	14663
917.38	14636
917.491	14636
917.603	14610
917.715	14796
917.826	14743
917.938	14651
918.049	14556
918.161	14476
918.272	14587
918.384	14655
918.495	14541
918.606	14423
918.717	14263
918.828	14465
918.939	14499
919.05	14332
919.161	14415
919.272	14317
919.383	14229
919.494	14366
919.604	14602
919.715	14385
919.826	14218
919.936	14362
920.047	14480
920.157	14339
920.267	14522
920.378	14419
920.488	14339
920.598	14511
920.708	14674
920.818	14571
920.928	14454
921.038	14720
921.148	14579
921.258	14358
921.368	14267
921.477	14210
921.587	14126
921.697	13982
921.806	14126
921.916	14119
922.025	13871
922.134	13715
922.244	13712
922.353	13875
922.462	13647
922.571	13658
922.68	13449
922.789	13358
922.898	13415
923.007	13350
923.116	13422
923.224	13358
923.333	13346
923.442	13255
923.55	13225
923.659	13244
923.767	13320
923.876	13240
923.984	13350
924.092	13076
924.201	13251
924.309	13084
924.417	13179
924.525	13187
924.633	13126
924.741	13986
924.849	12871
924.956	12947
925.064	12894
925.172	12738
925.279	12897
925.387	12932
925.494	12852
925.602	12939
925.709	12920
925.816	12692
925.924	12700
926.031	12913
926.138	12681
926.245	12833
926.352	12578
926.459	12757
926.566	12871
926.673	12639
926.779	12566
926.886	12544
926.993	12414
927.099	12376
927.206	12327
927.312	12361
927.419	12372
927.525	12456
927.631	12502
927.737	12357
927.843	12270
927.95	12072
928.056	12205
928.162	12213
928.267	12308
928.373	12909
928.479	12342
928.585	12034
928.69	12251
928.796	12186
928.901	12102
929.007	11939
929.112	12102
929.218	12022
929.323	12022
929.428	11980
929.533	12091
929.638	11916
929.743	11893
929.848	11961
929.953	11893
930.058	11809
930.163	11623
930.267	11680
930.372	11794
930.477	11535
930.581	11897
930.685	11737
930.79	11520
930.894	11543
930.998	11482
931.103	11627
931.207	11280
931.311	11220
931.415	11014
931.519	10911
931.623	10991
