Data from test_V78500241_1113.txt Node
Date: Fri Mar 25 15:49:30 CST 2022
User: usil
Spectrometer: V785-0024
Trigger mode: 0
Integration Time (sec): 4.000000E-1
Scans to average: 1
Nonlinearity correction enabled: false
Boxcar width: 0
Storing dark spectrum: false
XAxis mode: Wavelengths
Number of Pixels in Spectrum: 1024
>>>>>Begin Spectral Data<<<<<
801.071	28557
801.214	28390
801.356	28223
801.499	28166
801.641	28070
801.783	28013
801.926	28192
802.068	28021
802.211	28051
802.353	27899
802.496	27739
802.638	27542
802.78	27789
802.923	27610
803.065	27656
803.208	27766
803.35	27762
803.492	27808
803.635	27968
803.777	27694
803.919	27835
804.061	28238
804.204	28067
804.346	27975
804.488	27785
804.63	27994
804.773	27793
804.915	27991
805.057	28090
805.199	27926
805.341	27884
805.483	28109
805.626	28124
805.768	28040
805.91	28147
806.052	28013
806.194	28067
806.336	28421
806.478	28109
806.62	28249
806.762	28246
806.904	28337
807.046	28584
807.188	28542
807.33	28668
807.472	28675
807.614	28489
807.756	28538
807.898	28424
808.04	28409
808.182	28424
808.324	28413
808.465	28489
808.607	28653
808.749	28801
808.891	28809
809.033	29003
809.174	28900
809.316	28869
809.458	28809
809.6	28927
809.741	28949
809.883	28873
810.025	29086
810.166	29094
810.308	29075
810.45	28965
810.591	29079
810.733	28805
810.875	28892
811.016	28580
811.158	28782
811.299	29010
811.441	28987
811.582	29010
811.724	28938
811.865	28805
812.007	28793
812.148	28790
812.29	28915
812.431	29010
812.573	29029
812.714	29280
812.855	29429
812.997	29406
813.138	29726
813.279	29417
813.421	29242
813.562	29356
813.703	29181
813.845	29037
813.986	28740
814.127	28634
814.268	28573
814.41	28573
814.551	28615
814.692	28713
814.833	28447
814.974	28535
815.115	28656
815.256	28500
815.397	28443
815.539	28443
815.68	28371
815.821	28333
815.962	28470
816.103	28360
816.244	28204
816.385	28223
816.526	28093
816.666	27888
816.807	27736
816.948	27873
817.089	27861
817.23	28029
817.371	27949
817.512	27934
817.653	27873
817.793	27873
817.934	27759
818.075	27713
818.216	27987
818.356	27751
818.497	27842
818.638	27564
818.778	27587
818.919	27488
819.06	27690
819.2	27842
819.341	27865
819.481	27895
819.622	28021
819.762	28143
819.903	28234
820.043	27960
820.184	27876
820.324	27960
820.465	28059
820.605	27953
820.746	27972
820.886	27816
821.026	27945
821.167	27918
821.307	27979
821.447	27968
821.588	28006
821.728	27713
821.868	27473
822.008	27310
822.149	27264
822.289	27332
822.429	27039
822.569	27001
822.709	26971
822.849	26933
822.99	26929
823.13	26743
823.27	26777
823.41	26773
823.55	26492
823.69	26754
823.83	26674
823.97	26617
824.11	26457
824.25	26358
824.389	26503
824.529	26617
824.669	26530
824.809	26609
824.949	26625
825.089	26644
825.228	26446
825.368	26339
825.508	26347
825.648	26465
825.787	26480
825.927	26400
826.067	26412
826.206	26229
826.346	26385
826.485	26419
826.625	26415
826.765	26438
826.904	26290
827.044	26210
827.183	26161
827.323	25986
827.462	25966
827.601	25974
827.741	26062
827.88	26134
828.02	25894
828.159	26008
828.298	26183
828.437	26130
828.577	26100
828.716	26119
828.855	25982
828.994	25879
829.134	25769
829.273	25875
829.412	25655
829.551	25765
829.69	25791
829.829	25860
829.968	25906
830.107	25746
830.246	25742
830.385	25738
830.524	25647
830.663	25586
830.802	25460
830.941	25396
831.08	25381
831.219	25384
831.357	25419
831.496	25582
831.635	25407
831.774	25396
831.913	25320
832.051	25221
832.19	25114
832.329	25103
832.467	25171
832.606	25107
832.744	25069
832.883	25000
833.022	24962
833.16	24909
833.299	25228
833.437	25076
833.576	25042
833.714	24996
833.852	25122
833.991	25194
834.129	25187
834.267	25183
834.406	25053
834.544	25148
834.682	25114
834.821	25023
834.959	25266
835.097	25031
835.235	25103
835.373	25266
835.511	25175
835.65	24848
835.788	24901
835.926	24882
836.064	24654
836.202	24715
836.34	24970
836.478	25095
836.615	24939
836.753	24878
836.891	25065
837.029	24924
837.167	24894
837.305	24939
837.443	24795
837.58	24795
837.718	24833
837.856	24612
837.993	24768
838.131	24715
838.269	24578
838.406	24639
838.544	24635
838.681	24346
838.819	24350
838.956	24232
839.094	24232
839.231	24205
839.369	24422
839.506	24582
839.643	24380
839.781	24243
839.918	24277
840.055	24155
840.193	24106
840.33	24114
840.467	24201
840.604	24235
840.742	24353
840.879	24201
841.016	23996
841.153	24057
841.29	24258
841.427	24125
841.564	24205
841.701	24129
841.838	24038
841.975	24125
842.112	24049
842.249	24034
842.385	23878
842.522	24178
842.659	23885
842.796	23817
842.933	23863
843.069	23836
843.206	23824
843.343	23969
843.479	23828
843.616	23923
843.752	23737
843.889	23710
844.025	23718
844.162	23585
844.298	23741
844.435	23733
844.571	23634
844.708	23687
844.844	23764
844.98	23843
845.117	23642
845.253	23608
845.389	23615
845.525	23695
845.661	23436
845.798	23387
845.934	23493
846.07	23387
846.206	23368
846.342	23570
846.478	23345
846.614	23121
846.75	23075
846.886	23033
847.022	23178
847.158	23208
847.294	23018
847.429	23147
847.565	23022
847.701	23368
847.837	22923
847.972	22691
848.108	22896
848.244	22923
848.379	22843
848.515	22698
848.65	22793
848.786	22744
848.921	22752
849.057	22797
849.192	22740
849.328	22622
849.463	22622
849.598	22504
849.734	22497
849.869	22573
850.004	22478
850.14	22516
850.275	22546
850.41	22402
850.545	22367
850.68	22322
850.815	22500
850.95	22375
851.085	22565
851.22	22584
851.355	22481
851.49	22421
851.625	22344
851.76	22352
851.895	22474
852.03	22287
852.165	22504
852.299	22500
852.434	22603
852.569	22535
852.703	22493
852.838	22637
852.973	22592
853.107	22664
853.242	22500
853.376	22447
853.511	22329
853.645	22310
853.78	22386
853.914	22291
854.048	22234
854.183	22287
854.317	22356
854.451	22421
854.585	22219
854.72	22154
854.854	22325
854.988	22242
855.122	22371
855.256	22078
855.39	22234
855.524	22284
855.658	22341
855.792	22299
855.926	22344
856.06	22215
856.194	22371
856.327	22234
856.461	22204
856.595	22188
856.729	22253
856.862	22303
856.996	22280
857.13	22318
857.263	22386
857.397	22284
857.53	22253
857.664	22249
857.797	22276
857.931	22367
858.064	22322
858.197	22432
858.331	22360
858.464	22204
858.597	22177
858.731	22257
858.864	22249
858.997	22234
859.13	22226
859.263	22265
859.396	22371
859.529	22325
859.662	22265
859.795	22181
859.928	22284
860.061	22451
860.194	22451
860.327	22371
860.46	22352
860.592	22287
860.725	22493
860.858	22451
860.99	22257
861.123	22207
861.256	22055
861.388	22295
861.521	22896
861.653	22036
861.786	22139
861.918	21953
862.05	22128
862.183	22207
862.315	22204
862.447	22215
862.58	22128
862.712	22063
862.844	21953
862.976	22139
863.108	22158
863.24	22421
863.372	21812
863.504	22017
863.636	22017
863.768	22063
863.9	21865
864.032	21861
864.164	21975
864.296	21972
864.428	22101
864.559	22040
864.691	22032
864.823	21903
864.954	21861
865.086	21873
865.217	21873
865.349	21778
865.48	21861
865.612	21793
865.743	21964
865.875	21892
866.006	21876
866.137	21895
866.269	21835
866.4	21884
866.531	21774
866.662	21770
866.793	21644
866.924	21747
867.055	21823
867.186	21747
867.317	21766
867.448	21660
867.579	21755
867.71	21622
867.841	21774
867.972	21774
868.103	21747
868.233	21915
868.364	21762
868.495	21835
868.625	21945
868.756	22097
868.886	21892
869.017	22105
869.147	22116
869.278	22090
869.408	22063
869.539	21846
869.669	22154
869.799	22154
869.929	22177
870.06	22070
870.19	22192
870.32	22322
870.45	22379
870.58	22432
870.71	22637
870.84	22546
870.97	22443
871.1	22447
871.23	22615
871.36	22580
871.489	22485
871.619	22535
871.749	22615
871.879	22637
872.008	22763
872.138	22679
872.267	22630
872.397	22592
872.526	22386
872.656	22462
872.785	22436
872.915	22733
873.044	22656
873.173	22656
873.303	22733
873.432	22721
873.561	22748
873.69	22679
873.819	22596
873.948	22668
874.077	22668
874.206	22535
874.335	22675
874.464	22713
874.593	22824
874.722	22679
874.851	22885
874.979	22873
875.108	23014
875.237	22797
875.365	22740
875.494	22889
875.623	22968
875.751	22824
875.88	22957
876.008	22957
876.136	23071
876.265	23353
876.393	23474
876.521	23292
876.65	23212
876.778	23155
876.906	23143
877.034	23132
877.162	23166
877.29	23014
877.418	23041
877.546	23143
877.674	23220
877.802	23284
877.93	23117
878.058	23166
878.185	23094
878.313	23227
878.441	23181
878.568	22938
878.696	23102
878.824	23124
878.951	23246
879.079	23391
879.206	23524
879.333	23341
879.461	23102
879.588	23292
879.715	23379
879.842	23395
879.97	23299
880.097	22938
880.224	23033
880.351	22987
880.478	23109
880.605	22968
880.732	23041
880.859	23322
880.986	23025
881.112	23025
881.239	22934
881.366	22782
881.493	22592
881.619	22694
881.746	22656
881.872	22717
881.999	22550
882.125	22474
882.252	22687
882.378	22603
882.505	22645
882.631	22348
882.757	22219
882.883	22348
883.01	22173
883.136	22291
883.262	22120
883.388	22135
883.514	22371
883.64	22230
883.766	22181
883.892	22017
884.018	22070
884.143	22211
884.269	22284
884.395	21956
884.52	21835
884.646	21888
884.772	21854
884.897	21720
885.023	21972
885.148	22070
885.274	22040
885.399	21994
885.524	21911
885.65	21945
885.775	21884
885.9	21865
886.025	21888
886.15	21884
886.275	21831
886.4	21759
886.525	21785
886.65	21724
886.775	21861
886.9	22006
887.025	22139
887.149	21926
887.274	21622
887.399	21591
887.523	21561
887.648	21572
887.773	21557
887.897	21774
888.021	21793
888.146	21629
888.27	21629
888.395	21660
888.519	21625
888.643	21625
888.767	21759
888.891	21481
889.015	21454
889.139	21473
889.263	21405
889.387	21530
889.511	21545
889.635	21629
889.759	21454
889.883	21428
890.006	21515
890.13	21523
890.254	21317
890.377	21351
890.501	21226
890.624	21104
890.748	21245
890.871	21150
890.995	20853
891.118	21066
891.241	21066
891.364	21028
891.488	21093
891.611	20883
891.734	20986
891.857	21112
891.98	21089
892.103	21001
892.226	21013
892.349	20956
892.471	20769
892.594	20868
892.717	20960
892.839	20891
892.962	21013
893.085	20826
893.207	20861
893.33	20769
893.452	20853
893.575	20914
893.697	20861
893.819	21062
893.941	20975
894.064	21100
894.186	20906
894.308	20746
894.43	20979
894.552	21043
894.674	20887
894.796	20754
894.918	20701
895.04	20864
895.161	20861
895.283	21005
895.405	20823
895.526	20838
895.648	20724
895.769	20948
895.891	21036
896.012	20899
896.134	20899
896.255	20819
896.376	20830
896.498	20880
896.619	20918
896.74	20788
896.861	20910
896.982	21119
897.103	21325
897.224	21154
897.345	21203
897.466	21173
897.587	21138
897.708	21157
897.828	21077
897.949	21024
898.07	20815
898.19	20982
898.311	21093
898.431	20948
898.552	21100
898.672	21146
898.792	21119
898.913	21214
899.033	21001
899.153	20887
899.273	20758
899.393	20765
899.513	20777
899.633	20849
899.753	20872
899.873	20754
899.993	20777
900.113	20720
900.232	20743
900.352	20644
900.472	20640
900.591	20488
900.711	20503
900.83	20556
900.95	20708
901.069	20727
901.189	20404
901.308	20317
901.427	20157
901.546	20058
901.665	20180
901.784	20153
901.904	19993
902.023	20035
902.141	19746
902.26	19689
902.379	19750
902.498	19632
902.617	19655
902.735	19685
902.854	19594
902.973	19578
903.091	19407
903.21	19327
903.328	19304
903.446	19152
903.565	19190
903.683	19103
903.801	19072
903.919	19080
904.038	18871
904.156	18947
904.274	18962
904.392	18821
904.51	18913
904.627	18913
904.745	18856
904.863	18817
904.981	18631
905.098	18490
905.216	18585
905.334	18563
905.451	18597
905.569	18475
905.686	18536
905.803	18578
905.921	18281
906.038	18506
906.155	18407
906.272	18163
906.389	18251
906.506	18045
906.623	18209
906.74	18136
906.857	17954
906.974	17901
907.091	18095
907.208	18182
907.324	18121
907.441	17996
907.557	17878
907.674	17760
907.79	17817
907.907	17764
908.023	17661
908.139	17798
908.256	17699
908.372	17676
908.488	17554
908.604	17524
908.72	17467
908.836	17585
908.952	17524
909.068	17448
909.184	17589
909.3	17509
909.415	17463
909.531	17455
909.647	17212
909.762	17284
909.878	17121
909.993	17223
910.108	17071
910.224	17056
910.339	17083
910.454	16995
910.57	16919
910.685	16850
910.8	17098
910.915	17136
911.03	17052
911.145	16828
911.259	16710
911.374	16691
911.489	16721
911.604	16607
911.718	16599
911.833	16459
911.947	16428
912.062	16455
912.176	16550
912.291	16588
912.405	16607
912.519	16634
912.633	16710
912.748	16527
912.862	16451
912.976	16287
913.09	16093
913.204	16272
913.318	16318
913.431	16447
913.545	16257
913.659	16493
913.772	16265
913.886	16101
914	16162
914.113	16166
914.226	16280
914.34	16135
914.453	15983
914.566	16158
914.68	16036
914.793	15945
914.906	15850
915.019	15667
915.132	15762
915.245	15622
915.358	15785
915.47	15633
915.583	15770
915.696	15789
915.809	15808
915.921	15785
916.034	15644
916.146	15629
916.259	15572
916.371	15739
916.483	15622
916.595	15542
916.708	15462
916.82	15507
916.932	15447
917.044	15443
917.156	15458
917.268	15310
917.38	15401
917.491	15233
917.603	15389
917.715	15340
917.826	15416
917.938	15230
918.049	15138
918.161	15214
918.272	15469
918.384	15386
918.495	15283
918.606	15100
918.717	15047
918.828	15104
918.939	15131
919.05	14971
919.161	15150
919.272	14868
919.383	14910
919.494	15135
919.604	15233
919.715	14998
919.826	14967
919.936	15028
920.047	15127
920.157	15154
920.267	15211
920.378	15039
920.488	14982
920.598	15275
920.708	15386
920.818	15154
920.928	15169
921.038	15317
921.148	15393
921.258	15013
921.368	14963
921.477	14682
921.587	14720
921.697	14590
921.806	14777
921.916	14621
922.025	14651
922.134	14590
922.244	14370
922.353	14450
922.462	14286
922.571	14206
922.68	14084
922.789	14054
922.898	14100
923.007	13959
923.116	14088
923.224	14035
923.333	14050
923.442	13928
923.55	13841
923.659	13993
923.767	13909
923.876	13955
923.984	13894
924.092	13818
924.201	13807
924.309	13887
924.417	13833
924.525	13719
924.633	13757
924.741	14537
924.849	13556
924.956	13685
925.064	13540
925.172	13415
925.279	13472
925.387	13571
925.494	13472
925.602	13487
925.709	13468
925.816	13312
925.924	13373
926.031	13491
926.138	13388
926.245	13483
926.352	13411
926.459	13441
926.566	13415
926.673	13251
926.779	13263
926.886	13228
926.993	12981
927.099	13023
927.206	13000
927.312	12947
927.419	12993
927.525	13050
927.631	13031
927.737	12882
927.843	12875
927.95	12764
928.056	12814
928.162	12859
928.267	12817
928.373	13384
928.479	12958
928.585	12620
928.69	12734
928.796	12817
928.901	12635
929.007	12433
929.112	12677
929.218	12684
929.323	12623
929.428	12490
929.533	12623
929.638	12483
929.743	12361
929.848	12582
929.953	12483
930.058	12304
930.163	12262
930.267	12182
930.372	12380
930.477	12190
930.581	12407
930.685	12239
930.79	12053
930.894	12102
930.998	12175
931.103	12228
931.207	11904
931.311	11710
931.415	11592
931.519	11444
931.623	11471
