Data from test_V78500241_775.txt Node
Date: Fri Mar 25 15:47:10 CST 2022
User: usil
Spectrometer: V785-0024
Trigger mode: 0
Integration Time (sec): 4.000000E-1
Scans to average: 1
Nonlinearity correction enabled: false
Boxcar width: 0
Storing dark spectrum: false
XAxis mode: Wavelengths
Number of Pixels in Spectrum: 1024
>>>>>Begin Spectral Data<<<<<
801.071	28150
801.214	27975
801.356	27880
801.499	27675
801.641	27648
801.783	27682
801.926	27732
802.068	27641
802.211	27557
802.353	27515
802.496	27397
802.638	27405
802.78	27329
802.923	27325
803.065	27321
803.208	27283
803.35	27329
803.492	27405
803.635	27576
803.777	27249
803.919	27458
804.061	27778
804.204	27538
804.346	27466
804.488	27408
804.63	27504
804.773	27336
804.915	27648
805.057	27755
805.199	27538
805.341	27511
805.483	27705
805.626	27633
805.768	27614
805.91	27583
806.052	27629
806.194	27576
806.336	27854
806.478	27652
806.62	27705
806.762	27816
806.904	27846
807.046	28192
807.188	28109
807.33	28090
807.472	28093
807.614	28086
807.756	28051
807.898	27930
808.04	27759
808.182	28044
808.324	28059
808.465	27888
808.607	28139
808.749	28417
808.891	28329
809.033	28519
809.174	28382
809.316	28405
809.458	28401
809.6	28265
809.741	28401
809.883	28519
810.025	28706
810.166	28748
810.308	28641
810.45	28683
810.591	28481
810.733	28265
810.875	28367
811.016	28268
811.158	28287
811.299	28405
811.441	28470
811.582	28512
811.724	28375
811.865	28223
812.007	28344
812.148	28325
812.29	28325
812.431	28470
812.573	28725
812.714	28809
812.855	28847
812.997	29067
813.138	29193
813.279	28885
813.421	28972
813.562	28782
813.703	28626
813.845	28489
813.986	28306
814.127	28070
814.268	28055
814.41	27778
814.551	27949
814.692	27991
814.833	28006
814.974	27960
815.115	27972
815.256	27934
815.397	27785
815.539	27846
815.68	27869
815.821	27755
815.962	27819
816.103	27857
816.244	27789
816.385	27519
816.526	27488
816.666	27492
816.807	27291
816.948	27507
817.089	27488
817.23	27344
817.371	27283
817.512	27233
817.653	27336
817.793	27226
817.934	27329
818.075	27298
818.216	27397
818.356	27245
818.497	27135
818.638	27074
818.778	26956
818.919	27020
819.06	27173
819.2	27351
819.341	27386
819.481	27439
819.622	27488
819.762	27614
819.903	27603
820.043	27549
820.184	27382
820.324	27431
820.465	27557
820.605	27469
820.746	27367
820.886	27321
821.026	27507
821.167	27504
821.307	27389
821.447	27321
821.588	27298
821.728	27146
821.868	26868
822.008	26857
822.149	26872
822.289	26762
822.429	26560
822.569	26434
822.709	26541
822.849	26195
822.99	26221
823.13	26153
823.27	26286
823.41	26168
823.55	26092
823.69	26039
823.83	26084
823.97	26142
824.11	25898
824.25	25989
824.389	25830
824.529	26016
824.669	25997
824.809	26126
824.949	26012
825.089	26035
825.228	25966
825.368	25856
825.508	25833
825.648	25788
825.787	25803
825.927	25833
826.067	25879
826.206	25803
826.346	25879
826.485	25898
826.625	25837
826.765	25944
826.904	25909
827.044	25556
827.183	25556
827.323	25346
827.462	25715
827.601	25552
827.741	25552
827.88	25632
828.02	25274
828.159	25552
828.298	25510
828.437	25552
828.577	25426
828.716	25605
828.855	25460
828.994	25259
829.134	25164
829.273	25312
829.412	25255
829.551	25137
829.69	25175
829.829	25236
829.968	25232
830.107	25354
830.246	25324
830.385	25107
830.524	25126
830.663	25110
830.802	24859
830.941	24829
831.08	24783
831.219	24882
831.357	24833
831.496	25103
831.635	24840
831.774	24700
831.913	24719
832.051	24661
832.19	24521
832.329	24730
832.467	24563
832.606	24467
832.744	24464
832.883	24456
833.022	24494
833.16	24536
833.299	24540
833.437	24547
833.576	24711
833.714	24570
833.852	24585
833.991	24585
834.129	24513
834.267	24612
834.406	24582
834.544	24608
834.682	24486
834.821	24601
834.959	24814
835.097	24570
835.235	24661
835.373	24490
835.511	24505
835.65	24479
835.788	24437
835.926	24254
836.064	24251
836.202	24152
836.34	24410
836.478	24388
836.615	24391
836.753	24338
836.891	24490
837.029	24452
837.167	24357
837.305	24323
837.443	24338
837.58	24235
837.718	24289
837.856	24243
837.993	24289
838.131	24277
838.269	24117
838.406	24155
838.544	24011
838.681	23863
838.819	23832
838.956	23699
839.094	23600
839.231	23745
839.369	23764
839.506	24167
839.643	23893
839.781	23699
839.918	23687
840.055	23665
840.193	23668
840.33	23684
840.467	23585
840.604	23699
840.742	23977
840.879	23455
841.016	23543
841.153	23509
841.29	23783
841.427	23672
841.564	23646
841.701	23581
841.838	23539
841.975	23505
842.112	23570
842.249	23444
842.385	23505
842.522	23592
842.659	23402
842.796	23436
842.933	23448
843.069	23292
843.206	23246
843.343	23410
843.479	23474
843.616	23318
843.752	23197
843.889	23041
844.025	23162
844.162	23041
844.298	23242
844.435	23086
844.571	23113
844.708	23113
844.844	23292
844.98	23258
845.117	23292
845.253	23166
845.389	23029
845.525	23075
845.661	22976
845.798	23033
845.934	22877
846.07	22790
846.206	22911
846.342	23025
846.478	22839
846.614	22523
846.75	22611
846.886	22596
847.022	22664
847.158	22580
847.294	22500
847.429	22599
847.565	22592
847.701	22721
847.837	22230
847.972	22257
848.108	22413
848.244	22341
848.379	22078
848.515	22169
848.65	22204
848.786	22105
848.921	22162
849.057	22211
849.192	22211
849.328	22234
849.463	22211
849.598	22124
849.734	22074
849.869	22112
850.004	21892
850.14	21915
850.275	22048
850.41	21907
850.545	21953
850.68	21785
850.815	21930
850.95	22006
851.085	22150
851.22	22021
851.355	21934
851.49	21865
851.625	21911
851.76	21854
851.895	21846
852.03	21949
852.165	21915
852.299	21918
852.434	22006
852.569	21892
852.703	21991
852.838	22036
852.973	22017
853.107	22002
853.242	21934
853.376	21762
853.511	21728
853.645	21774
853.78	21968
853.914	21709
854.048	21667
854.183	21766
854.317	21899
854.451	21949
854.585	21747
854.72	21637
854.854	21857
854.988	21724
855.122	21812
855.256	21633
855.39	21728
855.524	21762
855.658	21819
855.792	21770
855.926	21675
856.06	21873
856.194	21800
856.327	21682
856.461	21690
856.595	21694
856.729	21633
856.862	21831
856.996	21739
857.13	21838
857.263	21884
857.397	21739
857.53	21755
857.664	21705
857.797	21679
857.931	21922
858.064	21850
858.197	21941
858.331	21808
858.464	21770
858.597	21690
858.731	21675
858.864	21876
858.997	21778
859.13	21774
859.263	21816
859.396	21876
859.529	21644
859.662	21724
859.795	21633
859.928	21759
860.061	21800
860.194	21907
860.327	21812
860.46	21671
860.592	21983
860.725	21918
860.858	21861
860.99	21789
861.123	21671
861.256	21705
861.388	21781
861.521	22440
861.653	21679
861.786	21561
861.918	21606
862.05	21637
862.183	21694
862.315	21682
862.447	21736
862.58	21698
862.712	21408
862.844	21466
862.976	21606
863.108	21603
863.24	21956
863.372	21542
863.504	21500
863.636	21466
863.768	21549
863.9	21378
864.032	21325
864.164	21424
864.296	21382
864.428	21488
864.559	21481
864.691	21507
864.823	21469
864.954	21462
865.086	21443
865.217	21370
865.349	21386
865.48	21302
865.612	21401
865.743	21477
865.875	21310
866.006	21344
866.137	21359
866.269	21306
866.4	21306
866.531	21351
866.662	21241
866.793	21317
866.924	21370
867.055	21439
867.186	21340
867.317	21184
867.448	21233
867.579	21264
867.71	21291
867.841	21207
867.972	21268
868.103	21195
868.233	21325
868.364	21355
868.495	21420
868.625	21488
868.756	21663
868.886	21477
869.017	21542
869.147	21694
869.278	21690
869.408	21576
869.539	21500
869.669	21690
869.799	21557
869.929	21701
870.06	21553
870.19	21915
870.32	21831
870.45	21880
870.58	21964
870.71	22044
870.84	21926
870.97	21850
871.1	21827
871.23	22150
871.36	22097
871.489	22044
871.619	22059
871.749	22109
871.879	22074
872.008	22242
872.138	22143
872.267	22135
872.397	22093
872.526	21873
872.656	22032
872.785	22036
872.915	22109
873.044	22177
873.173	22162
873.303	22154
873.432	22215
873.561	22223
873.69	22166
873.819	22177
873.948	22226
874.077	22128
874.206	22078
874.335	22090
874.464	22291
874.593	22432
874.722	22287
874.851	22360
874.979	22363
875.108	22325
875.237	22356
875.365	22371
875.494	22440
875.623	22379
875.751	22265
875.88	22421
876.008	22470
876.136	22500
876.265	22763
876.393	22847
876.521	22858
876.65	22717
876.778	22736
876.906	22645
877.034	22752
877.162	22683
877.29	22561
877.418	22645
877.546	22816
877.674	22725
877.802	22637
877.93	22755
878.058	22641
878.185	22592
878.313	22592
878.441	22656
878.568	22573
878.696	22687
878.824	22656
878.951	22759
879.079	22782
879.206	23003
879.333	22793
879.461	22759
879.588	22858
879.715	22911
879.842	22915
879.97	22862
880.097	22523
880.224	22550
880.351	22527
880.478	22550
880.605	22565
880.732	22577
880.859	22706
880.986	22523
881.112	22481
881.239	22390
881.366	22219
881.493	22192
881.619	22177
881.746	22177
881.872	22131
881.999	22032
882.125	22097
882.252	22181
882.378	22017
882.505	22169
882.631	22006
882.757	21759
882.883	21915
883.01	21812
883.136	21728
883.262	21606
883.388	21599
883.514	21785
883.64	21930
883.766	21614
883.892	21583
884.018	21644
884.143	21652
884.269	21934
884.395	21549
884.52	21401
884.646	21405
884.772	21359
884.897	21348
885.023	21393
885.148	21667
885.274	21538
885.399	21523
885.524	21481
885.65	21439
885.775	21382
885.9	21412
886.025	21606
886.15	21515
886.275	21321
886.4	21268
886.525	21329
886.65	21298
886.775	21374
886.9	21500
887.025	21557
887.149	21313
887.274	21283
887.399	21256
887.523	21287
887.648	21161
887.773	21074
887.897	21420
888.021	21359
888.146	21013
888.27	21325
888.395	21302
888.519	21302
888.643	21199
888.767	21245
888.891	21123
889.015	21028
889.139	21077
889.263	20929
889.387	21062
889.511	21245
889.635	20979
889.759	21009
889.883	20899
890.006	21005
890.13	21058
890.254	20956
890.377	20967
890.501	20815
890.624	20682
890.748	20804
890.871	20644
890.995	20526
891.118	20389
891.241	20507
891.364	20533
891.488	20689
891.611	20541
891.734	20632
891.857	20564
891.98	20549
892.103	20575
892.226	20549
892.349	20473
892.471	20381
892.594	20552
892.717	20488
892.839	20457
892.962	20507
893.085	20522
893.207	20423
893.33	20244
893.452	20313
893.575	20541
893.697	20457
893.819	20632
893.941	20579
894.064	20552
894.186	20351
894.308	20389
894.43	20556
894.552	20587
894.674	20613
894.796	20374
894.918	20355
895.04	20309
895.161	20568
895.283	20488
895.405	20320
895.526	20450
895.648	20408
895.769	20495
895.891	20549
896.012	20511
896.134	20625
896.255	20480
896.376	20370
896.498	20362
896.619	20537
896.74	20549
896.861	20377
896.982	20823
897.103	20785
897.224	20743
897.345	20617
897.466	20670
897.587	20720
897.708	20708
897.828	20693
897.949	20594
898.07	20503
898.19	20579
898.311	20689
898.431	20621
898.552	20636
898.672	20727
898.792	20758
898.913	20724
899.033	20484
899.153	20450
899.273	20355
899.393	20419
899.513	20461
899.633	20438
899.753	20415
899.873	20370
899.993	20404
900.113	20358
900.232	20355
900.352	20336
900.472	20267
900.591	20111
900.711	20180
900.83	20183
900.95	20202
901.069	20355
901.189	20005
901.308	19849
901.427	19833
901.546	19742
901.665	19681
901.784	19795
901.904	19795
902.023	19597
902.141	19400
902.26	19350
902.379	19327
902.498	19301
902.617	19255
902.735	19225
902.854	19263
902.973	19137
903.091	19008
903.21	18970
903.328	18970
903.446	18829
903.565	18684
903.683	18817
903.801	18631
903.919	18681
904.038	18669
904.156	18566
904.274	18547
904.392	18555
904.51	18437
904.627	18426
904.745	18574
904.863	18677
904.981	18315
905.098	18140
905.216	18171
905.334	18224
905.451	18110
905.569	18171
905.686	18315
905.803	18182
905.921	17923
906.038	18098
906.155	17969
906.272	17798
906.389	17802
906.506	17726
906.623	17710
906.74	17653
906.857	17695
906.974	17551
907.091	17779
907.208	17904
907.324	17627
907.441	17596
907.557	17501
907.674	17459
907.79	17307
907.907	17349
908.023	17440
908.139	17444
908.256	17421
908.372	17254
908.488	17288
908.604	17254
908.72	17079
908.836	17136
908.952	17037
909.068	17185
909.184	17117
909.3	17178
909.415	17197
909.531	17128
909.647	16900
909.762	16812
909.878	16763
909.993	16843
910.108	16820
910.224	16767
910.339	16809
910.454	16637
910.57	16618
910.685	16459
910.8	16862
910.915	16725
911.03	16516
911.145	16626
911.259	16500
911.374	16386
911.489	16375
911.604	16325
911.718	16162
911.833	16223
911.947	16131
912.062	16093
912.176	16109
912.291	16207
912.405	16272
912.519	16436
912.633	16394
912.748	16200
912.862	16029
912.976	15953
913.09	15907
913.204	15934
913.318	15880
913.431	16032
913.545	16109
913.659	16101
913.772	15911
913.886	15781
914	15705
914.113	15823
914.226	15892
914.34	15797
914.453	15690
914.566	15831
914.68	15663
914.793	15633
914.906	15538
915.019	15367
915.132	15374
915.245	15351
915.358	15469
915.47	15332
915.583	15306
915.696	15466
915.809	15500
915.921	15477
916.034	15256
916.146	15298
916.259	15207
916.371	15401
916.483	15313
916.595	15192
916.708	15188
916.82	15188
916.932	15237
917.044	15150
917.156	15161
917.268	15036
917.38	15112
917.491	14986
917.603	15036
917.715	15013
917.826	15089
917.938	14990
918.049	14864
918.161	15001
918.272	15108
918.384	15093
918.495	14921
918.606	14777
918.717	14788
918.828	14769
918.939	14781
919.05	14682
919.161	14811
919.272	14568
919.383	14552
919.494	14902
919.604	15017
919.715	14781
919.826	14648
919.936	14632
920.047	14754
920.157	14735
920.267	14982
920.378	14663
920.488	14731
920.598	14975
920.708	15036
920.818	14804
920.928	14811
921.038	15039
921.148	14941
921.258	14678
921.368	14621
921.477	14492
921.587	14438
921.697	14412
921.806	14438
921.916	14294
922.025	14259
922.134	14069
922.244	14043
922.353	14157
922.462	14069
922.571	13890
922.68	13753
922.789	13704
922.898	13700
923.007	13731
923.116	13807
923.224	13685
923.333	13651
923.442	13590
923.55	13521
923.659	13613
923.767	13613
923.876	13407
923.984	13548
924.092	13457
924.201	13487
924.309	13441
924.417	13415
924.525	13407
924.633	13316
924.741	14256
924.849	13095
924.956	13297
925.064	13251
925.172	13145
925.279	13160
925.387	13198
925.494	13190
925.602	13240
925.709	13160
925.816	13034
925.924	13053
926.031	13156
926.138	13091
926.245	13114
926.352	13076
926.459	13149
926.566	13179
926.673	12939
926.779	12878
926.886	12837
926.993	12844
927.099	12684
927.206	12654
927.312	12741
927.419	12772
927.525	12684
927.631	12787
927.737	12616
927.843	12555
927.95	12460
928.056	12498
928.162	12563
928.267	12547
928.373	13190
928.479	12532
928.585	12410
928.69	12433
928.796	12388
928.901	12372
929.007	12205
929.112	12452
929.218	12350
929.323	12323
929.428	12243
929.533	12395
929.638	12148
929.743	12125
929.848	12292
929.953	12243
930.058	12091
930.163	11916
930.267	11946
930.372	12019
930.477	11969
930.581	12049
930.685	11946
930.79	11828
930.894	11859
930.998	11775
931.103	11908
931.207	11592
931.311	11440
931.415	11436
931.519	11212
931.623	11166
