Data from test_V78500241_777.txt Node
Date: Fri Mar 25 15:47:11 CST 2022
User: usil
Spectrometer: V785-0024
Trigger mode: 0
Integration Time (sec): 4.000000E-1
Scans to average: 1
Nonlinearity correction enabled: false
Boxcar width: 0
Storing dark spectrum: false
XAxis mode: Wavelengths
Number of Pixels in Spectrum: 1024
>>>>>Begin Spectral Data<<<<<
801.071	28086
801.214	28090
801.356	27766
801.499	27679
801.641	27500
801.783	27679
801.926	27808
802.068	27603
802.211	27523
802.353	27641
802.496	27291
802.638	27188
802.78	27287
802.923	27256
803.065	27336
803.208	27416
803.35	27412
803.492	27405
803.635	27348
803.777	27340
803.919	27420
804.061	27869
804.204	27500
804.346	27420
804.488	27298
804.63	27553
804.773	27367
804.915	27610
805.057	27641
805.199	27424
805.341	27557
805.483	27557
805.626	27694
805.768	27492
805.91	27526
806.052	27675
806.194	27629
806.336	27838
806.478	27587
806.62	27675
806.762	27774
806.904	28013
807.046	28124
807.188	28093
807.33	28120
807.472	28219
807.614	28082
807.756	28051
807.898	28093
808.04	27964
808.182	27911
808.324	27998
808.465	28067
808.607	28166
808.749	28272
808.891	28436
809.033	28470
809.174	28413
809.316	28348
809.458	28287
809.6	28246
809.741	28508
809.883	28379
810.025	28641
810.166	28573
810.308	28596
810.45	28557
810.591	28413
810.733	28261
810.875	28386
811.016	28150
811.158	28246
811.299	28512
811.441	28611
811.582	28478
811.724	28344
811.865	28325
812.007	28268
812.148	28150
812.29	28375
812.431	28504
812.573	28622
812.714	28801
812.855	28801
812.997	28885
813.138	29132
813.279	28904
813.421	28923
813.562	28835
813.703	28824
813.845	28401
813.986	28322
814.127	28154
814.268	27983
814.41	28002
814.551	28082
814.692	28112
814.833	28017
814.974	27854
815.115	28032
815.256	27922
815.397	28013
815.539	27850
815.68	27873
815.821	27774
815.962	27926
816.103	27895
816.244	27625
816.385	27660
816.526	27583
816.666	27287
816.807	27348
816.948	27241
817.089	27382
817.23	27473
817.371	27260
817.512	27245
817.653	27294
817.793	27268
817.934	27214
818.075	27389
818.216	27340
818.356	27306
818.497	27157
818.638	26994
818.778	27154
818.919	26963
819.06	27146
819.2	27199
819.341	27374
819.481	27237
819.622	27473
819.762	27720
819.903	27614
820.043	27427
820.184	27443
820.324	27382
820.465	27519
820.605	27507
820.746	27526
820.886	27370
821.026	27386
821.167	27412
821.307	27485
821.447	27336
821.588	27256
821.728	27047
821.868	27077
822.008	26804
822.149	26861
822.289	26743
822.429	26503
822.569	26587
822.709	26469
822.849	26336
822.99	26328
823.13	26248
823.27	26256
823.41	26286
823.55	26199
823.69	26081
823.83	26130
823.97	26043
824.11	26062
824.25	25852
824.389	25887
824.529	26122
824.669	25959
824.809	26130
824.949	26027
825.089	26103
825.228	25955
825.368	25932
825.508	25734
825.648	25906
825.787	25993
825.927	25951
826.067	25841
826.206	25776
826.346	26001
826.485	25818
826.625	25845
826.765	25970
826.904	25841
827.044	25556
827.183	25643
827.323	25537
827.462	25563
827.601	25495
827.741	25540
827.88	25662
828.02	25396
828.159	25571
828.298	25559
828.437	25689
828.577	25624
828.716	25674
828.855	25403
828.994	25373
829.134	25293
829.273	25285
829.412	25278
829.551	25240
829.69	25297
829.829	25266
829.968	25293
830.107	25346
830.246	25187
830.385	25225
830.524	25129
830.663	24962
830.802	25038
830.941	24871
831.08	24825
831.219	24863
831.357	24954
831.496	25069
831.635	24840
831.774	24772
831.913	24798
832.051	24749
832.19	24608
832.329	24627
832.467	24620
832.606	24433
832.744	24437
832.883	24601
833.022	24528
833.16	24528
833.299	24665
833.437	24498
833.576	24719
833.714	24547
833.852	24631
833.991	24726
834.129	24585
834.267	24627
834.406	24623
834.544	24627
834.682	24665
834.821	24616
834.959	24745
835.097	24570
835.235	24574
835.373	24490
835.511	24445
835.65	24483
835.788	24342
835.926	24308
836.064	24289
836.202	24273
836.34	24498
836.478	24521
836.615	24429
836.753	24460
836.891	24452
837.029	24456
837.167	24391
837.305	24319
837.443	24258
837.58	24133
837.718	24342
837.856	24452
837.993	24273
838.131	24133
838.269	24015
838.406	24174
838.544	24041
838.681	24045
838.819	23794
838.956	23718
839.094	23672
839.231	23729
839.369	23874
839.506	24205
839.643	23927
839.781	23668
839.918	23661
840.055	23726
840.193	23634
840.33	23608
840.467	23733
840.604	23726
840.742	23904
840.879	23440
841.016	23619
841.153	23547
841.29	23764
841.427	23573
841.564	23615
841.701	23676
841.838	23581
841.975	23520
842.112	23623
842.249	23551
842.385	23482
842.522	23623
842.659	23433
842.796	23474
842.933	23501
843.069	23277
843.206	23273
843.343	23482
843.479	23288
843.616	23364
843.752	23162
843.889	23223
844.025	23280
844.162	23102
844.298	23094
844.435	23136
844.571	23113
844.708	23200
844.844	23265
844.98	23337
845.117	23197
845.253	23025
845.389	23181
845.525	23048
845.661	23071
845.798	22984
845.934	22991
846.07	22877
846.206	22904
846.342	22968
846.478	22831
846.614	22664
846.75	22637
846.886	22519
847.022	22710
847.158	22767
847.294	22637
847.429	22653
847.565	22569
847.701	22778
847.837	22356
847.972	22303
848.108	22455
848.244	22295
848.379	22131
848.515	22211
848.65	22147
848.786	22120
848.921	22188
849.057	22284
849.192	22318
849.328	22322
849.463	22287
849.598	22211
849.734	22010
849.869	22135
850.004	22051
850.14	21941
850.275	21934
850.41	21785
850.545	21975
850.68	21987
850.815	22090
850.95	21899
851.085	22166
851.22	22074
851.355	22051
851.49	21979
851.625	21964
851.76	21964
851.895	21842
852.03	21949
852.165	21994
852.299	21998
852.434	21991
852.569	21899
852.703	21975
852.838	22013
852.973	22116
853.107	21926
853.242	21994
853.376	21797
853.511	21724
853.645	21701
853.78	21823
853.914	21682
854.048	21903
854.183	21892
854.317	21789
854.451	21922
854.585	21762
854.72	21922
854.854	21823
854.988	21679
855.122	21789
855.256	21644
855.39	21812
855.524	21892
855.658	21759
855.792	21895
855.926	21732
856.06	21895
856.194	21850
856.327	21736
856.461	21781
856.595	21751
856.729	21770
856.862	21941
856.996	21827
857.13	21781
857.263	21903
857.397	21850
857.53	21747
857.664	21766
857.797	21823
857.931	21960
858.064	21857
858.197	21884
858.331	21713
858.464	21705
858.597	21625
858.731	21728
858.864	21739
858.997	21701
859.13	21812
859.263	21861
859.396	21762
859.529	21739
859.662	21781
859.795	21724
859.928	21819
860.061	21899
860.194	21907
860.327	21880
860.46	21960
860.592	21937
860.725	21884
860.858	21888
860.99	21827
861.123	21781
861.256	21686
861.388	21850
861.521	22390
861.653	21675
861.786	21599
861.918	21587
862.05	21675
862.183	21747
862.315	21739
862.447	21739
862.58	21713
862.712	21492
862.844	21424
862.976	21549
863.108	21534
863.24	21964
863.372	21313
863.504	21435
863.636	21462
863.768	21542
863.9	21443
864.032	21481
864.164	21359
864.296	21614
864.428	21614
864.559	21420
864.691	21572
864.823	21515
864.954	21511
865.086	21553
865.217	21416
865.349	21272
865.48	21298
865.612	21405
865.743	21622
865.875	21405
866.006	21405
866.137	21325
866.269	21272
866.4	21374
866.531	21367
866.662	21249
866.793	21310
866.924	21382
867.055	21431
867.186	21359
867.317	21195
867.448	21188
867.579	21321
867.71	21329
867.841	21173
867.972	21378
868.103	21222
868.233	21241
868.364	21310
868.495	21412
868.625	21587
868.756	21671
868.886	21530
869.017	21473
869.147	21576
869.278	21724
869.408	21534
869.539	21568
869.669	21679
869.799	21652
869.929	21705
870.06	21595
870.19	21968
870.32	21861
870.45	21911
870.58	21949
870.71	22032
870.84	22097
870.97	21998
871.1	21934
871.23	22131
871.36	22131
871.489	22029
871.619	22116
871.749	22101
871.879	22101
872.008	22211
872.138	22219
872.267	22109
872.397	21895
872.526	21922
872.656	22036
872.785	22029
872.915	22265
873.044	22219
873.173	22173
873.303	22143
873.432	22272
873.561	22223
873.69	22078
873.819	22143
873.948	22249
874.077	22082
874.206	22090
874.335	22185
874.464	22318
874.593	22386
874.722	22352
874.851	22417
874.979	22348
875.108	22519
875.237	22455
875.365	22356
875.494	22337
875.623	22390
875.751	22303
875.88	22390
876.008	22489
876.136	22573
876.265	22740
876.393	22812
876.521	22869
876.65	22847
876.778	22805
876.906	22824
877.034	22710
877.162	22717
877.29	22694
877.418	22744
877.546	22672
877.674	22900
877.802	22713
877.93	22664
878.058	22691
878.185	22550
878.313	22713
878.441	22809
878.568	22550
878.696	22672
878.824	22736
878.951	22774
879.079	22911
879.206	23090
879.333	22866
879.461	22759
879.588	22946
879.715	22854
879.842	23033
879.97	22763
880.097	22634
880.224	22443
880.351	22668
880.478	22622
880.605	22516
880.732	22535
880.859	22847
880.986	22615
881.112	22538
881.239	22478
881.366	22284
881.493	22219
881.619	22078
881.746	22128
881.872	22185
881.999	21987
882.125	22006
882.252	22196
882.378	22105
882.505	22242
882.631	22013
882.757	21865
882.883	21903
883.01	21835
883.136	21888
883.262	21599
883.388	21694
883.514	21903
883.64	21759
883.766	21747
883.892	21477
884.018	21507
884.143	21789
884.269	21789
884.395	21580
884.52	21492
884.646	21587
884.772	21545
884.897	21241
885.023	21542
885.148	21572
885.274	21519
885.399	21549
885.524	21469
885.65	21572
885.775	21336
885.9	21435
886.025	21534
886.15	21545
886.275	21447
886.4	21325
886.525	21420
886.65	21291
886.775	21344
886.9	21504
887.025	21637
887.149	21450
887.274	21207
887.399	21256
887.523	21123
887.648	21237
887.773	21146
887.897	21283
888.021	21272
888.146	21256
888.27	21294
888.395	21222
888.519	21203
888.643	21161
888.767	21207
888.891	21161
889.015	21127
889.139	20948
889.263	20979
889.387	21131
889.511	21233
889.635	21161
889.759	21112
889.883	21032
890.006	21017
890.13	21096
890.254	20960
890.377	20918
890.501	20781
890.624	20708
890.748	20708
890.871	20598
890.995	20609
891.118	20465
891.241	20533
891.364	20530
891.488	20609
891.611	20648
891.734	20446
891.857	20655
891.98	20579
892.103	20663
892.226	20507
892.349	20511
892.471	20271
892.594	20404
892.717	20385
892.839	20476
892.962	20495
893.085	20461
893.207	20434
893.33	20396
893.452	20336
893.575	20545
893.697	20358
893.819	20606
893.941	20636
894.064	20571
894.186	20400
894.308	20423
894.43	20522
894.552	20564
894.674	20488
894.796	20324
894.918	20442
895.04	20358
895.161	20602
895.283	20556
895.405	20434
895.526	20503
895.648	20495
895.769	20431
895.891	20499
896.012	20613
896.134	20511
896.255	20518
896.376	20480
896.498	20590
896.619	20446
896.74	20396
896.861	20606
896.982	20853
897.103	20994
897.224	20792
897.345	20697
897.466	20659
897.587	20575
897.708	20792
897.828	20796
897.949	20682
898.07	20499
898.19	20701
898.311	20777
898.431	20617
898.552	20648
898.672	20693
898.792	20629
898.913	20716
899.033	20625
899.153	20446
899.273	20271
899.393	20465
899.513	20473
899.633	20393
899.753	20438
899.873	20374
899.993	20457
900.113	20415
900.232	20248
900.352	20332
900.472	20282
900.591	20221
900.711	20103
900.83	20149
900.95	20336
901.069	20282
901.189	20092
901.308	19909
901.427	19772
901.546	19746
901.665	19780
901.784	19715
901.904	19518
902.023	19674
902.141	19304
902.26	19209
902.379	19422
902.498	19263
902.617	19190
902.735	19419
902.854	19137
902.973	19148
903.091	18901
903.21	18901
903.328	18779
903.446	18848
903.565	18852
903.683	18768
903.801	18688
903.919	18555
904.038	18802
904.156	18536
904.274	18601
904.392	18448
904.51	18525
904.627	18597
904.745	18528
904.863	18585
904.981	18369
905.098	18209
905.216	18194
905.334	18121
905.451	18194
905.569	18110
905.686	18102
905.803	18148
905.921	17984
906.038	18022
906.155	18015
906.272	17901
906.389	17889
906.506	17668
906.623	17760
906.74	17729
906.857	17665
906.974	17581
907.091	17836
907.208	17813
907.324	17668
907.441	17649
907.557	17455
907.674	17372
907.79	17345
907.907	17364
908.023	17455
908.139	17353
908.256	17368
908.372	17303
908.488	17231
908.604	17197
908.72	17121
908.836	17155
908.952	17265
909.068	17143
909.184	17307
909.3	17178
909.415	17086
909.531	17124
909.647	16873
909.762	16908
909.878	16839
909.993	16812
910.108	16904
910.224	16725
910.339	16782
910.454	16675
910.57	16660
910.685	16641
910.8	16934
910.915	16862
911.03	16615
911.145	16455
911.259	16432
911.374	16481
911.489	16276
911.604	16337
911.718	16246
911.833	16226
911.947	16078
912.062	16074
912.176	16211
912.291	16226
912.405	16295
912.519	16398
912.633	16421
912.748	16253
912.862	16124
912.976	15884
913.09	15808
913.204	15926
913.318	15979
913.431	16044
913.545	16051
913.659	16071
913.772	15956
913.886	15785
914	15747
914.113	15854
914.226	15926
914.34	15774
914.453	15633
914.566	15835
914.68	15713
914.793	15618
914.906	15504
915.019	15393
915.132	15370
915.245	15336
915.358	15401
915.47	15435
915.583	15397
915.696	15454
915.809	15534
915.921	15408
916.034	15264
916.146	15268
916.259	15279
916.371	15260
916.483	15401
916.595	15233
916.708	15180
916.82	15252
916.932	15241
917.044	15100
917.156	15146
917.268	15024
917.38	15013
917.491	15009
917.603	15039
917.715	15032
917.826	15119
917.938	14952
918.049	14910
918.161	14876
918.272	15055
918.384	15043
918.495	15005
918.606	14899
918.717	14708
918.828	14800
918.939	14819
919.05	14610
919.161	14830
919.272	14606
919.383	14678
919.494	14712
919.604	14967
919.715	14739
919.826	14758
919.936	14773
920.047	14811
920.157	14720
920.267	14864
920.378	14731
920.488	14731
920.598	14925
920.708	15039
920.818	14971
920.928	14918
921.038	15020
921.148	14998
921.258	14617
921.368	14686
921.477	14560
921.587	14556
921.697	14343
921.806	14541
921.916	14275
922.025	14195
922.134	14183
922.244	14012
922.353	14149
922.462	13978
922.571	13955
922.68	13799
922.789	13746
922.898	13811
923.007	13651
923.116	13753
923.224	13712
923.333	13799
923.442	13575
923.55	13605
923.659	13624
923.767	13666
923.876	13499
923.984	13567
924.092	13426
924.201	13495
924.309	13480
924.417	13457
924.525	13403
924.633	13445
924.741	14317
924.849	13190
924.956	13301
925.064	13187
925.172	13133
925.279	13133
925.387	13091
925.494	13225
925.602	13168
925.709	13171
925.816	13057
925.924	13160
926.031	13122
926.138	13156
926.245	13156
926.352	12985
926.459	13088
926.566	13110
926.673	13008
926.779	12810
926.886	12897
926.993	12688
927.099	12692
927.206	12593
927.312	12719
927.419	12692
927.525	12715
927.631	12715
927.737	12635
927.843	12513
927.95	12414
928.056	12490
928.162	12429
928.267	12559
928.373	13213
928.479	12582
928.585	12391
928.69	12574
928.796	12536
928.901	12384
929.007	12247
929.112	12361
929.218	12494
929.323	12281
929.428	12319
929.533	12479
929.638	12220
929.743	12266
929.848	12239
929.953	12140
930.058	12197
930.163	11961
930.267	12022
930.372	12022
930.477	11942
930.581	12083
930.685	11942
930.79	11802
930.894	11866
930.998	11973
931.103	11912
931.207	11573
931.311	11493
931.415	11383
931.519	11143
931.623	11121
