Data from test_V78500241_1952.txt Node
Date: Fri Mar 25 15:55:19 CST 2022
User: usil
Spectrometer: V785-0024
Trigger mode: 0
Integration Time (sec): 4.000000E-1
Scans to average: 1
Nonlinearity correction enabled: false
Boxcar width: 0
Storing dark spectrum: false
XAxis mode: Wavelengths
Number of Pixels in Spectrum: 1024
>>>>>Begin Spectral Data<<<<<
801.071	28858
801.214	28835
801.356	28656
801.499	28573
801.641	28489
801.783	28310
801.926	28462
802.068	28398
802.211	28375
802.353	28325
802.496	28128
802.638	28025
802.78	27937
802.923	28097
803.065	27907
803.208	28036
803.35	28181
803.492	28131
803.635	28310
803.777	28265
803.919	28352
804.061	28649
804.204	28405
804.346	28337
804.488	28268
804.63	28333
804.773	28249
804.915	28421
805.057	28451
805.199	28280
805.341	28462
805.483	28417
805.626	28401
805.768	28413
805.91	28455
806.052	28538
806.194	28318
806.336	28577
806.478	28493
806.62	28535
806.762	28550
806.904	28782
807.046	29003
807.188	29041
807.33	28968
807.472	28987
807.614	28904
807.756	28957
807.898	28820
808.04	28740
808.182	28786
808.324	28866
808.465	28873
808.607	29003
808.749	29132
808.891	29299
809.033	29379
809.174	29315
809.316	29242
809.458	29151
809.6	29075
809.741	29307
809.883	29349
810.025	29493
810.166	29551
810.308	29566
810.45	29360
810.591	29337
810.733	29330
810.875	29166
811.016	29098
811.158	29166
811.299	29387
811.441	29383
811.582	29311
811.724	29102
811.865	29223
812.007	29212
812.148	29258
812.29	29318
812.431	29440
812.573	29551
812.714	29539
812.855	29699
812.997	29783
813.138	29885
813.279	29840
813.421	29661
813.562	29497
813.703	29547
813.845	29463
813.986	29124
814.127	29010
814.268	28965
814.41	28946
814.551	28885
814.692	28930
814.833	28816
814.974	28812
815.115	29048
815.256	28927
815.397	28816
815.539	28771
815.68	28736
815.821	28687
815.962	28729
816.103	28725
816.244	28519
816.385	28622
816.526	28459
816.666	28287
816.807	28280
816.948	28169
817.089	28299
817.23	28249
817.371	28166
817.512	28337
817.653	28226
817.793	28082
817.934	28200
818.075	28173
818.216	28147
818.356	28242
818.497	28029
818.638	27941
818.778	27937
818.919	27934
819.06	28135
819.2	28223
819.341	28226
819.481	28135
819.622	28447
819.762	28538
819.903	28440
820.043	28432
820.184	28409
820.324	28382
820.465	28310
820.605	28322
820.746	28451
820.886	28185
821.026	28329
821.167	28303
821.307	28371
821.447	28287
821.588	28120
821.728	27907
821.868	27709
822.008	27751
822.149	27762
822.289	27736
822.429	27568
822.569	27348
822.709	27458
822.849	27298
822.99	27108
823.13	27226
823.27	27154
823.41	27036
823.55	26971
823.69	26883
823.83	26982
823.97	27081
824.11	26994
824.25	26750
824.389	26830
824.529	27009
824.669	26948
824.809	26994
824.949	26960
825.089	26937
825.228	26891
825.368	26739
825.508	26697
825.648	26868
825.787	26792
825.927	26902
826.067	26773
826.206	26735
826.346	26788
826.485	26705
826.625	26872
826.765	26823
826.904	26826
827.044	26533
827.183	26514
827.323	26488
827.462	26560
827.601	26484
827.741	26511
827.88	26400
828.02	26366
828.159	26294
828.298	26480
828.437	26457
828.577	26415
828.716	26568
828.855	26244
828.994	26153
829.134	26199
829.273	26244
829.412	26119
829.551	26119
829.69	26088
829.829	26161
829.968	26328
830.107	26168
830.246	26218
830.385	26069
830.524	26119
830.663	25894
830.802	25932
830.941	25738
831.08	25658
831.219	25894
831.357	25822
831.496	26024
831.635	25746
831.774	25643
831.913	25582
832.051	25559
832.19	25491
832.329	25578
832.467	25358
832.606	25407
832.744	25453
832.883	25464
833.022	25362
833.16	25400
833.299	25552
833.437	25464
833.576	25624
833.714	25441
833.852	25556
833.991	25556
834.129	25605
834.267	25514
834.406	25552
834.544	25632
834.682	25457
834.821	25506
834.959	25674
835.097	25453
835.235	25544
835.373	25586
835.511	25491
835.65	25472
835.788	25400
835.926	25274
836.064	25129
836.202	25179
836.34	25312
836.478	25396
836.615	25400
836.753	25171
836.891	25228
837.029	25324
837.167	25285
837.305	25198
837.443	25129
837.58	25065
837.718	25270
837.856	25190
837.993	25065
838.131	25160
838.269	24958
838.406	25080
838.544	24985
838.681	24791
838.819	24620
838.956	24719
839.094	24563
839.231	24620
839.369	24760
839.506	24939
839.643	24798
839.781	24635
839.918	24475
840.055	24604
840.193	24608
840.33	24422
840.467	24479
840.604	24509
840.742	24787
840.879	24403
841.016	24433
841.153	24266
841.29	24604
841.427	24418
841.564	24555
841.701	24464
841.838	24525
841.975	24395
842.112	24403
842.249	24235
842.385	24296
842.522	24536
842.659	24289
842.796	24270
842.933	24266
843.069	24205
843.206	24311
843.343	24262
843.479	24247
843.616	24254
843.752	24095
843.889	23965
844.025	24121
844.162	24015
844.298	24083
844.435	24022
844.571	24018
844.708	24068
844.844	24049
844.98	24182
845.117	24110
845.253	24007
845.389	23912
845.525	23927
845.661	23863
845.798	23874
845.934	23863
846.07	23824
846.206	23737
846.342	23737
846.478	23676
846.614	23630
846.75	23493
846.886	23364
847.022	23592
847.158	23433
847.294	23570
847.429	23493
847.565	23528
847.701	23653
847.837	23208
847.972	23197
848.108	23269
848.244	23250
848.379	23052
848.515	23079
848.65	23044
848.786	22961
848.921	23018
849.057	23159
849.192	23071
849.328	23052
849.463	23033
849.598	22946
849.734	23022
849.869	22877
850.004	22771
850.14	22858
850.275	22850
850.41	22698
850.545	22778
850.68	22778
850.815	22942
850.95	22858
851.085	23056
851.22	22980
851.355	22763
851.49	22892
851.625	22721
851.76	22885
851.895	22763
852.03	22869
852.165	22740
852.299	22877
852.434	22869
852.569	22771
852.703	22927
852.838	22854
852.973	22774
853.107	23014
853.242	22835
853.376	22729
853.511	22508
853.645	22634
853.78	22797
853.914	22637
854.048	22706
854.183	22622
854.317	22721
854.451	22900
854.585	22622
854.72	22668
854.854	22592
854.988	22577
855.122	22698
855.256	22542
855.39	22710
855.524	22694
855.658	22637
855.792	22687
855.926	22679
856.06	22622
856.194	22763
856.327	22668
856.461	22634
856.595	22596
856.729	22649
856.862	22759
856.996	22550
857.13	22687
857.263	22679
857.397	22672
857.53	22592
857.664	22778
857.797	22717
857.931	22786
858.064	22660
858.197	22786
858.331	22508
858.464	22698
858.597	22527
858.731	22500
858.864	22710
858.997	22481
859.13	22607
859.263	22679
859.396	22713
859.529	22569
859.662	22694
859.795	22584
859.928	22698
860.061	22786
860.194	22755
860.327	22786
860.46	22755
860.592	22786
860.725	22782
860.858	22801
860.99	22675
861.123	22592
861.256	22603
861.388	22618
861.521	23471
861.653	22478
861.786	22329
861.918	22390
862.05	22577
862.183	22459
862.315	22599
862.447	22687
862.58	22672
862.712	22230
862.844	22284
862.976	22375
863.108	22299
863.24	22816
863.372	22390
863.504	22268
863.636	22253
863.768	22265
863.9	22306
864.032	22261
864.164	22337
864.296	22261
864.428	22417
864.559	22413
864.691	22413
864.823	22322
864.954	22310
865.086	22295
865.217	22375
865.349	22211
865.48	22272
865.612	22192
865.743	22421
865.875	22158
866.006	22150
866.137	22379
866.269	22196
866.4	22268
866.531	22242
866.662	22063
866.793	22242
866.924	22147
867.055	22223
867.186	22253
867.317	22097
867.448	22074
867.579	22154
867.71	22116
867.841	22048
867.972	22112
868.103	22185
868.233	22128
868.364	22238
868.495	22344
868.625	22440
868.756	22447
868.886	22280
869.017	22314
869.147	22428
869.278	22478
869.408	22398
869.539	22344
869.669	22519
869.799	22390
869.929	22630
870.06	22413
870.19	22717
870.32	22713
870.45	22615
870.58	22896
870.71	22953
870.84	22805
870.97	22668
871.1	22752
871.23	22987
871.36	22987
871.489	22812
871.619	22930
871.749	23060
871.879	23086
872.008	23083
872.138	22995
872.267	22877
872.397	22904
872.526	22820
872.656	22885
872.785	22801
872.915	22938
873.044	23140
873.173	22946
873.303	23067
873.432	22995
873.561	23193
873.69	22995
873.819	23117
873.948	23052
874.077	22968
874.206	22919
874.335	22968
874.464	23090
874.593	23174
874.722	23143
874.851	23223
874.979	23197
875.108	23292
875.237	23242
875.365	23181
875.494	23174
875.623	23231
875.751	23124
875.88	23223
876.008	23368
876.136	23433
876.265	23611
876.393	23672
876.521	23695
876.65	23752
876.778	23596
876.906	23604
877.034	23623
877.162	23554
877.29	23558
877.418	23455
877.546	23638
877.674	23512
877.802	23547
877.93	23573
878.058	23604
878.185	23425
878.313	23547
878.441	23436
878.568	23383
878.696	23478
878.824	23562
878.951	23722
879.079	23737
879.206	23870
879.333	23695
879.461	23604
879.588	23649
879.715	23756
879.842	23817
879.97	23630
880.097	23429
880.224	23406
880.351	23417
880.478	23280
880.605	23280
880.732	23326
880.859	23695
880.986	23334
881.112	23345
881.239	23254
881.366	23204
881.493	23003
881.619	22911
881.746	22869
881.872	22949
881.999	23025
882.125	22831
882.252	22965
882.378	22862
882.505	23010
882.631	22713
882.757	22710
882.883	22744
883.01	22656
883.136	22557
883.262	22489
883.388	22470
883.514	22694
883.64	22664
883.766	22550
883.892	22310
884.018	22348
884.143	22542
884.269	22516
884.395	22314
884.52	22211
884.646	22367
884.772	22211
884.897	22150
885.023	22112
885.148	22303
885.274	22417
885.399	22348
885.524	22219
885.65	22219
885.775	22143
885.9	22101
886.025	22265
886.15	22352
886.275	22325
886.4	22105
886.525	22188
886.65	22169
886.775	22196
886.9	22367
887.025	22386
887.149	22181
887.274	22010
887.399	21915
887.523	22154
887.648	21918
887.773	21960
887.897	22097
888.021	22101
888.146	21884
888.27	22147
888.395	22078
888.519	22044
888.643	21911
888.767	21998
888.891	21956
889.015	21671
889.139	21785
889.263	21846
889.387	21911
889.511	21873
889.635	21869
889.759	21808
889.883	21622
890.006	21854
890.13	21884
890.254	21679
890.377	21679
890.501	21481
890.624	21386
890.748	21614
890.871	21283
890.995	21393
891.118	21192
891.241	21336
891.364	21275
891.488	21450
891.611	21370
891.734	21488
891.857	21450
891.98	21386
892.103	21393
892.226	21329
892.349	21207
892.471	21135
892.594	21211
892.717	21192
892.839	21275
892.962	21306
893.085	21283
893.207	21211
893.33	21062
893.452	21108
893.575	21203
893.697	21127
893.819	21344
893.941	21329
894.064	21332
894.186	21066
894.308	21047
894.43	21252
894.552	21260
894.674	21374
894.796	21043
894.918	21077
895.04	21207
895.161	21256
895.283	21264
895.405	21165
895.526	21142
895.648	21135
895.769	21123
895.891	21245
896.012	21313
896.134	21161
896.255	21157
896.376	21188
896.498	21146
896.619	21226
896.74	21131
896.861	21279
896.982	21530
897.103	21667
897.224	21500
897.345	21298
897.466	21340
897.587	21545
897.708	21534
897.828	21568
897.949	21355
898.07	21291
898.19	21405
898.311	21481
898.431	21222
898.552	21408
898.672	21393
898.792	21367
898.913	21420
899.033	21260
899.153	21222
899.273	21066
899.393	21062
899.513	21100
899.633	21173
899.753	21116
899.873	21047
899.993	21108
900.113	20963
900.232	21104
900.352	20994
900.472	21001
900.591	20815
900.711	20918
900.83	20743
900.95	20921
901.069	20918
901.189	20853
901.308	20617
901.427	20343
901.546	20541
901.665	20465
901.784	20469
901.904	20404
902.023	20183
902.141	20088
902.26	19959
902.379	20012
902.498	19986
902.617	19986
902.735	19970
902.854	19860
902.973	19887
903.091	19567
903.21	19685
903.328	19510
903.446	19597
903.565	19430
903.683	19339
903.801	19365
903.919	19343
904.038	19354
904.156	19141
904.274	19171
904.392	19137
904.51	19221
904.627	19198
904.745	19179
904.863	19324
904.981	18882
905.098	18886
905.216	18844
905.334	18890
905.451	18871
905.569	18749
905.686	18810
905.803	18840
905.921	18597
906.038	18661
906.155	18620
906.272	18574
906.389	18445
906.506	18296
906.623	18441
906.74	18410
906.857	18304
906.974	18315
907.091	18498
907.208	18467
907.324	18452
907.441	18296
907.557	18060
907.674	18079
907.79	17973
907.907	18045
908.023	18098
908.139	18076
908.256	17927
908.372	18030
908.488	17908
908.604	17741
908.72	17714
908.836	17821
908.952	17828
909.068	17802
909.184	17840
909.3	17714
909.415	17832
909.531	17840
909.647	17608
909.762	17535
909.878	17482
909.993	17383
910.108	17395
910.224	17516
910.339	17490
910.454	17254
910.57	17269
910.685	17174
910.8	17448
910.915	17326
911.03	17250
911.145	17071
911.259	17075
911.374	17045
911.489	16919
911.604	16927
911.718	16797
911.833	16790
911.947	16634
912.062	16660
912.176	16771
912.291	16805
912.405	16759
912.519	17003
912.633	16976
912.748	16733
912.862	16797
912.976	16527
913.09	16493
913.204	16455
913.318	16596
913.431	16725
913.545	16725
913.659	16771
913.772	16611
913.886	16455
914	16360
914.113	16478
914.226	16508
914.34	16519
914.453	16124
914.566	16382
914.68	16230
914.793	16154
914.906	16055
915.019	16032
915.132	15888
915.245	15956
915.358	15968
915.47	15953
915.583	15922
915.696	15880
915.809	16048
915.921	15998
916.034	15854
916.146	15701
916.259	15903
916.371	15827
916.483	15930
916.595	15850
916.708	15861
916.82	15816
916.932	15732
917.044	15732
917.156	15671
917.268	15576
917.38	15641
917.491	15530
917.603	15492
917.715	15614
917.826	15682
917.938	15542
918.049	15412
918.161	15561
918.272	15694
918.384	15663
918.495	15511
918.606	15473
918.717	15199
918.828	15344
918.939	15443
919.05	15302
919.161	15420
919.272	15112
919.383	15123
919.494	15439
919.604	15553
919.715	15306
919.826	15180
919.936	15424
920.047	15340
920.157	15287
920.267	15454
920.378	15340
920.488	15161
920.598	15416
920.708	15595
920.818	15469
920.928	15428
921.038	15618
921.148	15538
921.258	15154
921.368	15169
921.477	15062
921.587	15055
921.697	14948
921.806	14937
921.916	14902
922.025	14693
922.134	14655
922.244	14788
922.353	14617
922.462	14533
922.571	14469
922.68	14309
922.789	14206
922.898	14366
923.007	14199
923.116	14415
923.224	14267
923.333	14221
923.442	14191
923.55	14176
923.659	14134
923.767	14176
923.876	14119
923.984	14149
924.092	14039
924.201	13993
924.309	13974
924.417	13940
924.525	13894
924.633	13974
924.741	14842
924.849	13693
924.956	13849
925.064	13605
925.172	13620
925.279	13639
925.387	13738
925.494	13662
925.602	13738
925.709	13674
925.816	13552
925.924	13620
926.031	13651
926.138	13487
926.245	13628
926.352	13548
926.459	13662
926.566	13704
926.673	13453
926.779	13377
926.886	13400
926.993	13187
927.099	13259
927.206	13202
927.312	13050
927.419	13228
927.525	13183
927.631	13251
927.737	13164
927.843	13080
927.95	12958
928.056	13015
928.162	13034
928.267	13034
928.373	13655
928.479	13137
928.585	12901
928.69	12989
928.796	13012
928.901	12856
929.007	12798
929.112	12871
929.218	12779
929.323	12684
929.428	12772
929.533	12871
929.638	12642
929.743	12650
929.848	12757
929.953	12608
930.058	12509
930.163	12391
930.267	12517
930.372	12498
930.477	12357
930.581	12593
930.685	12452
930.79	12254
930.894	12258
930.998	12330
931.103	12369
931.207	12007
931.311	11969
931.415	11935
931.519	11729
931.623	11589
