Data from test_V78500241_2691.txt Node
Date: Fri Mar 25 16:00:26 CST 2022
User: usil
Spectrometer: V785-0024
Trigger mode: 0
Integration Time (sec): 4.000000E-1
Scans to average: 1
Nonlinearity correction enabled: false
Boxcar width: 0
Storing dark spectrum: false
XAxis mode: Wavelengths
Number of Pixels in Spectrum: 1024
>>>>>Begin Spectral Data<<<<<
801.071	28843
801.214	28774
801.356	28459
801.499	28584
801.641	28379
801.783	28337
801.926	28405
802.068	28215
802.211	28272
802.353	28078
802.496	28128
802.638	28044
802.78	28002
802.923	27914
803.065	27865
803.208	27937
803.35	28093
803.492	28116
803.635	28181
803.777	28154
803.919	28226
804.061	28531
804.204	28329
804.346	28234
804.488	28196
804.63	28306
804.773	28219
804.915	28276
805.057	28306
805.199	28299
805.341	28226
805.483	28375
805.626	28379
805.768	28341
805.91	28470
806.052	28466
806.194	28436
806.336	28542
806.478	28523
806.62	28500
806.762	28672
806.904	28725
807.046	29086
807.188	28850
807.33	28877
807.472	28896
807.614	28812
807.756	28919
807.898	28763
808.04	28683
808.182	28740
808.324	28828
808.465	28847
808.607	29083
808.749	29159
808.891	29159
809.033	29250
809.174	29181
809.316	29159
809.458	29124
809.6	29060
809.741	29185
809.883	29109
810.025	29448
810.166	29490
810.308	29444
810.45	29326
810.591	29429
810.733	29124
810.875	29178
811.016	29136
811.158	29018
811.299	29124
811.441	29254
811.582	29353
811.724	29143
811.865	29124
812.007	29090
812.148	29155
812.29	29155
812.431	29471
812.573	29531
812.714	29547
812.855	29722
812.997	29703
813.138	29855
813.279	29809
813.421	29619
813.562	29687
813.703	29490
813.845	29318
813.986	29098
814.127	28869
814.268	28873
814.41	28862
814.551	28881
814.692	28904
814.833	28786
814.974	28748
815.115	28759
815.256	28698
815.397	28843
815.539	28713
815.68	28763
815.821	28569
815.962	28679
816.103	28542
816.244	28554
816.385	28379
816.526	28580
816.666	28185
816.807	28139
816.948	28238
817.089	28188
817.23	28109
817.371	28200
817.512	28295
817.653	28093
817.793	28051
817.934	28177
818.075	28207
818.216	28322
818.356	28097
818.497	28013
818.638	27926
818.778	28021
818.919	27914
819.06	27922
819.2	28063
819.341	28181
819.481	28257
819.622	28436
819.762	28565
819.903	28459
820.043	28409
820.184	28379
820.324	28253
820.465	28295
820.605	28352
820.746	28200
820.886	28223
821.026	28329
821.167	28253
821.307	28398
821.447	28242
821.588	28029
821.728	27918
821.868	27884
822.008	27663
822.149	27675
822.289	27690
822.429	27374
822.569	27226
822.709	27237
822.849	27173
822.99	27233
823.13	27074
823.27	27093
823.41	26971
823.55	26906
823.69	26994
823.83	27085
823.97	26864
824.11	26804
824.25	26727
824.389	26788
824.529	26944
824.669	26720
824.809	26804
824.949	26796
825.089	26899
825.228	26811
825.368	26670
825.508	26651
825.648	26720
825.787	26765
825.927	26777
826.067	26697
826.206	26765
826.346	26731
826.485	26800
826.625	26807
826.765	26876
826.904	26720
827.044	26480
827.183	26526
827.323	26339
827.462	26427
827.601	26473
827.741	26400
827.88	26427
828.02	26328
828.159	26339
828.298	26396
828.437	26541
828.577	26290
828.716	26431
828.855	26343
828.994	26012
829.134	26058
829.273	26122
829.412	26054
829.551	26012
829.69	26043
829.829	26115
829.968	26069
830.107	26187
830.246	26134
830.385	26012
830.524	26062
830.663	25993
830.802	25769
830.941	25845
831.08	25632
831.219	25712
831.357	25670
831.496	25898
831.635	25753
831.774	25635
831.913	25567
832.051	25438
832.19	25525
832.329	25548
832.467	25510
832.606	25320
832.744	25221
832.883	25384
833.022	25381
833.16	25491
833.299	25438
833.437	25388
833.576	25460
833.714	25457
833.852	25403
833.991	25411
834.129	25491
834.267	25533
834.406	25411
834.544	25377
834.682	25491
834.821	25445
834.959	25601
835.097	25339
835.235	25472
835.373	25495
835.511	25381
835.65	25259
835.788	25187
835.926	25213
836.064	25080
836.202	25107
836.34	25270
836.478	25263
836.615	25202
836.753	25266
836.891	25327
837.029	25320
837.167	25145
837.305	25255
837.443	25057
837.58	25008
837.718	25065
837.856	25084
837.993	25042
838.131	25027
838.269	25000
838.406	25008
838.544	24852
838.681	24814
838.819	24886
838.956	24585
839.094	24570
839.231	24623
839.369	24688
839.506	24886
839.643	24852
839.781	24498
839.918	24536
840.055	24616
840.193	24555
840.33	24483
840.467	24574
840.604	24498
840.742	24654
840.879	24262
841.016	24437
841.153	24292
841.29	24418
841.427	24384
841.564	24464
841.701	24464
841.838	24422
841.975	24232
842.112	24266
842.249	24140
842.385	24216
842.522	24547
842.659	24281
842.796	24273
842.933	24220
843.069	24129
843.206	24201
843.343	24277
843.479	24243
843.616	24235
843.752	23980
843.889	23996
844.025	24140
844.162	23973
844.298	24034
844.435	23954
844.571	23992
844.708	23984
844.844	24129
844.98	24076
845.117	24034
845.253	24018
845.389	23783
845.525	23958
845.661	23779
845.798	23779
845.934	23775
846.07	23824
846.206	23729
846.342	23813
846.478	23748
846.614	23509
846.75	23307
846.886	23436
847.022	23516
847.158	23577
847.294	23554
847.429	23429
847.565	23425
847.701	23653
847.837	23079
847.972	23162
848.108	23235
848.244	23265
848.379	23105
848.515	22957
848.65	23014
848.786	23064
848.921	23041
849.057	23174
849.192	23136
849.328	22991
849.463	23029
849.598	22919
849.734	22919
849.869	22900
850.004	22915
850.14	22805
850.275	22889
850.41	22744
850.545	22698
850.68	22786
850.815	22736
850.95	22824
851.085	22915
851.22	22915
851.355	22873
851.49	22744
851.625	22755
851.76	22634
851.895	22736
852.03	22687
852.165	22759
852.299	22839
852.434	22866
852.569	22900
852.703	22759
852.838	22759
852.973	22915
853.107	22850
853.242	22649
853.376	22679
853.511	22573
853.645	22577
853.78	22653
853.914	22618
854.048	22409
854.183	22607
854.317	22717
854.451	22801
854.585	22653
854.72	22660
854.854	22618
854.988	22573
855.122	22527
855.256	22489
855.39	22664
855.524	22660
855.658	22584
855.792	22531
855.926	22519
856.06	22653
856.194	22721
856.327	22653
856.461	22436
856.595	22466
856.729	22485
856.862	22634
856.996	22687
857.13	22596
857.263	22713
857.397	22675
857.53	22447
857.664	22694
857.797	22584
857.931	22733
858.064	22668
858.197	22748
858.331	22561
858.464	22622
858.597	22599
858.731	22535
858.864	22584
858.997	22565
859.13	22653
859.263	22618
859.396	22752
859.529	22573
859.662	22641
859.795	22596
859.928	22580
860.061	22748
860.194	22843
860.327	22656
860.46	22782
860.592	22672
860.725	22755
860.858	22660
860.99	22577
861.123	22466
861.256	22466
861.388	22634
861.521	23330
861.653	22478
861.786	22371
861.918	22531
862.05	22550
862.183	22569
862.315	22485
862.447	22603
862.58	22489
862.712	22333
862.844	22303
862.976	22356
863.108	22504
863.24	22691
863.372	22371
863.504	22314
863.636	22409
863.768	22356
863.9	22348
864.032	22188
864.164	22242
864.296	22386
864.428	22402
864.559	22322
864.691	22474
864.823	22268
864.954	22337
865.086	22234
865.217	22265
865.349	22162
865.48	22154
865.612	22211
865.743	22306
865.875	22246
866.006	22036
866.137	22185
866.269	22177
866.4	22128
866.531	22044
866.662	22040
866.793	22116
866.924	21991
867.055	22204
867.186	22128
867.317	22074
867.448	22010
867.579	21918
867.71	22082
867.841	21937
867.972	22147
868.103	22112
868.233	22147
868.364	22291
868.495	22116
868.625	22291
868.756	22394
868.886	22310
869.017	22455
869.147	22451
869.278	22455
869.408	22421
869.539	22257
869.669	22485
869.799	22421
869.929	22474
870.06	22538
870.19	22519
870.32	22702
870.45	22702
870.58	22679
870.71	22965
870.84	22850
870.97	22759
871.1	22828
871.23	22999
871.36	22915
871.489	22919
871.619	22850
871.749	23018
871.879	22984
872.008	23094
872.138	23014
872.267	22957
872.397	22771
872.526	22797
872.656	22778
872.785	22778
872.915	23098
873.044	22938
873.173	22927
873.303	23090
873.432	23052
873.561	22965
873.69	23010
873.819	23037
873.948	23018
874.077	23006
874.206	22957
874.335	22991
874.464	23098
874.593	23109
874.722	23189
874.851	23315
874.979	23269
875.108	23223
875.237	23155
875.365	23025
875.494	23037
875.623	23147
875.751	23162
875.88	23200
876.008	23189
876.136	23246
876.265	23657
876.393	23767
876.521	23566
876.65	23627
876.778	23520
876.906	23668
877.034	23444
877.162	23509
877.29	23455
877.418	23611
877.546	23520
877.674	23433
877.802	23482
877.93	23600
878.058	23452
878.185	23326
878.313	23524
878.441	23398
878.568	23379
878.696	23562
878.824	23630
878.951	23562
879.079	23634
879.206	23794
879.333	23790
879.461	23657
879.588	23611
879.715	23615
879.842	23802
879.97	23592
880.097	23212
880.224	23322
880.351	23395
880.478	23280
880.605	23296
880.732	23341
880.859	23490
880.986	23258
881.112	23414
881.239	23223
881.366	23136
881.493	22957
881.619	22900
881.746	22999
881.872	22858
881.999	22892
882.125	22763
882.252	22984
882.378	22824
882.505	22976
882.631	22809
882.757	22607
882.883	22607
883.01	22573
883.136	22599
883.262	22485
883.388	22462
883.514	22588
883.64	22698
883.766	22424
883.892	22257
884.018	22337
884.143	22592
884.269	22489
884.395	22246
884.52	22207
884.646	22204
884.772	22226
884.897	22078
885.023	22234
885.148	22265
885.274	22390
885.399	22128
885.524	22211
885.65	22284
885.775	22253
885.9	22090
886.025	22303
886.15	22325
886.275	22101
886.4	22135
886.525	22139
886.65	22112
886.775	22135
886.9	22367
887.025	22314
887.149	22154
887.274	21994
887.399	22032
887.523	22010
887.648	21846
887.773	21857
887.897	22135
888.021	22025
888.146	21983
888.27	22105
888.395	21987
888.519	21922
888.643	21983
888.767	22090
888.891	21861
889.015	21835
889.139	21922
889.263	21736
889.387	21865
889.511	21941
889.635	21911
889.759	21789
889.883	21759
890.006	21747
890.13	21975
890.254	21743
890.377	21686
890.501	21523
890.624	21447
890.748	21595
890.871	21340
890.995	21332
891.118	21374
891.241	21329
891.364	21294
891.488	21454
891.611	21374
891.734	21405
891.857	21313
891.98	21298
892.103	21401
892.226	21317
892.349	21207
892.471	21093
892.594	21340
892.717	21306
892.839	21199
892.962	21260
893.085	21256
893.207	21218
893.33	21173
893.452	21245
893.575	21291
893.697	21256
893.819	21332
893.941	21374
894.064	21443
894.186	21233
894.308	21123
894.43	21150
894.552	21329
894.674	21249
894.796	21188
894.918	21169
895.04	21195
895.161	21203
895.283	21272
895.405	21195
895.526	21272
895.648	21100
895.769	21138
895.891	21298
896.012	21310
896.134	21363
896.255	21161
896.376	21119
896.498	21165
896.619	21275
896.74	21211
896.861	21279
896.982	21511
897.103	21701
897.224	21416
897.345	21272
897.466	21370
897.587	21325
897.708	21500
897.828	21363
897.949	21252
898.07	21176
898.19	21336
898.311	21549
898.431	21317
898.552	21386
898.672	21606
898.792	21511
898.913	21397
899.033	21332
899.153	21230
899.273	21047
899.393	21135
899.513	21252
899.633	21154
899.753	21119
899.873	21032
899.993	21161
900.113	21001
900.232	21119
900.352	21077
900.472	20861
900.591	20895
900.711	20963
900.83	20819
900.95	20986
901.069	20895
901.189	20777
901.308	20549
901.427	20396
901.546	20541
901.665	20442
901.784	20377
901.904	20370
902.023	20298
902.141	19974
902.26	20043
902.379	20126
902.498	19887
902.617	19986
902.735	20005
902.854	19875
902.973	19845
903.091	19628
903.21	19544
903.328	19681
903.446	19521
903.565	19464
903.683	19434
903.801	19400
903.919	19415
904.038	19327
904.156	19160
904.274	19202
904.392	19133
904.51	19175
904.627	19236
904.745	19221
904.863	19293
904.981	19057
905.098	18905
905.216	18768
905.334	18958
905.451	18882
905.569	18688
905.686	18833
905.803	18859
905.921	18669
906.038	18730
906.155	18574
906.272	18563
906.389	18490
906.506	18399
906.623	18471
906.74	18399
906.857	18220
906.974	18220
907.091	18361
907.208	18410
907.324	18365
907.441	18262
907.557	18102
907.674	18098
907.79	17916
907.907	17996
908.023	18163
908.139	18049
908.256	17889
908.372	17992
908.488	17916
908.604	17897
908.72	17859
908.836	17726
908.952	17733
909.068	17695
909.184	17855
909.3	17813
909.415	17798
909.531	17729
909.647	17661
909.762	17505
909.878	17444
909.993	17524
910.108	17356
910.224	17486
910.339	17261
910.454	17334
910.57	17345
910.685	17216
910.8	17463
910.915	17474
911.03	17277
911.145	17098
911.259	17025
911.374	17083
911.489	16980
911.604	16911
911.718	16790
911.833	16828
911.947	16778
912.062	16634
912.176	16713
912.291	16805
912.405	16759
912.519	16984
912.633	16923
912.748	16710
912.862	16797
912.976	16618
913.09	16485
913.204	16516
913.318	16622
913.431	16748
913.545	16664
913.659	16713
913.772	16550
913.886	16421
914	16295
914.113	16344
914.226	16516
914.34	16371
914.453	16322
914.566	16379
914.68	16352
914.793	16219
914.906	16101
915.019	15991
915.132	15975
915.245	16013
915.358	16032
915.47	16032
915.583	15949
915.696	16017
915.809	16173
915.921	16017
916.034	15793
916.146	15842
916.259	15774
916.371	15937
916.483	15899
916.595	15861
916.708	15679
916.82	15789
916.932	15701
917.044	15652
917.156	15728
917.268	15690
917.38	15591
917.491	15542
917.603	15644
917.715	15690
917.826	15656
917.938	15545
918.049	15507
918.161	15625
918.272	15595
918.384	15591
918.495	15572
918.606	15325
918.717	15237
918.828	15336
918.939	15386
919.05	15241
919.161	15336
919.272	15097
919.383	15233
919.494	15378
919.604	15542
919.715	15374
919.826	15218
919.936	15226
920.047	15336
920.157	15294
920.267	15428
920.378	15264
920.488	15317
920.598	15401
920.708	15572
920.818	15412
920.928	15462
921.038	15523
921.148	15469
921.258	15154
921.368	15123
921.477	14990
921.587	15017
921.697	14906
921.806	15047
921.916	14853
922.025	14682
922.134	14670
922.244	14511
922.353	14621
922.462	14590
922.571	14465
922.68	14237
922.789	14275
922.898	14362
923.007	14195
923.116	14259
923.224	14259
923.333	14278
923.442	14153
923.55	14103
923.659	14100
923.767	14191
923.876	14050
923.984	14142
924.092	13959
924.201	13932
924.309	13944
924.417	13997
924.525	13982
924.633	13887
924.741	14887
924.849	13651
924.956	13769
925.064	13651
925.172	13685
925.279	13689
925.387	13647
925.494	13677
925.602	13799
925.709	13651
925.816	13506
925.924	13510
926.031	13609
926.138	13643
926.245	13594
926.352	13559
926.459	13651
926.566	13719
926.673	13491
926.779	13365
926.886	13335
926.993	13217
927.099	13232
927.206	13152
927.312	13122
927.419	13198
927.525	13141
927.631	13145
927.737	13133
927.843	13027
927.95	12890
928.056	12970
928.162	13004
928.267	12981
928.373	13552
928.479	13095
928.585	12722
928.69	12852
928.796	13023
928.901	12753
929.007	12738
929.112	12875
929.218	12844
929.323	12688
929.428	12726
929.533	12844
929.638	12574
929.743	12688
929.848	12829
929.953	12620
930.058	12566
930.163	12357
930.267	12330
930.372	12547
930.477	12353
930.581	12498
930.685	12323
930.79	12319
930.894	12239
930.998	12159
931.103	12304
931.207	12034
931.311	11969
931.415	11821
931.519	11623
931.623	11619
