Data from test_V78500241_582.txt Node
Date: Fri Mar 25 15:45:49 CST 2022
User: usil
Spectrometer: V785-0024
Trigger mode: 0
Integration Time (sec): 4.000000E-1
Scans to average: 1
Nonlinearity correction enabled: false
Boxcar width: 0
Storing dark spectrum: false
XAxis mode: Wavelengths
Number of Pixels in Spectrum: 1024
>>>>>Begin Spectral Data<<<<<
801.071	27036
801.214	27066
801.356	26849
801.499	26777
801.641	26590
801.783	26495
801.926	26746
802.068	26480
802.211	26541
802.353	26351
802.496	26237
802.638	26294
802.78	26115
802.923	26145
803.065	26221
803.208	26050
803.35	26343
803.492	26476
803.635	26377
803.777	26206
803.919	26336
804.061	26743
804.204	26514
804.346	26313
804.488	26145
804.63	26275
804.773	26142
804.915	26393
805.057	26396
805.199	26389
805.341	26332
805.483	26518
805.626	26473
805.768	26317
805.91	26381
806.052	26488
806.194	26400
806.336	26689
806.478	26484
806.62	26336
806.762	26518
806.904	26842
807.046	26994
807.188	26967
807.33	26785
807.472	26891
807.614	26811
807.756	26769
807.898	26815
808.04	26739
808.182	26594
808.324	26781
808.465	26712
808.607	26891
808.749	26868
808.891	27142
809.033	27321
809.174	27119
809.316	27226
809.458	27150
809.6	27074
809.741	27211
809.883	27150
810.025	27275
810.166	27351
810.308	27340
810.45	27184
810.591	27142
810.733	26986
810.875	27039
811.016	27013
811.158	26895
811.299	27230
811.441	27112
811.582	27032
811.724	27055
811.865	27062
812.007	27089
812.148	26872
812.29	27043
812.431	27188
812.573	27359
812.714	27447
812.855	27580
812.997	27682
813.138	27819
813.279	27701
813.421	27770
813.562	27572
813.703	27313
813.845	27211
813.986	26952
814.127	26807
814.268	26800
814.41	26705
814.551	26644
814.692	26838
814.833	26583
814.974	26617
815.115	26788
815.256	26438
815.397	26606
815.539	26613
815.68	26552
815.821	26305
815.962	26488
816.103	26533
816.244	26537
816.385	26355
816.526	26210
816.666	26008
816.807	25970
816.948	26058
817.089	26122
817.23	25982
817.371	25997
817.512	25822
817.653	25913
817.793	25890
817.934	25947
818.075	26043
818.216	26016
818.356	25902
818.497	25712
818.638	25658
818.778	25632
818.919	25788
819.06	25727
819.2	25784
819.341	25909
819.481	25902
819.622	26107
819.762	26187
819.903	26229
820.043	26195
820.184	26046
820.324	26077
820.465	26016
820.605	26138
820.746	26183
820.886	25982
821.026	26039
821.167	25849
821.307	26035
821.447	26073
821.588	25868
821.728	25849
821.868	25677
822.008	25419
822.149	25396
822.289	25438
822.429	25080
822.569	25019
822.709	25019
822.849	24894
822.99	25034
823.13	24817
823.27	24901
823.41	24658
823.55	24639
823.69	24738
823.83	24715
823.97	24654
824.11	24464
824.25	24486
824.389	24475
824.529	24711
824.669	24494
824.809	24749
824.949	24616
825.089	24681
825.228	24601
825.368	24505
825.508	24414
825.648	24467
825.787	24429
825.927	24426
826.067	24407
826.206	24486
826.346	24467
826.485	24304
826.625	24422
826.765	24460
826.904	24422
827.044	24270
827.183	24114
827.323	24152
827.462	24076
827.601	24053
827.741	24076
827.88	24057
828.02	23984
828.159	24095
828.298	24152
828.437	24182
828.577	24155
828.716	24148
828.855	23999
828.994	23813
829.134	23870
829.273	23897
829.412	23653
829.551	23691
829.69	23783
829.829	23836
829.968	23847
830.107	23927
830.246	23821
830.385	23756
830.524	23699
830.663	23642
830.802	23505
830.941	23376
831.08	23318
831.219	23471
831.357	23372
831.496	23657
831.635	23368
831.774	23227
831.913	23326
832.051	23151
832.19	23086
832.329	23121
832.467	23075
832.606	23056
832.744	23102
832.883	22942
833.022	23064
833.16	23060
833.299	23166
833.437	23048
833.576	23178
833.714	23090
833.852	23197
833.991	23151
834.129	23204
834.267	23261
834.406	23067
834.544	23117
834.682	23223
834.821	23166
834.959	23406
835.097	23022
835.235	23189
835.373	23056
835.511	23086
835.65	23044
835.788	22961
835.926	22679
836.064	22790
836.202	22801
836.34	23025
836.478	23124
836.615	22850
836.753	23044
836.891	23029
837.029	23064
837.167	23006
837.305	22816
837.443	22885
837.58	22904
837.718	22866
837.856	22801
837.993	22812
838.131	22843
838.269	22611
838.406	22740
838.544	22702
838.681	22470
838.819	22531
838.956	22310
839.094	22226
839.231	22398
839.369	22337
839.506	22729
839.643	22584
839.781	22284
839.918	22325
840.055	22318
840.193	22242
840.33	22276
840.467	22295
840.604	22284
840.742	22561
840.879	22143
841.016	22162
841.153	22215
841.29	22303
841.427	22257
841.564	22306
841.701	22147
841.838	22219
841.975	22162
842.112	22128
842.249	22097
842.385	22082
842.522	22158
842.659	22101
842.796	21922
842.933	22055
843.069	21907
843.206	21873
843.343	21888
843.479	21937
843.616	21915
843.752	21732
843.889	21690
844.025	21915
844.162	21755
844.298	21812
844.435	21747
844.571	21770
844.708	21785
844.844	21873
844.98	21876
845.117	21835
845.253	21595
845.389	21633
845.525	21717
845.661	21701
845.798	21660
845.934	21679
846.07	21614
846.206	21511
846.342	21660
846.478	21420
846.614	21447
846.75	21176
846.886	21112
847.022	21287
847.158	21287
847.294	21249
847.429	21389
847.565	21173
847.701	21443
847.837	20929
847.972	20960
848.108	21085
848.244	21100
848.379	20792
848.515	20834
848.65	20941
848.786	20902
848.921	20792
849.057	20998
849.192	21051
849.328	20902
849.463	20921
849.598	20792
849.734	20686
849.869	20727
850.004	20621
850.14	20640
850.275	20625
850.41	20507
850.545	20545
850.68	20507
850.815	20568
850.95	20625
851.085	20746
851.22	20594
851.355	20655
851.49	20579
851.625	20655
851.76	20678
851.895	20503
852.03	20514
852.165	20629
852.299	20678
852.434	20701
852.569	20598
852.703	20621
852.838	20689
852.973	20758
853.107	20659
853.242	20560
853.376	20480
853.511	20275
853.645	20400
853.78	20522
853.914	20450
854.048	20454
854.183	20393
854.317	20488
854.451	20629
854.585	20389
854.72	20393
854.854	20511
854.988	20294
855.122	20514
855.256	20233
855.39	20366
855.524	20488
855.658	20518
855.792	20469
855.926	20427
856.06	20431
856.194	20549
856.327	20385
856.461	20374
856.595	20427
856.729	20336
856.862	20545
856.996	20583
857.13	20579
857.263	20492
857.397	20469
857.53	20290
857.664	20404
857.797	20461
857.931	20606
858.064	20404
858.197	20537
858.331	20404
858.464	20339
858.597	20328
858.731	20419
858.864	20393
858.997	20362
859.13	20537
859.263	20465
859.396	20526
859.529	20537
859.662	20351
859.795	20442
859.928	20446
860.061	20617
860.194	20689
860.327	20446
860.46	20518
860.592	20549
860.725	20499
860.858	20636
860.99	20389
861.123	20408
861.256	20294
861.388	20389
861.521	21066
861.653	20298
861.786	20256
861.918	20290
862.05	20351
862.183	20404
862.315	20377
862.447	20370
862.58	20400
862.712	20172
862.844	20122
862.976	20305
863.108	20282
863.24	20686
863.372	20054
863.504	20199
863.636	20153
863.768	20164
863.9	20263
864.032	20062
864.164	20138
864.296	20145
864.428	20122
864.559	20183
864.691	20199
864.823	20058
864.954	20202
865.086	20225
865.217	19970
865.349	19959
865.48	19986
865.612	20073
865.743	20218
865.875	20149
866.006	20126
866.137	20058
866.269	20073
866.4	20119
866.531	19970
866.662	19967
866.793	19982
866.924	20008
867.055	20024
867.186	19917
867.317	19826
867.448	19841
867.579	19932
867.71	19852
867.841	19909
867.972	20005
868.103	19982
868.233	19883
868.364	20088
868.495	20142
868.625	20214
868.756	20275
868.886	20149
869.017	20195
869.147	20385
869.278	20427
869.408	20259
869.539	20195
869.669	20419
869.799	20298
869.929	20389
870.06	20351
870.19	20579
870.32	20427
870.45	20499
870.58	20701
870.71	20804
870.84	20640
870.97	20575
871.1	20602
871.23	20777
871.36	20785
871.489	20739
871.619	20891
871.749	20914
871.879	20952
872.008	20967
872.138	20819
872.267	20842
872.397	20769
872.526	20651
872.656	20678
872.785	20701
872.915	20910
873.044	20899
873.173	20792
873.303	20933
873.432	20944
873.561	20952
873.69	20880
873.819	20872
873.948	20948
874.077	20883
874.206	20910
874.335	20785
874.464	21058
874.593	21207
874.722	21093
874.851	21237
874.979	21131
875.108	21093
875.237	21024
875.365	20956
875.494	21123
875.623	21150
875.751	20994
875.88	21154
876.008	21283
876.136	21393
876.265	21485
876.393	21644
876.521	21587
876.65	21587
876.778	21507
876.906	21481
877.034	21416
877.162	21431
877.29	21477
877.418	21526
877.546	21443
877.674	21507
877.802	21530
877.93	21389
878.058	21321
878.185	21294
878.313	21382
878.441	21454
878.568	21203
878.696	21321
878.824	21332
878.951	21561
879.079	21667
879.206	21698
879.333	21637
879.461	21542
879.588	21557
879.715	21694
879.842	21728
879.97	21610
880.097	21306
880.224	21348
880.351	21279
880.478	21332
880.605	21359
880.732	21272
880.859	21511
880.986	21332
881.112	21367
881.239	21127
881.366	20914
881.493	21051
881.619	20960
881.746	20887
881.872	20804
881.999	20811
882.125	20849
882.252	20918
882.378	20864
882.505	21032
882.631	20807
882.757	20556
882.883	20606
883.01	20613
883.136	20434
883.262	20583
883.388	20461
883.514	20602
883.64	20541
883.766	20488
883.892	20290
884.018	20347
884.143	20705
884.269	20670
884.395	20408
884.52	20259
884.646	20362
884.772	20077
884.897	20027
885.023	20313
885.148	20290
885.274	20404
885.399	20389
885.524	20271
885.65	20221
885.775	20214
885.9	20229
886.025	20400
886.15	20389
886.275	20218
886.4	20252
886.525	20214
886.65	20202
886.775	20065
886.9	20389
887.025	20358
887.149	20225
887.274	20043
887.399	20001
887.523	19989
887.648	19963
887.773	19841
887.897	20020
888.021	20024
888.146	19989
888.27	20088
888.395	20062
888.519	20073
888.643	20008
888.767	20100
888.891	19856
889.015	19830
889.139	19856
889.263	19803
889.387	19925
889.511	20065
889.635	19830
889.759	19936
889.883	19868
890.006	19871
890.13	19982
890.254	19658
890.377	19784
890.501	19750
890.624	19578
890.748	19552
890.871	19472
890.995	19324
891.118	19301
891.241	19384
891.364	19301
891.488	19377
891.611	19339
891.734	19373
891.857	19419
891.98	19472
892.103	19377
892.226	19362
892.349	19358
892.471	19270
892.594	19362
892.717	19289
892.839	19289
892.962	19270
893.085	19339
893.207	19346
893.33	19247
893.452	19232
893.575	19304
893.697	19259
893.819	19419
893.941	19419
894.064	19346
894.186	19183
894.308	19285
894.43	19346
894.552	19472
894.674	19362
894.796	19263
894.918	19259
895.04	19327
895.161	19403
895.283	19343
895.405	19240
895.526	19354
895.648	19213
895.769	19415
895.891	19419
896.012	19434
896.134	19472
896.255	19381
896.376	19289
896.498	19411
896.619	19472
896.74	19438
896.861	19411
896.982	19624
897.103	19765
897.224	19616
897.345	19567
897.466	19480
897.587	19616
897.708	19662
897.828	19514
897.949	19635
898.07	19453
898.19	19502
898.311	19605
898.431	19487
898.552	19605
898.672	19639
898.792	19635
898.913	19647
899.033	19445
899.153	19377
899.273	19384
899.393	19358
899.513	19285
899.633	19350
899.753	19495
899.873	19354
899.993	19369
900.113	19213
900.232	19480
900.352	19304
900.472	19266
900.591	19114
900.711	19088
900.83	19171
900.95	19171
901.069	19171
901.189	18947
901.308	18844
901.427	18719
901.546	18741
901.665	18734
901.784	18757
901.904	18753
902.023	18570
902.141	18315
902.26	18346
902.379	18281
902.498	18296
902.617	18235
902.735	18254
902.854	18209
902.973	18201
903.091	17988
903.21	17988
903.328	17977
903.446	17802
903.565	17733
903.683	17786
903.801	17528
903.919	17687
904.038	17760
904.156	17547
904.274	17493
904.392	17501
904.51	17486
904.627	17402
904.745	17592
904.863	17471
904.981	17311
905.098	17208
905.216	17136
905.334	17136
905.451	17181
905.569	17273
905.686	17303
905.803	17212
905.921	16987
906.038	17121
906.155	17022
906.272	16850
906.389	16889
906.506	16771
906.623	16797
906.74	16748
906.857	16698
906.974	16672
907.091	16812
907.208	16649
907.324	16748
907.441	16717
907.557	16459
907.674	16478
907.79	16386
907.907	16409
908.023	16428
908.139	16500
908.256	16455
908.372	16257
908.488	16318
908.604	16196
908.72	16173
908.836	16128
908.952	16215
909.068	16143
909.184	16314
909.3	16192
909.415	16242
909.531	16185
909.647	15835
909.762	15907
909.878	15930
909.993	15975
910.108	15827
910.224	15816
910.339	15861
910.454	15755
910.57	15679
910.685	15656
910.8	15979
910.915	15911
911.03	15557
911.145	15599
911.259	15553
911.374	15496
911.489	15424
911.604	15359
911.718	15127
911.833	15272
911.947	15127
912.062	15097
912.176	15207
912.291	15241
912.405	15275
912.519	15576
912.633	15405
912.748	15412
912.862	15165
912.976	15138
913.09	14960
913.204	15039
913.318	15047
913.431	15077
913.545	15165
913.659	15093
913.772	15074
913.886	14921
914	14845
914.113	15009
914.226	15001
914.34	14944
914.453	14750
914.566	14834
914.68	14731
914.793	14773
914.906	14594
915.019	14556
915.132	14442
915.245	14495
915.358	14488
915.47	14495
915.583	14404
915.696	14526
915.809	14598
915.921	14651
916.034	14408
916.146	14434
916.259	14404
916.371	14568
916.483	14518
916.595	14480
916.708	14290
916.82	14450
916.932	14343
917.044	14336
917.156	14358
917.268	14153
917.38	14210
917.491	14187
917.603	14229
917.715	14313
917.826	14358
917.938	14130
918.049	14058
918.161	14183
918.272	14275
918.384	14176
918.495	14218
918.606	13955
918.717	13871
918.828	13936
918.939	14008
919.05	13849
919.161	14020
919.272	13696
919.383	13738
919.494	13974
919.604	14050
919.715	14005
919.826	13833
919.936	13909
920.047	14001
920.157	13940
920.267	14100
920.378	14077
920.488	13936
920.598	14202
920.708	14301
920.818	14077
920.928	14077
921.038	14214
921.148	14119
921.258	13917
921.368	13784
921.477	13818
921.587	13658
921.697	13529
921.806	13666
921.916	13499
922.025	13339
922.134	13350
922.244	13384
922.353	13316
922.462	13285
922.571	13133
922.68	13057
922.789	12996
922.898	13004
923.007	12909
923.116	12996
923.224	12947
923.333	12993
923.442	12825
923.55	12791
923.659	12776
923.767	12844
923.876	12681
923.984	12791
924.092	12726
924.201	12741
924.309	12741
924.417	12764
924.525	12623
924.633	12665
924.741	13597
924.849	12418
924.956	12635
925.064	12467
925.172	12353
925.279	12410
925.387	12410
925.494	12483
925.602	12574
925.709	12532
925.816	12323
925.924	12399
926.031	12441
926.138	12399
926.245	12525
926.352	12338
926.459	12380
926.566	12574
926.673	12361
926.779	12220
926.886	12121
926.993	12026
927.099	12022
927.206	11977
927.312	11977
927.419	12045
927.525	11988
927.631	12079
927.737	11931
927.843	11828
927.95	11771
928.056	11923
928.162	11805
928.267	11927
928.373	12513
928.479	11969
928.585	11646
928.69	11775
928.796	11794
928.901	11760
929.007	11528
929.112	11710
929.218	11707
929.323	11642
929.428	11627
929.533	11779
929.638	11524
929.743	11570
929.848	11638
929.953	11528
930.058	11455
930.163	11227
930.267	11360
930.372	11440
930.477	11326
930.581	11478
930.685	11406
930.79	11216
930.894	11212
930.998	11140
931.103	11368
931.207	10923
931.311	10843
931.415	10763
931.519	10634
931.623	10516
