Data from test_V78500241_1367.txt Node
Date: Fri Mar 25 15:51:16 CST 2022
User: usil
Spectrometer: V785-0024
Trigger mode: 0
Integration Time (sec): 4.000000E-1
Scans to average: 1
Nonlinearity correction enabled: false
Boxcar width: 0
Storing dark spectrum: false
XAxis mode: Wavelengths
Number of Pixels in Spectrum: 1024
>>>>>Begin Spectral Data<<<<<
801.071	28154
801.214	28196
801.356	27869
801.499	27922
801.641	27705
801.783	27762
801.926	27831
802.068	27671
802.211	27793
802.353	27614
802.496	27534
802.638	27416
802.78	27382
802.923	27230
803.065	27211
803.208	27359
803.35	27370
803.492	27447
803.635	27633
803.777	27515
803.919	27641
804.061	27884
804.204	27698
804.346	27610
804.488	27485
804.63	27534
804.773	27568
804.915	27583
805.057	27641
805.199	27637
805.341	27675
805.483	27827
805.626	27766
805.768	27652
805.91	27747
806.052	27827
806.194	27797
806.336	28044
806.478	27778
806.62	27804
806.762	27914
806.904	28021
807.046	28314
807.188	28268
807.33	28276
807.472	28291
807.614	28101
807.756	28036
807.898	28124
808.04	27991
808.182	27983
808.324	28070
808.465	28230
808.607	28409
808.749	28428
808.891	28394
809.033	28687
809.174	28474
809.316	28455
809.458	28504
809.6	28493
809.741	28622
809.883	28424
810.025	28824
810.166	28778
810.308	28904
810.45	28679
810.591	28672
810.733	28550
810.875	28436
811.016	28295
811.158	28466
811.299	28592
811.441	28744
811.582	28649
811.724	28462
811.865	28367
812.007	28440
812.148	28478
812.29	28527
812.431	28603
812.573	28656
812.714	28839
812.855	28953
812.997	29067
813.138	29311
813.279	29117
813.421	28896
813.562	28930
813.703	28801
813.845	28771
813.986	28253
814.127	28287
814.268	28154
814.41	28139
814.551	28131
814.692	28192
814.833	28166
814.974	28063
815.115	28078
815.256	28006
815.397	28013
815.539	28040
815.68	27979
815.821	27926
815.962	28017
816.103	27857
816.244	27633
816.385	27633
816.526	27793
816.666	27523
816.807	27386
816.948	27572
817.089	27641
817.23	27439
817.371	27283
817.512	27504
817.653	27420
817.793	27332
817.934	27443
818.075	27408
818.216	27469
818.356	27416
818.497	27260
818.638	27214
818.778	27104
818.919	27207
819.06	27203
819.2	27188
819.341	27351
819.481	27363
819.622	27690
819.762	27759
819.903	27614
820.043	27618
820.184	27488
820.324	27500
820.465	27625
820.605	27564
820.746	27405
820.886	27416
821.026	27557
821.167	27496
821.307	27568
821.447	27378
821.588	27321
821.728	27214
821.868	27131
822.008	27161
822.149	27005
822.289	26925
822.429	26648
822.569	26606
822.709	26670
822.849	26298
822.99	26453
823.13	26423
823.27	26446
823.41	26054
823.55	26168
823.69	26191
823.83	26324
823.97	26153
824.11	26073
824.25	26020
824.389	26065
824.529	26103
824.669	26062
824.809	26157
824.949	26168
825.089	26377
825.228	26130
825.368	25772
825.508	26027
825.648	25902
825.787	25902
825.927	25940
826.067	25887
826.206	25963
826.346	25936
826.485	25951
826.625	25997
826.765	26065
826.904	26027
827.044	25795
827.183	25670
827.323	25639
827.462	25708
827.601	25795
827.741	25666
827.88	25655
828.02	25479
828.159	25567
828.298	25624
828.437	25693
828.577	25518
828.716	25685
828.855	25506
828.994	25415
829.134	25308
829.273	25392
829.412	25358
829.551	25358
829.69	25232
829.829	25285
829.968	25479
830.107	25411
830.246	25270
830.385	25304
830.524	25221
830.663	25194
830.802	25187
830.941	24962
831.08	25008
831.219	24947
831.357	25019
831.496	25110
831.635	24859
831.774	24924
831.913	24791
832.051	24688
832.19	24707
832.329	24673
832.467	24673
832.606	24570
832.744	24597
832.883	24669
833.022	24452
833.16	24555
833.299	24654
833.437	24749
833.576	24707
833.714	24658
833.852	24661
833.991	24760
834.129	24768
834.267	24692
834.406	24760
834.544	24688
834.682	24650
834.821	24738
834.959	24681
835.097	24620
835.235	24707
835.373	24593
835.511	24673
835.65	24593
835.788	24574
835.926	24399
836.064	24327
836.202	24270
836.34	24475
836.478	24490
836.615	24388
836.753	24452
836.891	24730
837.029	24445
837.167	24426
837.305	24300
837.443	24251
837.58	24239
837.718	24311
837.856	24456
837.993	24239
838.131	24281
838.269	24239
838.406	24182
838.544	24186
838.681	24041
838.819	23954
838.956	23699
839.094	23798
839.231	23950
839.369	23927
839.506	24136
839.643	24057
839.781	23722
839.918	23798
840.055	23809
840.193	23893
840.33	23775
840.467	23760
840.604	23817
840.742	24030
840.879	23672
841.016	23699
841.153	23661
841.29	23824
841.427	23733
841.564	23687
841.701	23646
841.838	23680
841.975	23630
842.112	23566
842.249	23543
842.385	23395
842.522	23722
842.659	23452
842.796	23486
842.933	23493
843.069	23425
843.206	23368
843.343	23554
843.479	23459
843.616	23448
843.752	23280
843.889	23235
844.025	23277
844.162	23136
844.298	23402
844.435	23326
844.571	23170
844.708	23242
844.844	23455
844.98	23398
845.117	23440
845.253	23227
845.389	23223
845.525	23170
845.661	22961
845.798	22900
845.934	23022
846.07	22957
846.206	23048
846.342	22987
846.478	22896
846.614	22736
846.75	22599
846.886	22740
847.022	22729
847.158	22721
847.294	22744
847.429	22809
847.565	22615
847.701	22896
847.837	22413
847.972	22573
848.108	22588
848.244	22428
848.379	22402
848.515	22322
848.65	22295
848.786	22348
848.921	22325
849.057	22519
849.192	22451
849.328	22325
849.463	22497
849.598	22287
849.734	22162
849.869	22109
850.004	22044
850.14	22105
850.275	22010
850.41	21972
850.545	22055
850.68	21979
850.815	22131
850.95	21960
851.085	22120
851.22	22131
851.355	22074
851.49	22013
851.625	22082
851.76	22074
851.895	22006
852.03	22040
852.165	22097
852.299	22154
852.434	22158
852.569	22105
852.703	22093
852.838	22200
852.973	22230
853.107	22196
853.242	21998
853.376	22006
853.511	21728
853.645	21808
853.78	22105
853.914	21941
854.048	21911
854.183	21842
854.317	21922
854.451	22120
854.585	21873
854.72	21876
854.854	21770
854.988	21865
855.122	21956
855.256	21701
855.39	21789
855.524	21994
855.658	21895
855.792	21838
855.926	22013
856.06	21930
856.194	21915
856.327	21842
856.461	21751
856.595	21827
856.729	21793
856.862	21937
856.996	21911
857.13	21876
857.263	21987
857.397	22021
857.53	21785
857.664	22025
857.797	21915
857.931	22093
858.064	21838
858.197	22074
858.331	21850
858.464	21759
858.597	21785
858.731	21846
858.864	21873
858.997	21789
859.13	21876
859.263	21835
859.396	21857
859.529	21876
859.662	21854
859.795	21797
859.928	22029
860.061	21926
860.194	22078
860.327	21781
860.46	21945
860.592	21911
860.725	21907
860.858	21972
860.99	21941
861.123	21808
861.256	21690
861.388	21808
861.521	22546
861.653	21690
861.786	21614
861.918	21679
862.05	21892
862.183	21732
862.315	21827
862.447	21861
862.58	21831
862.712	21599
862.844	21656
862.976	21698
863.108	21648
863.24	22150
863.372	21481
863.504	21572
863.636	21568
863.768	21526
863.9	21519
864.032	21481
864.164	21538
864.296	21599
864.428	21751
864.559	21652
864.691	21667
864.823	21542
864.954	21545
865.086	21545
865.217	21431
865.349	21389
865.48	21614
865.612	21526
865.743	21580
865.875	21469
866.006	21382
866.137	21485
866.269	21473
866.4	21408
866.531	21378
866.662	21378
866.793	21416
866.924	21386
867.055	21469
867.186	21454
867.317	21226
867.448	21272
867.579	21298
867.71	21355
867.841	21367
867.972	21439
868.103	21428
868.233	21336
868.364	21386
868.495	21591
868.625	21435
868.756	21755
868.886	21679
869.017	21618
869.147	21816
869.278	21660
869.408	21637
869.539	21572
869.669	21637
869.799	21698
869.929	21816
870.06	21751
870.19	22067
870.32	21987
870.45	22055
870.58	22124
870.71	22181
870.84	22177
870.97	21949
871.1	21991
871.23	22215
871.36	22265
871.489	22090
871.619	22188
871.749	22192
871.879	22284
872.008	22394
872.138	22272
872.267	22226
872.397	22109
872.526	21949
872.656	22036
872.785	22070
872.915	22287
873.044	22382
873.173	22265
873.303	22371
873.432	22344
873.561	22348
873.69	22265
873.819	22390
873.948	22360
874.077	22242
874.206	22223
874.335	22215
874.464	22436
874.593	22500
874.722	22508
874.851	22447
874.979	22478
875.108	22462
875.237	22455
875.365	22310
875.494	22523
875.623	22618
875.751	22493
875.88	22550
876.008	22622
876.136	22535
876.265	22911
876.393	22968
876.521	22881
876.65	22919
876.778	22831
876.906	22828
877.034	22710
877.162	22942
877.29	22706
877.418	22904
877.546	22869
877.674	22839
877.802	22877
877.93	22691
878.058	22767
878.185	22698
878.313	22835
878.441	22797
878.568	22630
878.696	22763
878.824	22763
878.951	22930
879.079	22881
879.206	23067
879.333	23010
879.461	22873
879.588	22961
879.715	23018
879.842	23067
879.97	22877
880.097	22740
880.224	22584
880.351	22713
880.478	22691
880.605	22599
880.732	22664
880.859	22820
880.986	22637
881.112	22634
881.239	22523
881.366	22436
881.493	22379
881.619	22162
881.746	22242
881.872	22147
881.999	22181
882.125	22067
882.252	22207
882.378	22070
882.505	22337
882.631	21998
882.757	21907
882.883	21994
883.01	21926
883.136	21861
883.262	21759
883.388	21717
883.514	21793
883.64	21922
883.766	21789
883.892	21717
884.018	21644
884.143	21785
884.269	21823
884.395	21614
884.52	21519
884.646	21462
884.772	21408
884.897	21374
885.023	21576
885.148	21660
885.274	21698
885.399	21549
885.524	21603
885.65	21443
885.775	21526
885.9	21553
886.025	21660
886.15	21656
886.275	21538
886.4	21401
886.525	21466
886.65	21431
886.775	21287
886.9	21557
887.025	21675
887.149	21466
887.274	21336
887.399	21454
887.523	21370
887.648	21184
887.773	21142
887.897	21454
888.021	21431
888.146	21283
888.27	21481
888.395	21496
888.519	21325
888.643	21336
888.767	21207
888.891	21192
889.015	21138
889.139	21169
889.263	21173
889.387	21176
889.511	21351
889.635	21077
889.759	21089
889.883	21127
890.006	20994
890.13	21268
890.254	21085
890.377	20895
890.501	20880
890.624	20899
890.748	20937
890.871	20727
890.995	20720
891.118	20556
891.241	20720
891.364	20701
891.488	20724
891.611	20689
891.734	20716
891.857	20792
891.98	20743
892.103	20636
892.226	20697
892.349	20598
892.471	20400
892.594	20571
892.717	20636
892.839	20590
892.962	20613
893.085	20621
893.207	20625
893.33	20457
893.452	20423
893.575	20511
893.697	20575
893.819	20621
893.941	20750
894.064	20701
894.186	20408
894.308	20438
894.43	20560
894.552	20735
894.674	20575
894.796	20377
894.918	20404
895.04	20518
895.161	20556
895.283	20568
895.405	20484
895.526	20522
895.648	20568
895.769	20537
895.891	20575
896.012	20632
896.134	20648
896.255	20556
896.376	20358
896.498	20454
896.619	20530
896.74	20678
896.861	20541
896.982	20838
897.103	21005
897.224	20944
897.345	20701
897.466	20663
897.587	20724
897.708	20868
897.828	20773
897.949	20708
898.07	20689
898.19	20727
898.311	20823
898.431	20735
898.552	20686
898.672	20880
898.792	20876
898.913	20731
899.033	20800
899.153	20568
899.273	20438
899.393	20465
899.513	20541
899.633	20549
899.753	20587
899.873	20457
899.993	20526
900.113	20370
900.232	20469
900.352	20389
900.472	20294
900.591	20229
900.711	20431
900.83	20210
900.95	20473
901.069	20317
901.189	20111
901.308	19955
901.427	19936
901.546	19993
901.665	19837
901.784	19845
901.904	19719
902.023	19567
902.141	19388
902.26	19350
902.379	19396
902.498	19358
902.617	19419
902.735	19441
902.854	19354
902.973	19266
903.091	18989
903.21	18924
903.328	18951
903.446	18909
903.565	18901
903.683	18776
903.801	18719
903.919	18779
904.038	18688
904.156	18620
904.274	18779
904.392	18566
904.51	18517
904.627	18509
904.745	18719
904.863	18566
904.981	18460
905.098	18308
905.216	18266
905.334	18296
905.451	18342
905.569	18224
905.686	18205
905.803	18224
905.921	18045
906.038	18007
906.155	18003
906.272	17863
906.389	18087
906.506	17840
906.623	17809
906.74	17764
906.857	17756
906.974	17809
907.091	17832
907.208	18038
907.324	17764
907.441	17649
907.557	17516
907.674	17490
907.79	17558
907.907	17532
908.023	17505
908.139	17501
908.256	17474
908.372	17440
908.488	17421
908.604	17200
908.72	17288
908.836	17185
908.952	17105
909.068	17170
909.184	17337
909.3	17067
909.415	17341
909.531	17193
909.647	16976
909.762	17048
909.878	16858
909.993	16938
910.108	16885
910.224	16866
910.339	16987
910.454	16774
910.57	16805
910.685	16698
910.8	16892
910.915	16786
911.03	16733
911.145	16630
911.259	16531
911.374	16451
911.489	16421
911.604	16409
911.718	16246
911.833	16303
911.947	16230
912.062	16162
912.176	16234
912.291	16280
912.405	16246
912.519	16436
912.633	16402
912.748	16246
912.862	16318
912.976	16120
913.09	15960
913.204	16006
913.318	16150
913.431	16105
913.545	16090
913.659	16139
913.772	15960
913.886	15915
914	15804
914.113	15953
914.226	16010
914.34	15907
914.453	15679
914.566	15823
914.68	15739
914.793	15728
914.906	15603
915.019	15416
915.132	15363
915.245	15435
915.358	15466
915.47	15450
915.583	15435
915.696	15466
915.809	15519
915.921	15580
916.034	15378
916.146	15344
916.259	15374
916.371	15435
916.483	15469
916.595	15329
916.708	15233
916.82	15275
916.932	15180
917.044	15268
917.156	15218
917.268	15089
917.38	15085
917.491	15013
917.603	15116
917.715	15207
917.826	15192
917.938	15020
918.049	14963
918.161	15036
918.272	15097
918.384	15199
918.495	15028
918.606	14868
918.717	14788
918.828	14849
918.939	14883
919.05	14739
919.161	14876
919.272	14632
919.383	14773
919.494	14899
919.604	14975
919.715	14853
919.826	14644
919.936	14823
920.047	14861
920.157	14849
920.267	15039
920.378	14819
920.488	14754
920.598	15001
920.708	15150
920.818	14990
920.928	14849
921.038	15127
921.148	15112
921.258	14655
921.368	14640
921.477	14674
921.587	14541
921.697	14469
921.806	14518
921.916	14366
922.025	14202
922.134	14191
922.244	14202
922.353	14252
922.462	13989
922.571	13974
922.68	13788
922.789	13837
922.898	13830
923.007	13769
923.116	13818
923.224	13765
923.333	13734
923.442	13575
923.55	13651
923.659	13624
923.767	13750
923.876	13533
923.984	13723
924.092	13590
924.201	13586
924.309	13529
924.417	13582
924.525	13422
924.633	13533
924.741	14336
924.849	13308
924.956	13419
925.064	13274
925.172	13213
925.279	13221
925.387	13217
925.494	13118
925.602	13331
925.709	13331
925.816	13110
925.924	13168
926.031	13263
926.138	13129
926.245	13194
926.352	13027
926.459	13171
926.566	13179
926.673	13031
926.779	12928
926.886	12981
926.993	12894
927.099	12760
927.206	12741
927.312	12730
927.419	12817
927.525	12814
927.631	12768
927.737	12654
927.843	12642
927.95	12498
928.056	12555
928.162	12642
928.267	12707
928.373	13320
928.479	12681
928.585	12513
928.69	12593
928.796	12620
928.901	12475
929.007	12315
929.112	12452
929.218	12433
929.323	12429
929.428	12266
929.533	12433
929.638	12270
929.743	12239
929.848	12323
929.953	12308
930.058	12095
930.163	12022
930.267	11996
930.372	12030
930.477	11923
930.581	12197
930.685	11992
930.79	11851
930.894	11923
930.998	11836
931.103	11904
931.207	11634
931.311	11592
931.415	11387
931.519	11269
931.623	11277
