Data from test_V78500241_3624.txt Node
Date: Fri Mar 25 16:06:54 CST 2022
User: usil
Spectrometer: V785-0024
Trigger mode: 0
Integration Time (sec): 4.000000E-1
Scans to average: 1
Nonlinearity correction enabled: false
Boxcar width: 0
Storing dark spectrum: false
XAxis mode: Wavelengths
Number of Pixels in Spectrum: 1024
>>>>>Begin Spectral Data<<<<<
801.071	28774
801.214	28873
801.356	28390
801.499	28504
801.641	28356
801.783	28344
801.926	28287
802.068	28417
802.211	28375
802.353	28280
802.496	28185
802.638	28124
802.78	28192
802.923	28086
803.065	27987
803.208	28109
803.35	28055
803.492	28249
803.635	28291
803.777	28086
803.919	28447
804.061	28641
804.204	28440
804.346	28234
804.488	28306
804.63	28325
804.773	28181
804.915	28371
805.057	28451
805.199	28379
805.341	28443
805.483	28398
805.626	28398
805.768	28337
805.91	28405
806.052	28542
806.194	28382
806.336	28508
806.478	28421
806.62	28466
806.762	28672
806.904	28888
807.046	28961
807.188	28930
807.33	28946
807.472	29044
807.614	28816
807.756	28930
807.898	28744
808.04	28713
808.182	28869
808.324	28771
808.465	28942
808.607	29086
808.749	29128
808.891	29147
809.033	29341
809.174	29227
809.316	29216
809.458	29204
809.6	29185
809.741	29208
809.883	29490
810.025	29395
810.166	29391
810.308	29531
810.45	29478
810.591	29364
810.733	29280
810.875	29170
811.016	28968
811.158	29098
811.299	29258
811.441	29417
811.582	29334
811.724	29029
811.865	29311
812.007	29212
812.148	29220
812.29	29227
812.431	29379
812.573	29474
812.714	29714
812.855	29809
812.997	29821
813.138	29942
813.279	29783
813.421	29722
813.562	29665
813.703	29630
813.845	29433
813.986	29227
814.127	29117
814.268	28919
814.41	29018
814.551	28873
814.692	29044
814.833	28877
814.974	28831
815.115	28919
815.256	28675
815.397	28809
815.539	28938
815.68	28698
815.821	28588
815.962	28740
816.103	28660
816.244	28538
816.385	28512
816.526	28519
816.666	28451
816.807	28154
816.948	28276
817.089	28333
817.23	28185
817.371	28147
817.512	28257
817.653	28169
817.793	28139
817.934	28265
818.075	28173
818.216	28238
818.356	28295
818.497	28131
818.638	28017
818.778	27979
818.919	27991
819.06	28128
819.2	28131
819.341	28207
819.481	28230
819.622	28363
819.762	28577
819.903	28500
820.043	28466
820.184	28276
820.324	28379
820.465	28409
820.605	28303
820.746	28287
820.886	28188
821.026	28356
821.167	28348
821.307	28341
821.447	28284
821.588	28105
821.728	28025
821.868	27876
822.008	27766
822.149	27732
822.289	27679
822.429	27443
822.569	27447
822.709	27370
822.849	27424
822.99	27252
823.13	27218
823.27	27154
823.41	27028
823.55	26937
823.69	27074
823.83	27081
823.97	27032
824.11	26815
824.25	26762
824.389	26918
824.529	26918
824.669	26838
824.809	26990
824.949	26921
825.089	26914
825.228	26902
825.368	26648
825.508	26845
825.648	26712
825.787	26777
825.927	26727
826.067	26697
826.206	26781
826.346	26792
826.485	26861
826.625	26724
826.765	26861
826.904	26765
827.044	26644
827.183	26526
827.323	26358
827.462	26583
827.601	26621
827.741	26442
827.88	26450
828.02	26442
828.159	26526
828.298	26503
828.437	26533
828.577	26362
828.716	26598
828.855	26434
828.994	26183
829.134	26050
829.273	26305
829.412	26081
829.551	26176
829.69	26195
829.829	26119
829.968	26259
830.107	26191
830.246	26138
830.385	26084
830.524	26065
830.663	26024
830.802	25917
830.941	25780
831.08	25757
831.219	25864
831.357	25993
831.496	25864
831.635	25875
831.774	25708
831.913	25609
832.051	25620
832.19	25609
832.329	25715
832.467	25476
832.606	25362
832.744	25308
832.883	25339
833.022	25320
833.16	25422
833.299	25502
833.437	25453
833.576	25510
833.714	25438
833.852	25586
833.991	25670
834.129	25632
834.267	25578
834.406	25518
834.544	25643
834.682	25457
834.821	25426
834.959	25693
835.097	25449
835.235	25521
835.373	25430
835.511	25445
835.65	25354
835.788	25411
835.926	25236
836.064	25187
836.202	25145
836.34	25244
836.478	25289
836.615	25266
836.753	25278
836.891	25339
837.029	25339
837.167	25156
837.305	25339
837.443	25171
837.58	25289
837.718	25095
837.856	25057
837.993	25137
838.131	25110
838.269	24943
838.406	25061
838.544	24890
838.681	24798
838.819	24772
838.956	24654
839.094	24536
839.231	24654
839.369	24798
839.506	24962
839.643	24833
839.781	24597
839.918	24448
840.055	24700
840.193	24570
840.33	24498
840.467	24570
840.604	24521
840.742	24840
840.879	24460
841.016	24445
841.153	24452
841.29	24692
841.427	24483
841.564	24673
841.701	24536
841.838	24589
841.975	24456
842.112	24395
842.249	24418
842.385	24311
842.522	24486
842.659	24338
842.796	24285
842.933	24330
843.069	24319
843.206	24232
843.343	24334
843.479	24319
843.616	24228
843.752	24098
843.889	23958
844.025	24121
844.162	24106
844.298	24121
844.435	24068
844.571	24049
844.708	23996
844.844	24197
844.98	24201
845.117	24144
845.253	23935
845.389	23832
845.525	23916
845.661	23840
845.798	23680
845.934	23832
846.07	23726
846.206	23904
846.342	23840
846.478	23840
846.614	23661
846.75	23520
846.886	23474
847.022	23630
847.158	23505
847.294	23592
847.429	23520
847.565	23486
847.701	23699
847.837	23288
847.972	23170
848.108	23417
848.244	23280
848.379	23140
848.515	22976
848.65	23178
848.786	23052
848.921	23227
849.057	23204
849.192	23189
849.328	23216
849.463	23117
849.598	23083
849.734	22831
849.869	22991
850.004	22908
850.14	22972
850.275	22892
850.41	22873
850.545	22835
850.68	22767
850.815	22934
850.95	22824
851.085	23010
851.22	23006
851.355	22850
851.49	22892
851.625	22843
851.76	22957
851.895	22801
852.03	22793
852.165	22927
852.299	22930
852.434	22930
852.569	22835
852.703	22793
852.838	22927
852.973	22999
853.107	22949
853.242	22801
853.376	22740
853.511	22672
853.645	22801
853.78	22702
853.914	22683
854.048	22691
854.183	22672
854.317	22786
854.451	22927
854.585	22759
854.72	22687
854.854	22824
854.988	22615
855.122	22660
855.256	22626
855.39	22683
855.524	22843
855.658	22904
855.792	22873
855.926	22733
856.06	22774
856.194	22892
856.327	22691
856.461	22588
856.595	22729
856.729	22702
856.862	22900
856.996	22668
857.13	22763
857.263	22820
857.397	22767
857.53	22660
857.664	22660
857.797	22733
857.931	22839
858.064	22748
858.197	22828
858.331	22691
858.464	22573
858.597	22637
858.731	22687
858.864	22653
858.997	22504
859.13	22748
859.263	22706
859.396	22755
859.529	22641
859.662	22755
859.795	22744
859.928	22733
860.061	22759
860.194	22938
860.327	22774
860.46	22694
860.592	22812
860.725	22755
860.858	22801
860.99	22805
861.123	22698
861.256	22672
861.388	22694
861.521	23573
861.653	22607
861.786	22550
861.918	22489
862.05	22546
862.183	22649
862.315	22550
862.447	22748
862.58	22527
862.712	22485
862.844	22371
862.976	22485
863.108	22500
863.24	22889
863.372	22382
863.504	22561
863.636	22390
863.768	22421
863.9	22413
864.032	22348
864.164	22257
864.296	22375
864.428	22382
864.559	22561
864.691	22417
864.823	22546
864.954	22356
865.086	22306
865.217	22341
865.349	22173
865.48	22382
865.612	22238
865.743	22481
865.875	22360
866.006	22215
866.137	22291
866.269	22284
866.4	22299
866.531	22265
866.662	22150
866.793	22265
866.924	22226
867.055	22295
867.186	22280
867.317	22204
867.448	22173
867.579	22192
867.71	22238
867.841	22032
867.972	22135
868.103	22055
868.233	22124
868.364	22238
868.495	22230
868.625	22386
868.756	22557
868.886	22516
869.017	22443
869.147	22573
869.278	22618
869.408	22462
869.539	22546
869.669	22546
869.799	22466
869.929	22687
870.06	22573
870.19	22759
870.32	22828
870.45	22942
870.58	22900
870.71	23014
870.84	23010
870.97	22790
871.1	22790
871.23	22965
871.36	22949
871.489	22953
871.619	23041
871.749	22972
871.879	23064
872.008	23136
872.138	23117
872.267	23075
872.397	22930
872.526	22892
872.656	22824
872.785	22885
872.915	23060
873.044	23197
873.173	23220
873.303	23124
873.432	23189
873.561	23212
873.69	23121
873.819	23044
873.948	23140
874.077	23044
874.206	23025
874.335	22999
874.464	23280
874.593	23315
874.722	23159
874.851	23254
874.979	23261
875.108	23391
875.237	23235
875.365	23124
875.494	23189
875.623	23398
875.751	23174
875.88	23265
876.008	23459
876.136	23474
876.265	23684
876.393	23767
876.521	23767
876.65	23802
876.778	23699
876.906	23531
877.034	23570
877.162	23714
877.29	23505
877.418	23596
877.546	23566
877.674	23657
877.802	23672
877.93	23528
878.058	23596
878.185	23417
878.313	23566
878.441	23562
878.568	23478
878.696	23630
878.824	23703
878.951	23646
879.079	23798
879.206	23889
879.333	23802
879.461	23562
879.588	23726
879.715	23668
879.842	23935
879.97	23722
880.097	23459
880.224	23490
880.351	23452
880.478	23349
880.605	23467
880.732	23452
880.859	23604
880.986	23535
881.112	23452
881.239	23284
881.366	23178
881.493	23109
881.619	23140
881.746	23102
881.872	23006
881.999	22976
882.125	22915
882.252	23048
882.378	23018
882.505	23079
882.631	22736
882.757	22740
882.883	22752
883.01	22653
883.136	22519
883.262	22527
883.388	22599
883.514	22694
883.64	22713
883.766	22538
883.892	22489
884.018	22519
884.143	22656
884.269	22653
884.395	22352
884.52	22382
884.646	22360
884.772	22314
884.897	22185
885.023	22375
885.148	22322
885.274	22436
885.399	22363
885.524	22265
885.65	22333
885.775	22265
885.9	22363
886.025	22329
886.15	22287
886.275	22139
886.4	22246
886.525	22207
886.65	22147
886.775	22344
886.9	22230
887.025	22386
887.149	22314
887.274	22048
887.399	22048
887.523	22074
887.648	22067
887.773	22044
887.897	22287
888.021	22139
888.146	22002
888.27	22101
888.395	22112
888.519	22128
888.643	22131
888.767	22093
888.891	21930
889.015	21880
889.139	21850
889.263	21895
889.387	21846
889.511	22063
889.635	21884
889.759	21785
889.883	21778
890.006	21983
890.13	21934
890.254	21694
890.377	21850
890.501	21606
890.624	21561
890.748	21549
890.871	21504
890.995	21386
891.118	21367
891.241	21420
891.364	21393
891.488	21523
891.611	21340
891.734	21321
891.857	21374
891.98	21382
892.103	21431
892.226	21382
892.349	21291
892.471	21070
892.594	21378
892.717	21408
892.839	21230
892.962	21298
893.085	21378
893.207	21256
893.33	21230
893.452	21146
893.575	21268
893.697	21237
893.819	21447
893.941	21458
894.064	21481
894.186	21203
894.308	21306
894.43	21363
894.552	21439
894.674	21302
894.796	21100
894.918	21264
895.04	21165
895.161	21359
895.283	21306
895.405	21241
895.526	21313
895.648	21173
895.769	21306
895.891	21241
896.012	21249
896.134	21294
896.255	21260
896.376	21283
896.498	21268
896.619	21272
896.74	21230
896.861	21325
896.982	21443
897.103	21800
897.224	21439
897.345	21488
897.466	21428
897.587	21454
897.708	21568
897.828	21564
897.949	21435
898.07	21298
898.19	21348
898.311	21485
898.431	21329
898.552	21477
898.672	21488
898.792	21393
898.913	21454
899.033	21287
899.153	21188
899.273	21032
899.393	21203
899.513	21176
899.633	21176
899.753	21116
899.873	21047
899.993	21127
900.113	20986
900.232	21142
900.352	21051
900.472	20899
900.591	20880
900.711	20956
900.83	20849
900.95	20998
901.069	21055
901.189	20834
901.308	20644
901.427	20598
901.546	20537
901.665	20583
901.784	20480
901.904	20366
902.023	20187
902.141	20119
902.26	20043
902.379	20142
902.498	19978
902.617	19959
902.735	20077
902.854	20012
902.973	19963
903.091	19643
903.21	19628
903.328	19681
903.446	19632
903.565	19430
903.683	19400
903.801	19384
903.919	19422
904.038	19358
904.156	19259
904.274	19320
904.392	19206
904.51	19324
904.627	19137
904.745	19278
904.863	19148
904.981	18932
905.098	18890
905.216	18924
905.334	18928
905.451	18913
905.569	18882
905.686	19019
905.803	18867
905.921	18642
906.038	18779
906.155	18772
906.272	18566
906.389	18608
906.506	18479
906.623	18467
906.74	18456
906.857	18342
906.974	18254
907.091	18395
907.208	18555
907.324	18441
907.441	18350
907.557	18121
907.674	18102
907.79	18053
907.907	18015
908.023	18152
908.139	18201
908.256	18095
908.372	17939
908.488	17942
908.604	17901
908.72	17760
908.836	17805
908.952	17726
909.068	17832
909.184	17809
909.3	17821
909.415	17874
909.531	17809
909.647	17547
909.762	17444
909.878	17505
909.993	17509
910.108	17596
910.224	17410
910.339	17402
910.454	17417
910.57	17288
910.685	17200
910.8	17608
910.915	17444
911.03	17311
911.145	17140
911.259	17185
911.374	17143
911.489	17075
911.604	16972
911.718	16805
911.833	16911
911.947	16774
912.062	16660
912.176	16858
912.291	16862
912.405	16812
912.519	16938
912.633	17033
912.748	16976
912.862	16774
912.976	16713
913.09	16554
913.204	16630
913.318	16675
913.431	16786
913.545	16664
913.659	16710
913.772	16565
913.886	16474
914	16447
914.113	16519
914.226	16527
914.34	16455
914.453	16356
914.566	16462
914.68	16284
914.793	16268
914.906	16188
915.019	16010
915.132	15979
915.245	15975
915.358	16059
915.47	16048
915.583	16074
915.696	16093
915.809	16048
915.921	16196
916.034	16021
916.146	15945
916.259	15937
916.371	15994
916.483	15892
916.595	15789
916.708	15888
916.82	15804
916.932	15774
917.044	15739
917.156	15770
917.268	15682
917.38	15682
917.491	15553
917.603	15652
917.715	15778
917.826	15671
917.938	15633
918.049	15523
918.161	15523
918.272	15717
918.384	15751
918.495	15454
918.606	15397
918.717	15382
918.828	15370
918.939	15355
919.05	15325
919.161	15336
919.272	15085
919.383	15195
919.494	15386
919.604	15553
919.715	15405
919.826	15203
919.936	15378
920.047	15393
920.157	15214
920.267	15473
920.378	15401
920.488	15306
920.598	15477
920.708	15675
920.818	15336
920.928	15351
921.038	15622
921.148	15576
921.258	15252
921.368	15165
921.477	15074
921.587	15062
921.697	14906
921.806	15150
921.916	14933
922.025	14883
922.134	14716
922.244	14636
922.353	14659
922.462	14518
922.571	14530
922.68	14282
922.789	14393
922.898	14282
923.007	14206
923.116	14370
923.224	14252
923.333	14225
923.442	14130
923.55	14183
923.659	14081
923.767	14237
923.876	14111
923.984	14115
924.092	14012
924.201	13997
924.309	14008
924.417	13967
924.525	13944
924.633	14024
924.741	14842
924.849	13803
924.956	13822
925.064	13734
925.172	13616
925.279	13639
925.387	13708
925.494	13666
925.602	13807
925.709	13704
925.816	13533
925.924	13571
926.031	13662
926.138	13662
926.245	13685
926.352	13544
926.459	13723
926.566	13636
926.673	13601
926.779	13346
926.886	13362
926.993	13266
927.099	13228
927.206	13221
927.312	13133
927.419	13301
927.525	13198
927.631	13263
927.737	13099
927.843	13095
927.95	13069
928.056	13046
928.162	12996
928.267	13149
928.373	13571
928.479	13095
928.585	12890
928.69	13008
928.796	13042
928.901	12897
929.007	12711
929.112	12776
929.218	12738
929.323	12817
929.428	12753
929.533	12829
929.638	12665
929.743	12654
929.848	12715
929.953	12696
930.058	12574
930.163	12334
930.267	12384
930.372	12525
930.477	12327
930.581	12582
930.685	12388
930.79	12277
930.894	12270
930.998	12254
931.103	12338
931.207	12068
931.311	11931
931.415	11843
931.519	11646
931.623	11661
