Data from test_V78500241_2928.txt Node
Date: Fri Mar 25 16:02:05 CST 2022
User: usil
Spectrometer: V785-0024
Trigger mode: 0
Integration Time (sec): 4.000000E-1
Scans to average: 1
Nonlinearity correction enabled: false
Boxcar width: 0
Storing dark spectrum: false
XAxis mode: Wavelengths
Number of Pixels in Spectrum: 1024
>>>>>Begin Spectral Data<<<<<
801.071	28702
801.214	28554
801.356	28405
801.499	28234
801.641	28238
801.783	28234
801.926	28276
802.068	28177
802.211	28070
802.353	28154
802.496	27899
802.638	27922
802.78	27846
802.923	27964
803.065	27755
803.208	27766
803.35	27907
803.492	28044
803.635	28181
803.777	28063
803.919	28101
804.061	28447
804.204	28299
804.346	28200
804.488	28093
804.63	28070
804.773	28059
804.915	28166
805.057	28299
805.199	28143
805.341	28234
805.483	28470
805.626	28306
805.768	28219
805.91	28215
806.052	28348
806.194	28341
806.336	28550
806.478	28207
806.62	28234
806.762	28493
806.904	28622
807.046	28797
807.188	28755
807.33	28809
807.472	28740
807.614	28744
807.756	28797
807.898	28596
808.04	28516
808.182	28592
808.324	28771
808.465	28584
808.607	28980
808.749	29029
808.891	29124
809.033	29166
809.174	28915
809.316	29052
809.458	29060
809.6	28919
809.741	29071
809.883	29086
810.025	29353
810.166	29345
810.308	29292
810.45	29235
810.591	29178
810.733	28995
810.875	29181
811.016	28919
811.158	28892
811.299	29212
811.441	29159
811.582	29113
811.724	29086
811.865	29246
812.007	29067
812.148	29075
812.29	29208
812.431	29349
812.573	29318
812.714	29528
812.855	29573
812.997	29691
813.138	29733
813.279	29577
813.421	29520
813.562	29463
813.703	29387
813.845	29181
813.986	28965
814.127	28793
814.268	28702
814.41	28733
814.551	28763
814.692	28809
814.833	28744
814.974	28535
815.115	28653
815.256	28679
815.397	28660
815.539	28531
815.68	28538
815.821	28398
815.962	28596
816.103	28519
816.244	28531
816.385	28405
816.526	28257
816.666	27983
816.807	28105
816.948	28067
817.089	28147
817.23	28044
817.371	27998
817.512	27934
817.653	27983
817.793	27949
817.934	28051
818.075	28204
818.216	28105
818.356	27991
818.497	27979
818.638	27736
818.778	27797
818.919	27918
819.06	27895
819.2	27914
819.341	27880
819.481	28029
819.622	28139
819.762	28436
819.903	28272
820.043	28318
820.184	28131
820.324	28101
820.465	28234
820.605	28318
820.746	28109
820.886	27960
821.026	27998
821.167	28059
821.307	28093
821.447	28090
821.588	27854
821.728	27743
821.868	27591
822.008	27511
822.149	27534
822.289	27473
822.429	27386
822.569	27294
822.709	27138
822.849	27036
822.99	27036
823.13	26960
823.27	27005
823.41	26750
823.55	26667
823.69	26971
823.83	26979
823.97	26727
824.11	26701
824.25	26609
824.389	26648
824.529	26750
824.669	26731
824.809	26811
824.949	26838
825.089	26811
825.228	26689
825.368	26492
825.508	26579
825.648	26602
825.787	26594
825.927	26587
826.067	26609
826.206	26682
826.346	26590
826.485	26674
826.625	26511
826.765	26564
826.904	26568
827.044	26286
827.183	26404
827.323	26355
827.462	26381
827.601	26324
827.741	26347
827.88	26290
828.02	26183
828.159	26145
828.298	26362
828.437	26355
828.577	26172
828.716	26317
828.855	26229
828.994	26020
829.134	25902
829.273	25944
829.412	25989
829.551	26020
829.69	26054
829.829	25947
829.968	26088
830.107	26065
830.246	25894
830.385	25925
830.524	25890
830.663	25826
830.802	25769
830.941	25506
831.08	25548
831.219	25731
831.357	25613
831.496	25769
831.635	25620
831.774	25502
831.913	25422
832.051	25464
832.19	25388
832.329	25415
832.467	25266
832.606	25255
832.744	25129
832.883	25278
833.022	25141
833.16	25270
833.299	25358
833.437	25282
833.576	25263
833.714	25255
833.852	25377
833.991	25308
834.129	25445
834.267	25388
834.406	25282
834.544	25384
834.682	25221
834.821	25118
834.959	25468
835.097	25251
835.235	25346
835.373	25289
835.511	25457
835.65	25369
835.788	25156
835.926	25145
836.064	24901
836.202	24920
836.34	25088
836.478	25145
836.615	24996
836.753	25061
836.891	25247
837.029	25122
837.167	25095
837.305	24935
837.443	24958
837.58	24810
837.718	25084
837.856	24886
837.993	24932
838.131	25000
838.269	24798
838.406	24943
838.544	24741
838.681	24669
838.819	24688
838.956	24365
839.094	24433
839.231	24536
839.369	24593
839.506	24829
839.643	24627
839.781	24498
839.918	24361
840.055	24323
840.193	24403
840.33	24311
840.467	24327
840.604	24429
840.742	24715
840.879	24159
841.016	24178
841.153	24197
841.29	24452
841.427	24330
841.564	24334
841.701	24365
841.838	24365
841.975	24087
842.112	24323
842.249	24038
842.385	23969
842.522	24266
842.659	24262
842.796	24091
842.933	24155
843.069	23904
843.206	24060
843.343	24201
843.479	24083
843.616	24079
843.752	23794
843.889	23832
844.025	23851
844.162	23923
844.298	23882
844.435	23866
844.571	23878
844.708	24007
844.844	23996
844.98	23954
845.117	23980
845.253	23840
845.389	23707
845.525	23760
845.661	23760
845.798	23547
845.934	23722
846.07	23531
846.206	23611
846.342	23672
846.478	23581
846.614	23231
846.75	23258
846.886	23311
847.022	23467
847.158	23368
847.294	23341
847.429	23345
847.565	23322
847.701	23589
847.837	22999
847.972	23033
848.108	23162
848.244	23174
848.379	22847
848.515	22972
848.65	22824
848.786	22900
848.921	23029
849.057	22999
849.192	22889
849.328	22843
849.463	22991
849.598	22915
849.734	22828
849.869	22725
850.004	22801
850.14	22664
850.275	22691
850.41	22584
850.545	22725
850.68	22645
850.815	22713
850.95	22649
851.085	22831
851.22	22763
851.355	22577
851.49	22565
851.625	22546
851.76	22641
851.895	22504
852.03	22656
852.165	22607
852.299	22687
852.434	22691
852.569	22634
852.703	22687
852.838	22656
852.973	22755
853.107	22854
853.242	22637
853.376	22497
853.511	22333
853.645	22500
853.78	22516
853.914	22500
854.048	22363
854.183	22443
854.317	22622
854.451	22675
854.585	22538
854.72	22436
854.854	22538
854.988	22538
855.122	22508
855.256	22276
855.39	22447
855.524	22637
855.658	22478
855.792	22630
855.926	22512
856.06	22516
856.194	22569
856.327	22356
856.461	22405
856.595	22447
856.729	22508
856.862	22603
856.996	22417
857.13	22561
857.263	22630
857.397	22603
857.53	22413
857.664	22398
857.797	22557
857.931	22626
858.064	22409
858.197	22622
858.331	22474
858.464	22405
858.597	22348
858.731	22519
858.864	22379
858.997	22421
859.13	22519
859.263	22470
859.396	22573
859.529	22417
859.662	22497
859.795	22470
859.928	22512
860.061	22557
860.194	22691
860.327	22493
860.46	22577
860.592	22497
860.725	22675
860.858	22599
860.99	22371
861.123	22466
861.256	22413
861.388	22360
861.521	23056
861.653	22356
861.786	22352
861.918	22405
862.05	22337
862.183	22306
862.315	22447
862.447	22508
862.58	22348
862.712	22299
862.844	22124
862.976	22211
863.108	22261
863.24	22611
863.372	22143
863.504	22207
863.636	22154
863.768	22234
863.9	22299
864.032	22131
864.164	22135
864.296	22253
864.428	22360
864.559	22238
864.691	22265
864.823	22147
864.954	22219
865.086	22044
865.217	22078
865.349	22063
865.48	22082
865.612	22055
865.743	22257
865.875	22120
866.006	21975
866.137	22067
866.269	22074
866.4	22131
866.531	21899
866.662	21953
866.793	22029
866.924	21926
867.055	22112
867.186	21991
867.317	21842
867.448	21949
867.579	22059
867.71	21842
867.841	22044
867.972	21941
868.103	21972
868.233	21953
868.364	22032
868.495	22025
868.625	22230
868.756	22405
868.886	22185
869.017	22169
869.147	22223
869.278	22519
869.408	22211
869.539	22204
869.669	22265
869.799	22310
869.929	22272
870.06	22287
870.19	22428
870.32	22474
870.45	22622
870.58	22744
870.71	22691
870.84	22672
870.97	22706
871.1	22656
871.23	22790
871.36	22957
871.489	22634
871.619	22744
871.749	22733
871.879	22710
872.008	23029
872.138	23006
872.267	22862
872.397	22790
872.526	22500
872.656	22698
872.785	22584
872.915	22930
873.044	22847
873.173	22847
873.303	22930
873.432	22881
873.561	22949
873.69	22885
873.819	22892
873.948	23041
874.077	22843
874.206	22889
874.335	22809
874.464	22953
874.593	23079
874.722	23121
874.851	23132
874.979	23090
875.108	22980
875.237	23178
875.365	23075
875.494	23067
875.623	23143
875.751	22968
875.88	23003
876.008	23189
876.136	23273
876.265	23486
876.393	23672
876.521	23665
876.65	23573
876.778	23562
876.906	23551
877.034	23322
877.162	23356
877.29	23372
877.418	23356
877.546	23368
877.674	23448
877.802	23501
877.93	23429
878.058	23383
878.185	23345
878.313	23547
878.441	23414
878.568	23254
878.696	23360
878.824	23311
878.951	23448
879.079	23665
879.206	23707
879.333	23497
879.461	23478
879.588	23524
879.715	23570
879.842	23585
879.97	23589
880.097	23200
880.224	23193
880.351	23315
880.478	23212
880.605	23261
880.732	23220
880.859	23452
880.986	23303
881.112	23296
881.239	23155
881.366	22991
881.493	22873
881.619	22771
881.746	22801
881.872	22828
881.999	22679
882.125	22816
882.252	22778
882.378	22736
882.505	22752
882.631	22634
882.757	22447
882.883	22531
883.01	22489
883.136	22405
883.262	22402
883.388	22249
883.514	22432
883.64	22451
883.766	22436
883.892	22257
884.018	22219
884.143	22325
884.269	22436
884.395	22139
884.52	22059
884.646	22116
884.772	22036
884.897	22067
885.023	22097
885.148	22185
885.274	22131
885.399	22287
885.524	22116
885.65	22097
885.775	22143
885.9	22048
886.025	22265
886.15	22200
886.275	22086
886.4	22063
886.525	22120
886.65	22002
886.775	21934
886.9	22124
887.025	22405
887.149	21991
887.274	21983
887.399	21778
887.523	21918
887.648	21793
887.773	21709
887.897	21831
888.021	21819
888.146	21705
888.27	21949
888.395	21831
888.519	21937
888.643	21937
888.767	21823
888.891	21827
889.015	21648
889.139	21618
889.263	21557
889.387	21766
889.511	21736
889.635	21747
889.759	21671
889.883	21633
890.006	21603
890.13	21713
890.254	21614
890.377	21595
890.501	21405
890.624	21355
890.748	21340
890.871	21275
890.995	21245
891.118	21066
891.241	21203
891.364	21275
891.488	21233
891.611	21192
891.734	21279
891.857	21386
891.98	21249
892.103	21275
892.226	21176
892.349	21123
892.471	20941
892.594	21173
892.717	21150
892.839	21180
892.962	21051
893.085	21096
893.207	21192
893.33	21001
893.452	21043
893.575	21188
893.697	21051
893.819	21188
893.941	21237
894.064	21154
894.186	21081
894.308	20982
894.43	21127
894.552	21218
894.674	21199
894.796	20982
894.918	21074
895.04	20937
895.161	21089
895.283	21093
895.405	21123
895.526	21017
895.648	21081
895.769	21070
895.891	20963
896.012	21131
896.134	21169
896.255	21047
896.376	21036
896.498	21081
896.619	21047
896.74	20956
896.861	21188
896.982	21332
897.103	21424
897.224	21355
897.345	21245
897.466	21214
897.587	21336
897.708	21435
897.828	21249
897.949	21256
898.07	21005
898.19	21173
898.311	21321
898.431	21214
898.552	21249
898.672	21424
898.792	21275
898.913	21245
899.033	21032
899.153	21089
899.273	20887
899.393	21104
899.513	21119
899.633	20994
899.753	21020
899.873	20807
899.993	21138
900.113	20956
900.232	20967
900.352	21005
900.472	20845
900.591	20678
900.711	20834
900.83	20636
900.95	20880
901.069	20872
901.189	20670
901.308	20412
901.427	20366
901.546	20339
901.665	20282
901.784	20381
901.904	20187
902.023	20142
902.141	19932
902.26	19833
902.379	19967
902.498	19807
902.617	19814
902.735	19868
902.854	19921
902.973	19632
903.091	19525
903.21	19480
903.328	19525
903.446	19449
903.565	19320
903.683	19282
903.801	19327
903.919	19175
904.038	19228
904.156	19099
904.274	19179
904.392	19053
904.51	19099
904.627	19088
904.745	19095
904.863	19061
904.981	18871
905.098	18715
905.216	18692
905.334	18757
905.451	18833
905.569	18642
905.686	18707
905.803	18650
905.921	18570
906.038	18540
906.155	18479
906.272	18506
906.389	18414
906.506	18224
906.623	18258
906.74	18209
906.857	18133
906.974	18262
907.091	18342
907.208	18353
907.324	18190
907.441	18121
907.557	18003
907.674	17893
907.79	17954
907.907	17889
908.023	17939
908.139	17912
908.256	17817
908.372	17805
908.488	17927
908.604	17737
908.72	17653
908.836	17668
908.952	17623
909.068	17802
909.184	17798
909.3	17581
909.415	17630
909.531	17566
909.647	17433
909.762	17421
909.878	17421
909.993	17383
910.108	17410
910.224	17299
910.339	17387
910.454	17212
910.57	17147
910.685	17048
910.8	17269
910.915	17322
911.03	17132
911.145	16949
911.259	16904
911.374	16949
911.489	16774
911.604	16793
911.718	16706
911.833	16649
911.947	16599
912.062	16504
912.176	16691
912.291	16668
912.405	16793
912.519	16763
912.633	16896
912.748	16668
912.862	16558
912.976	16478
913.09	16402
913.204	16428
913.318	16455
913.431	16607
913.545	16592
913.659	16546
913.772	16421
913.886	16352
914	16287
914.113	16451
914.226	16417
914.34	16322
914.453	16204
914.566	16268
914.68	16181
914.793	16044
914.906	15960
915.019	15869
915.132	15739
915.245	15937
915.358	15816
915.47	15892
915.583	15873
915.696	15892
915.809	15926
915.921	15899
916.034	15679
916.146	15720
916.259	15793
916.371	15827
916.483	15804
916.595	15724
916.708	15709
916.82	15694
916.932	15679
917.044	15603
917.156	15568
917.268	15401
917.38	15549
917.491	15526
917.603	15488
917.715	15519
917.826	15526
917.938	15431
918.049	15367
918.161	15504
918.272	15481
918.384	15466
918.495	15443
918.606	15272
918.717	15283
918.828	15138
918.939	15211
919.05	15116
919.161	15165
919.272	15051
919.383	15058
919.494	15268
919.604	15336
919.715	15260
919.826	15275
919.936	15138
920.047	15161
920.157	15150
920.267	15214
920.378	15161
920.488	15161
920.598	15294
920.708	15435
920.818	15336
920.928	15180
921.038	15431
921.148	15481
921.258	15188
921.368	15032
921.477	14956
921.587	14902
921.697	14743
921.806	14929
921.916	14758
922.025	14571
922.134	14564
922.244	14473
922.353	14564
922.462	14396
922.571	14434
922.68	14180
922.789	14149
922.898	14210
923.007	14130
923.116	14244
923.224	14191
923.333	14046
923.442	14073
923.55	13963
923.659	14103
923.767	14039
923.876	13940
923.984	14024
924.092	13830
924.201	13875
924.309	13890
924.417	13936
924.525	13765
924.633	13811
924.741	14754
924.849	13502
924.956	13715
925.064	13613
925.172	13544
925.279	13529
925.387	13571
925.494	13601
925.602	13712
925.709	13529
925.816	13464
925.924	13419
926.031	13495
926.138	13506
926.245	13537
926.352	13415
926.459	13616
926.566	13521
926.673	13304
926.779	13365
926.886	13213
926.993	13088
927.099	13156
927.206	13080
927.312	12993
927.419	13080
927.525	13061
927.631	13069
927.737	12932
927.843	12848
927.95	12821
928.056	12901
928.162	12817
928.267	12951
928.373	13556
928.479	12996
928.585	12726
928.69	12871
928.796	12901
928.901	12749
929.007	12692
929.112	12776
929.218	12764
929.323	12688
929.428	12513
929.533	12738
929.638	12506
929.743	12612
929.848	12502
929.953	12570
930.058	12513
930.163	12319
930.267	12407
930.372	12426
930.477	12254
930.581	12498
930.685	12311
930.79	12171
930.894	12224
930.998	12232
931.103	12205
931.207	11878
931.311	11878
931.415	11760
931.519	11512
931.623	11452
