Data from test_V78500241_935.txt Node
Date: Fri Mar 25 15:48:16 CST 2022
User: usil
Spectrometer: V785-0024
Trigger mode: 0
Integration Time (sec): 4.000000E-1
Scans to average: 1
Nonlinearity correction enabled: false
Boxcar width: 0
Storing dark spectrum: false
XAxis mode: Wavelengths
Number of Pixels in Spectrum: 1024
>>>>>Begin Spectral Data<<<<<
801.071	28637
801.214	28489
801.356	28325
801.499	28230
801.641	28059
801.783	28188
801.926	28173
802.068	28143
802.211	28086
802.353	27895
802.496	27903
802.638	27823
802.78	27682
802.923	27713
803.065	27648
803.208	27808
803.35	27720
803.492	27713
803.635	27964
803.777	27850
803.919	28078
804.061	28432
804.204	28044
804.346	28032
804.488	27888
804.63	27892
804.773	27873
804.915	27998
805.057	28181
805.199	28017
805.341	27937
805.483	28181
805.626	27998
805.768	27865
805.91	28059
806.052	28059
806.194	28078
806.336	28322
806.478	28200
806.62	28082
806.762	28405
806.904	28424
807.046	28668
807.188	28561
807.33	28531
807.472	28649
807.614	28443
807.756	28443
807.898	28455
808.04	28542
808.182	28478
808.324	28474
808.465	28611
808.607	28752
808.749	28771
808.891	28942
809.033	29018
809.174	28938
809.316	28771
809.458	28812
809.6	28869
809.741	28965
809.883	29018
810.025	29132
810.166	29166
810.308	29098
810.45	29124
810.591	29041
810.733	28854
810.875	28908
811.016	28763
811.158	28740
811.299	29029
811.441	29124
811.582	29022
811.724	28991
811.865	28805
812.007	28828
812.148	28866
812.29	28946
812.431	29124
812.573	29299
812.714	29425
812.855	29410
812.997	29554
813.138	29623
813.279	29573
813.421	29493
813.562	29379
813.703	29239
813.845	29124
813.986	28843
814.127	28660
814.268	28645
814.41	28683
814.551	28717
814.692	28653
814.833	28596
814.974	28561
815.115	28550
815.256	28615
815.397	28413
815.539	28371
815.68	28303
815.821	28261
815.962	28497
816.103	28386
816.244	28276
816.385	28363
816.526	28219
816.666	27968
816.807	27812
816.948	27979
817.089	28032
817.23	27880
817.371	27953
817.512	27808
817.653	28017
817.793	27892
817.934	27972
818.075	27907
818.216	27941
818.356	27926
818.497	27682
818.638	27656
818.778	27500
818.919	27698
819.06	27762
819.2	27793
819.341	27873
819.481	27873
819.622	28055
819.762	28181
819.903	28200
820.043	28013
820.184	28036
820.324	27968
820.465	28166
820.605	27899
820.746	28051
820.886	27808
821.026	27899
821.167	27918
821.307	28070
821.447	27968
821.588	27857
821.728	27759
821.868	27637
822.008	27245
822.149	27424
822.289	27317
822.429	27176
822.569	26952
822.709	27096
822.849	26933
822.99	26868
823.13	26834
823.27	26765
823.41	26705
823.55	26552
823.69	26629
823.83	26636
823.97	26640
824.11	26552
824.25	26526
824.389	26503
824.529	26590
824.669	26587
824.809	26724
824.949	26682
825.089	26655
825.228	26503
825.368	26412
825.508	26423
825.648	26343
825.787	26473
825.927	26480
826.067	26427
826.206	26465
826.346	26613
826.485	26423
826.625	26275
826.765	26518
826.904	26518
827.044	26271
827.183	26161
827.323	26115
827.462	26195
827.601	25982
827.741	26221
827.88	26153
828.02	25974
828.159	26183
828.298	26081
828.437	26351
828.577	26142
828.716	26153
828.855	25871
828.994	25799
829.134	25906
829.273	25898
829.412	25761
829.551	25696
829.69	25791
829.829	25757
829.968	25944
830.107	25906
830.246	25890
830.385	25677
830.524	25757
830.663	25639
830.802	25586
830.941	25388
831.08	25533
831.219	25476
831.357	25563
831.496	25677
831.635	25358
831.774	25434
831.913	25415
832.051	25228
832.19	25206
832.329	25297
832.467	25198
832.606	25046
832.744	25110
832.883	25088
833.022	25019
833.16	25133
833.299	25122
833.437	25088
833.576	25209
833.714	25259
833.852	25251
833.991	25129
834.129	25388
834.267	25217
834.406	25259
834.544	25244
834.682	25228
834.821	25137
834.959	25346
835.097	25137
835.235	25247
835.373	25012
835.511	25164
835.65	24935
835.788	25015
835.926	24913
836.064	24734
836.202	24760
836.34	24947
836.478	25110
836.615	24859
836.753	25008
836.891	25076
837.029	24947
837.167	24947
837.305	24878
837.443	24840
837.58	24726
837.718	24798
837.856	24901
837.993	24707
838.131	24696
838.269	24692
838.406	24821
838.544	24563
838.681	24483
838.819	24460
838.956	24334
839.094	24338
839.231	24346
839.369	24582
839.506	24658
839.643	24498
839.781	24361
839.918	24334
840.055	24243
840.193	24315
840.33	24319
840.467	24327
840.604	24292
840.742	24498
840.879	24068
841.016	24171
841.153	24178
841.29	24365
841.427	24064
841.564	24171
841.701	24163
841.838	24334
841.975	24022
842.112	24148
842.249	24015
842.385	23885
842.522	24117
842.659	23889
842.796	23958
842.933	23973
843.069	23927
843.206	23817
843.343	23999
843.479	23843
843.616	23977
843.752	23695
843.889	23707
844.025	23821
844.162	23623
844.298	23863
844.435	23608
844.571	23802
844.708	23771
844.844	23756
844.98	23847
845.117	23775
845.253	23680
845.389	23512
845.525	23585
845.661	23646
845.798	23414
845.934	23585
846.07	23258
846.206	23520
846.342	23535
846.478	23429
846.614	23159
846.75	23102
846.886	23216
847.022	23284
847.158	23200
847.294	23208
847.429	23185
847.565	23193
847.701	23402
847.837	22858
847.972	22869
848.108	22927
848.244	22957
848.379	22850
848.515	22744
848.65	22679
848.786	22759
848.921	22816
849.057	22797
849.192	22889
849.328	22816
849.463	22713
849.598	22656
849.734	22721
849.869	22683
850.004	22565
850.14	22599
850.275	22504
850.41	22367
850.545	22531
850.68	22500
850.815	22504
850.95	22577
851.085	22687
851.22	22675
851.355	22519
851.49	22500
851.625	22451
851.76	22603
851.895	22405
852.03	22485
852.165	22546
852.299	22554
852.434	22603
852.569	22668
852.703	22588
852.838	22599
852.973	22634
853.107	22577
853.242	22443
853.376	22295
853.511	22188
853.645	22211
853.78	22394
853.914	22382
854.048	22341
854.183	22238
854.317	22329
854.451	22592
854.585	22382
854.72	22265
854.854	22310
854.988	22257
855.122	22333
855.256	22200
855.39	22284
855.524	22421
855.658	22394
855.792	22303
855.926	22386
856.06	22398
856.194	22462
856.327	22306
856.461	22306
856.595	22253
856.729	22333
856.862	22470
856.996	22474
857.13	22546
857.263	22493
857.397	22466
857.53	22249
857.664	22417
857.797	22325
857.931	22440
858.064	22402
858.197	22584
858.331	22363
858.464	22322
858.597	22291
858.731	22344
858.864	22265
858.997	22337
859.13	22405
859.263	22341
859.396	22451
859.529	22295
859.662	22363
859.795	22299
859.928	22360
860.061	22519
860.194	22569
860.327	22363
860.46	22325
860.592	22478
860.725	22561
860.858	22455
860.99	22371
861.123	22325
861.256	22371
861.388	22459
861.521	22968
861.653	22181
861.786	22242
861.918	22276
862.05	22177
862.183	22219
862.315	22226
862.447	22318
862.58	22230
862.712	22086
862.844	22097
862.976	22215
863.108	22162
863.24	22470
863.372	22013
863.504	22051
863.636	22055
863.768	22040
863.9	21979
864.032	21968
864.164	21930
864.296	22013
864.428	22257
864.559	22063
864.691	22067
864.823	21991
864.954	21926
865.086	22032
865.217	22002
865.349	21903
865.48	21876
865.612	21854
865.743	22013
865.875	21968
866.006	21941
866.137	22078
866.269	21926
866.4	21850
866.531	21964
866.662	21854
866.793	21854
866.924	21903
867.055	21930
867.186	21838
867.317	21808
867.448	21793
867.579	21808
867.71	21694
867.841	21797
867.972	21827
868.103	21869
868.233	21770
868.364	21869
868.495	21915
868.625	22128
868.756	22128
868.886	22070
869.017	22063
869.147	22215
869.278	22226
869.408	22051
869.539	22154
869.669	22200
869.799	22177
869.929	22287
870.06	22185
870.19	22398
870.32	22367
870.45	22478
870.58	22424
870.71	22626
870.84	22573
870.97	22344
871.1	22428
871.23	22675
871.36	22611
871.489	22516
871.619	22626
871.749	22683
871.879	22805
872.008	22782
872.138	22713
872.267	22675
872.397	22554
872.526	22557
872.656	22569
872.785	22535
872.915	22653
873.044	22748
873.173	22801
873.303	22721
873.432	22790
873.561	22839
873.69	22812
873.819	22763
873.948	22584
874.077	22774
874.206	22664
874.335	22759
874.464	22733
874.593	22965
874.722	22885
874.851	22927
874.979	22968
875.108	22927
875.237	22919
875.365	22793
875.494	22809
875.623	22915
875.751	22885
875.88	23018
876.008	23064
876.136	23064
876.265	23220
876.393	23459
876.521	23288
876.65	23364
876.778	23410
876.906	23326
877.034	23250
877.162	23159
877.29	23170
877.418	23250
877.546	23242
877.674	23322
877.802	23311
877.93	23318
878.058	23258
878.185	23102
878.313	23223
878.441	23143
878.568	23083
878.696	23189
878.824	23360
878.951	23296
879.079	23417
879.206	23478
879.333	23391
879.461	23337
879.588	23433
879.715	23459
879.842	23528
879.97	23250
880.097	23079
880.224	22953
880.351	23056
880.478	23090
880.605	23037
880.732	23102
880.859	23166
880.986	22991
881.112	23140
881.239	22934
881.366	22820
881.493	22710
881.619	22565
881.746	22592
881.872	22641
881.999	22683
882.125	22565
882.252	22565
882.378	22611
882.505	22668
882.631	22565
882.757	22413
882.883	22432
883.01	22314
883.136	22185
883.262	22177
883.388	22154
883.514	22211
883.64	22261
883.766	22154
883.892	22025
884.018	22090
884.143	22188
884.269	22261
884.395	22013
884.52	21899
884.646	22021
884.772	21865
884.897	21816
885.023	21926
885.148	21895
885.274	22181
885.399	22059
885.524	21945
885.65	22017
885.775	21892
885.9	21907
886.025	22093
886.15	21968
886.275	21949
886.4	21797
886.525	21926
886.65	21819
886.775	21865
886.9	22097
887.025	22135
887.149	21816
887.274	21698
887.399	21720
887.523	21759
887.648	21679
887.773	21542
887.897	21831
888.021	21751
888.146	21770
888.27	21816
888.395	21728
888.519	21690
888.643	21739
888.767	21713
888.891	21595
889.015	21492
889.139	21481
889.263	21469
889.387	21759
889.511	21728
889.635	21576
889.759	21477
889.883	21504
890.006	21542
890.13	21599
890.254	21378
890.377	21431
890.501	21325
890.624	21272
890.748	21154
890.871	21222
890.995	21077
891.118	21039
891.241	21051
891.364	21104
891.488	21169
891.611	21047
891.734	21192
891.857	21100
891.98	21093
892.103	21089
892.226	21218
892.349	20910
892.471	20811
892.594	20948
892.717	20956
892.839	20960
892.962	21058
893.085	21024
893.207	21001
893.33	20918
893.452	20925
893.575	20906
893.697	20914
893.819	21100
893.941	21150
894.064	21089
894.186	20876
894.308	20765
894.43	21058
894.552	21043
894.674	21039
894.796	20864
894.918	20910
895.04	20887
895.161	21043
895.283	20933
895.405	20967
895.526	20990
895.648	20887
895.769	20918
895.891	20883
896.012	21085
896.134	21009
896.255	20982
896.376	20963
896.498	20979
896.619	20979
896.74	21013
896.861	20948
896.982	21245
897.103	21268
897.224	21192
897.345	21157
897.466	21127
897.587	21131
897.708	21317
897.828	21096
897.949	20971
898.07	20975
898.19	20994
898.311	21173
898.431	21039
898.552	21150
898.672	21218
898.792	21173
898.913	21146
899.033	20994
899.153	20891
899.273	20659
899.393	20880
899.513	21055
899.633	20788
899.753	20899
899.873	20785
899.993	20872
900.113	20716
900.232	20849
900.352	20781
900.472	20670
900.591	20579
900.711	20609
900.83	20636
900.95	20746
901.069	20754
901.189	20454
901.308	20290
901.427	20286
901.546	20134
901.665	20172
901.784	20149
901.904	20107
902.023	19963
902.141	19742
902.26	19715
902.379	19788
902.498	19750
902.617	19651
902.735	19658
902.854	19620
902.973	19670
903.091	19438
903.21	19297
903.328	19308
903.446	19324
903.565	19270
903.683	19175
903.801	19000
903.919	19099
904.038	19129
904.156	18878
904.274	18993
904.392	18977
904.51	18840
904.627	18958
904.745	18947
904.863	18867
904.981	18757
905.098	18669
905.216	18559
905.334	18654
905.451	18597
905.569	18593
905.686	18582
905.803	18635
905.921	18388
906.038	18429
906.155	18464
906.272	18228
906.389	18300
906.506	18152
906.623	18182
906.74	18144
906.857	17999
906.974	17992
907.091	18171
907.208	18220
907.324	18076
907.441	17954
907.557	17840
907.674	17897
907.79	17847
907.907	17779
908.023	17752
908.139	17874
908.256	17783
908.372	17710
908.488	17760
908.604	17539
908.72	17444
908.836	17570
908.952	17668
909.068	17623
909.184	17699
909.3	17463
909.415	17478
909.531	17535
909.647	17269
909.762	17261
909.878	17189
909.993	17303
910.108	17197
910.224	17220
910.339	17166
910.454	17037
910.57	17056
910.685	16984
910.8	17208
910.915	17098
911.03	17071
911.145	16828
911.259	16873
911.374	16809
911.489	16812
911.604	16755
911.718	16626
911.833	16523
911.947	16546
912.062	16580
912.176	16519
912.291	16523
912.405	16527
912.519	16793
912.633	16698
912.748	16622
912.862	16592
912.976	16402
913.09	16253
913.204	16375
913.318	16363
913.431	16436
913.545	16474
913.659	16493
913.772	16379
913.886	16166
914	16063
914.113	16226
914.226	16272
914.34	16272
914.453	16067
914.566	16207
914.68	16135
914.793	15975
914.906	15800
915.019	15800
915.132	15705
915.245	15644
915.358	15797
915.47	15778
915.583	15743
915.696	15797
915.809	15903
915.921	15827
916.034	15656
916.146	15648
916.259	15667
916.371	15751
916.483	15682
916.595	15595
916.708	15572
916.82	15610
916.932	15614
917.044	15458
917.156	15458
917.268	15416
917.38	15405
917.491	15344
917.603	15389
917.715	15564
917.826	15492
917.938	15329
918.049	15252
918.161	15431
918.272	15420
918.384	15477
918.495	15344
918.606	15184
918.717	15161
918.828	15157
918.939	15260
919.05	15028
919.161	15195
919.272	14937
919.383	14960
919.494	15214
919.604	15237
919.715	15081
919.826	14975
919.936	15013
920.047	15165
920.157	15058
920.267	15317
920.378	15112
920.488	15020
920.598	15165
920.708	15401
920.818	15207
920.928	15173
921.038	15405
921.148	15363
921.258	14986
921.368	14914
921.477	14788
921.587	14758
921.697	14663
921.806	14849
921.916	14712
922.025	14503
922.134	14431
922.244	14400
922.353	14450
922.462	14370
922.571	14259
922.68	14142
922.789	14020
922.898	14077
923.007	14024
923.116	14103
923.224	14043
923.333	14008
923.442	14020
923.55	13837
923.659	13837
923.767	13951
923.876	13772
923.984	13917
924.092	13818
924.201	13909
924.309	13738
924.417	13776
924.525	13693
924.633	13731
924.741	14636
924.849	13487
924.956	13643
925.064	13544
925.172	13392
925.279	13449
925.387	13518
925.494	13407
925.602	13594
925.709	13491
925.816	13331
925.924	13415
926.031	13594
926.138	13384
926.245	13453
926.352	13308
926.459	13426
926.566	13438
926.673	13263
926.779	13171
926.886	13225
926.993	13012
927.099	12989
927.206	13023
927.312	12924
927.419	13046
927.525	12947
927.631	13015
927.737	13000
927.843	12867
927.95	12745
928.056	12722
928.162	12901
928.267	12882
928.373	13335
928.479	12878
928.585	12585
928.69	12760
928.796	12798
928.901	12608
929.007	12551
929.112	12669
929.218	12601
929.323	12566
929.428	12544
929.533	12650
929.638	12452
929.743	12532
929.848	12547
929.953	12585
930.058	12422
930.163	12266
930.267	12277
930.372	12292
930.477	12175
930.581	12395
930.685	12251
930.79	12106
930.894	12201
930.998	11999
931.103	12197
931.207	11775
931.311	11790
931.415	11649
931.519	11440
931.623	11512
