Data from test_V78500241_948.txt Node
Date: Fri Mar 25 15:48:22 CST 2022
User: usil
Spectrometer: V785-0024
Trigger mode: 0
Integration Time (sec): 4.000000E-1
Scans to average: 1
Nonlinearity correction enabled: false
Boxcar width: 0
Storing dark spectrum: false
XAxis mode: Wavelengths
Number of Pixels in Spectrum: 1024
>>>>>Begin Spectral Data<<<<<
801.071	28535
801.214	28379
801.356	28196
801.499	28040
801.641	28063
801.783	28002
801.926	28105
802.068	28097
802.211	28093
802.353	28021
802.496	27827
802.638	27766
802.78	27743
802.923	27648
803.065	27671
803.208	27637
803.35	27793
803.492	27979
803.635	27991
803.777	27869
803.919	27892
804.061	28295
804.204	27994
804.346	27994
804.488	27873
804.63	27816
804.773	27819
804.915	27979
805.057	28059
805.199	27842
805.341	28219
805.483	28150
805.626	28063
805.768	27979
805.91	28169
806.052	28234
806.194	28090
806.336	28299
806.478	28295
806.62	28017
806.762	28223
806.904	28398
807.046	28824
807.188	28634
807.33	28546
807.472	28603
807.614	28519
807.756	28542
807.898	28466
808.04	28344
808.182	28398
808.324	28409
808.465	28542
808.607	28634
808.749	28763
808.891	28710
809.033	28953
809.174	28957
809.316	28675
809.458	28729
809.6	28946
809.741	28915
809.883	29014
810.025	29315
810.166	29083
810.308	28965
810.45	29090
810.591	29197
810.733	28881
810.875	28713
811.016	28679
811.158	28797
811.299	28900
811.441	29109
811.582	29022
811.724	28930
811.865	28850
812.007	28885
812.148	28782
812.29	28892
812.431	29086
812.573	29246
812.714	29326
812.855	29395
812.997	29558
813.138	29600
813.279	29562
813.421	29493
813.562	29421
813.703	29170
813.845	29105
813.986	28767
814.127	28721
814.268	28504
814.41	28675
814.551	28554
814.692	28717
814.833	28588
814.974	28592
815.115	28664
815.256	28363
815.397	28421
815.539	28512
815.68	28379
815.821	28322
815.962	28428
816.103	28325
816.244	28226
816.385	28040
816.526	28200
816.666	28078
816.807	27846
816.948	27968
817.089	28013
817.23	27831
817.371	27838
817.512	28093
817.653	27846
817.793	27831
817.934	27831
818.075	27861
818.216	27884
818.356	27812
818.497	27823
818.638	27576
818.778	27679
818.919	27682
819.06	27743
819.2	27762
819.341	27972
819.481	27789
819.622	28002
819.762	28287
819.903	28086
820.043	27968
820.184	28055
820.324	28017
820.465	28207
820.605	28139
820.746	27960
820.886	27914
821.026	28067
821.167	28006
821.307	28051
821.447	27823
821.588	27873
821.728	27625
821.868	27447
822.008	27424
822.149	27420
822.289	27420
822.429	27108
822.569	26906
822.709	27001
822.849	26777
822.99	26872
823.13	26823
823.27	26750
823.41	26670
823.55	26655
823.69	26807
823.83	26636
823.97	26674
824.11	26682
824.25	26396
824.389	26484
824.529	26636
824.669	26583
824.809	26686
824.949	26724
825.089	26625
825.228	26545
825.368	26412
825.508	26453
825.648	26503
825.787	26495
825.927	26404
826.067	26358
826.206	26408
826.346	26480
826.485	26492
826.625	26423
826.765	26556
826.904	26362
827.044	26096
827.183	26176
827.323	25974
827.462	26191
827.601	25921
827.741	26043
827.88	26153
828.02	26027
828.159	26058
828.298	26058
828.437	26195
828.577	26005
828.716	26149
828.855	26012
828.994	25944
829.134	25803
829.273	25719
829.412	25761
829.551	25837
829.69	25887
829.829	25883
829.968	25993
830.107	25944
830.246	25791
830.385	25719
830.524	25830
830.663	25643
830.802	25563
830.941	25510
831.08	25369
831.219	25476
831.357	25434
831.496	25552
831.635	25525
831.774	25289
831.913	25343
832.051	25259
832.19	25225
832.329	25255
832.467	25133
832.606	25012
832.744	25076
832.883	25107
833.022	24943
833.16	25076
833.299	25091
833.437	25251
833.576	25217
833.714	25156
833.852	25065
833.991	25217
834.129	25213
834.267	25202
834.406	25171
834.544	25187
834.682	25148
834.821	25148
834.959	25316
835.097	25183
835.235	25133
835.373	25141
835.511	25171
835.65	24890
835.788	25023
835.926	24867
836.064	24878
836.202	24810
836.34	25065
836.478	24989
836.615	24977
836.753	24859
836.891	24894
837.029	24905
837.167	25027
837.305	24810
837.443	24791
837.58	24688
837.718	24806
837.856	24856
837.993	24806
838.131	24882
838.269	24688
838.406	24639
838.544	24623
838.681	24486
838.819	24372
838.956	24213
839.094	24300
839.231	24342
839.369	24350
839.506	24661
839.643	24612
839.781	24171
839.918	24209
840.055	24201
840.193	24235
840.33	24209
840.467	24205
840.604	24232
840.742	24490
840.879	24057
841.016	24110
841.153	24018
841.29	24315
841.427	24220
841.564	24178
841.701	24129
841.838	24007
841.975	23958
842.112	24076
842.249	23939
842.385	23954
842.522	24011
842.659	23984
842.796	23908
842.933	24076
843.069	23961
843.206	23897
843.343	24026
843.479	23901
843.616	23832
843.752	23729
843.889	23703
844.025	23802
844.162	23752
844.298	23691
844.435	23733
844.571	23710
844.708	23745
844.844	23920
844.98	23847
845.117	23863
845.253	23729
845.389	23493
845.525	23691
845.661	23627
845.798	23459
845.934	23433
846.07	23520
846.206	23391
846.342	23539
846.478	23387
846.614	23193
846.75	23193
846.886	23105
847.022	23292
847.158	23136
847.294	23178
847.429	23250
847.565	23117
847.701	23433
847.837	22927
847.972	22843
848.108	22999
848.244	22972
848.379	22790
848.515	22828
848.65	22767
848.786	22984
848.921	22900
849.057	22812
849.192	22820
849.328	22778
849.463	22748
849.598	22702
849.734	22702
849.869	22660
850.004	22546
850.14	22630
850.275	22478
850.41	22470
850.545	22341
850.68	22443
850.815	22664
850.95	22531
851.085	22672
851.22	22580
851.355	22538
851.49	22565
851.625	22386
851.76	22474
851.895	22451
852.03	22360
852.165	22622
852.299	22596
852.434	22630
852.569	22538
852.703	22523
852.838	22637
852.973	22698
853.107	22664
853.242	22485
853.376	22394
853.511	22276
853.645	22280
853.78	22462
853.914	22367
854.048	22261
854.183	22272
854.317	22462
854.451	22569
854.585	22371
854.72	22303
854.854	22379
854.988	22242
855.122	22360
855.256	22158
855.39	22367
855.524	22348
855.658	22356
855.792	22352
855.926	22375
856.06	22379
856.194	22447
856.327	22280
856.461	22291
856.595	22325
856.729	22352
856.862	22360
856.996	22268
857.13	22455
857.263	22436
857.397	22455
857.53	22242
857.664	22409
857.797	22352
857.931	22398
858.064	22531
858.197	22531
858.331	22325
858.464	22291
858.597	22249
858.731	22287
858.864	22124
858.997	22352
859.13	22344
859.263	22489
859.396	22440
859.529	22341
859.662	22257
859.795	22204
859.928	22249
860.061	22546
860.194	22500
860.327	22405
860.46	22443
860.592	22481
860.725	22402
860.858	22348
860.99	22485
861.123	22223
861.256	22207
861.388	22322
861.521	22927
861.653	22238
861.786	22093
861.918	22147
862.05	22173
862.183	22215
862.315	22265
862.447	22413
862.58	22166
862.712	22013
862.844	21964
862.976	22150
863.108	22188
863.24	22360
863.372	22067
863.504	21960
863.636	21987
863.768	21945
863.9	21968
864.032	21888
864.164	22032
864.296	22105
864.428	22086
864.559	22074
864.691	22112
864.823	21991
864.954	22078
865.086	21911
865.217	21930
865.349	21854
865.48	21930
865.612	21926
865.743	22051
865.875	21846
866.006	21956
866.137	22044
866.269	21812
866.4	21899
866.531	21865
866.662	21838
866.793	21873
866.924	21751
867.055	21892
867.186	21903
867.317	21865
867.448	21785
867.579	21846
867.71	21842
867.841	21705
867.972	21857
868.103	21785
868.233	21736
868.364	21838
868.495	21827
868.625	21949
868.756	22169
868.886	22013
869.017	22036
869.147	22200
869.278	22177
869.408	21953
869.539	21983
869.669	22093
869.799	22272
869.929	22124
870.06	22051
870.19	22352
870.32	22337
870.45	22291
870.58	22481
870.71	22611
870.84	22561
870.97	22504
871.1	22493
871.23	22611
871.36	22649
871.489	22519
871.619	22668
871.749	22630
871.879	22675
872.008	22767
872.138	22759
872.267	22618
872.397	22557
872.526	22538
872.656	22459
872.785	22470
872.915	22603
873.044	22771
873.173	22748
873.303	22816
873.432	22611
873.561	22847
873.69	22831
873.819	22573
873.948	22786
874.077	22592
874.206	22660
874.335	22748
874.464	22729
874.593	22968
874.722	22908
874.851	22892
874.979	22877
875.108	22942
875.237	22957
875.365	22733
875.494	22843
875.623	23056
875.751	22854
875.88	22927
876.008	23037
876.136	23181
876.265	23212
876.393	23440
876.521	23288
876.65	23417
876.778	23273
876.906	23311
877.034	23296
877.162	23315
877.29	23094
877.418	23395
877.546	23269
877.674	23326
877.802	23326
877.93	23239
878.058	23265
878.185	23147
878.313	23223
878.441	23311
878.568	23067
878.696	23185
878.824	23220
878.951	23284
879.079	23395
879.206	23421
879.333	23467
879.461	23258
879.588	23482
879.715	23490
879.842	23486
879.97	23250
880.097	23098
880.224	23128
880.351	22987
880.478	22991
880.605	22991
880.732	22949
880.859	23330
880.986	23041
881.112	23094
881.239	22949
881.366	22790
881.493	22752
881.619	22538
881.746	22656
881.872	22611
881.999	22599
882.125	22538
882.252	22634
882.378	22519
882.505	22847
882.631	22489
882.757	22344
882.883	22417
883.01	22242
883.136	22291
883.262	22215
883.388	22158
883.514	22443
883.64	22348
883.766	22196
883.892	22154
884.018	22029
884.143	22238
884.269	22394
884.395	22078
884.52	21895
884.646	21922
884.772	21812
884.897	21918
885.023	21907
885.148	21987
885.274	22093
885.399	22074
885.524	21930
885.65	21842
885.775	22040
885.9	21911
886.025	21998
886.15	21937
886.275	21888
886.4	21857
886.525	21876
886.65	21892
886.775	21869
886.9	22017
887.025	22078
887.149	21983
887.274	21819
887.399	21800
887.523	21705
887.648	21694
887.773	21694
887.897	21720
888.021	21778
888.146	21667
888.27	21785
888.395	21793
888.519	21873
888.643	21633
888.767	21831
888.891	21568
889.015	21466
889.139	21507
889.263	21515
889.387	21561
889.511	21603
889.635	21660
889.759	21412
889.883	21359
890.006	21549
890.13	21564
890.254	21317
890.377	21405
890.501	21218
890.624	21192
890.748	21351
890.871	21199
890.995	21074
891.118	21039
891.241	21085
891.364	21131
891.488	21249
891.611	21093
891.734	21024
891.857	21070
891.98	20986
892.103	21154
892.226	21104
892.349	20906
892.471	20861
892.594	20895
892.717	20941
892.839	21005
892.962	20998
893.085	21074
893.207	20902
893.33	20883
893.452	20899
893.575	20941
893.697	20899
893.819	21009
893.941	21074
894.064	21047
894.186	20781
894.308	20823
894.43	20918
894.552	20838
894.674	20960
894.796	20872
894.918	20895
895.04	20891
895.161	20971
895.283	21020
895.405	20788
895.526	20804
895.648	20880
895.769	20967
895.891	20899
896.012	20982
896.134	21047
896.255	20986
896.376	20853
896.498	20845
896.619	21013
896.74	20838
896.861	20906
896.982	21233
897.103	21340
897.224	21157
897.345	21157
897.466	21051
897.587	21195
897.708	21336
897.828	21176
897.949	21108
898.07	21001
898.19	21028
898.311	21119
898.431	21116
898.552	21070
898.672	21283
898.792	21264
898.913	21207
899.033	21062
899.153	21017
899.273	20845
899.393	20804
899.513	20975
899.633	20849
899.753	20727
899.873	20804
899.993	20853
900.113	20838
900.232	20746
900.352	20849
900.472	20655
900.591	20651
900.711	20686
900.83	20564
900.95	20663
901.069	20750
901.189	20473
901.308	20271
901.427	20119
901.546	20259
901.665	20248
901.784	20073
901.904	20073
902.023	20031
902.141	19795
902.26	19681
902.379	19925
902.498	19799
902.617	19651
902.735	19723
902.854	19708
902.973	19559
903.091	19460
903.21	19358
903.328	19346
903.446	19335
903.565	19137
903.683	19110
903.801	19095
903.919	19084
904.038	19122
904.156	19004
904.274	18989
904.392	19019
904.51	18947
904.627	18871
904.745	18966
904.863	19023
904.981	18711
905.098	18639
905.216	18688
905.334	18585
905.451	18604
905.569	18525
905.686	18646
905.803	18669
905.921	18418
906.038	18509
906.155	18486
906.272	18372
906.389	18319
906.506	18159
906.623	18106
906.74	18125
906.857	18053
906.974	18087
907.091	18205
907.208	18251
907.324	18216
907.441	17999
907.557	17923
907.674	17874
907.79	17748
907.907	17805
908.023	17870
908.139	17840
908.256	17866
908.372	17790
908.488	17699
908.604	17627
908.72	17623
908.836	17497
908.952	17634
909.068	17592
909.184	17680
909.3	17524
909.415	17581
909.531	17535
909.647	17292
909.762	17273
909.878	17261
909.993	17280
910.108	17174
910.224	17231
910.339	17216
910.454	17170
910.57	17155
910.685	17014
910.8	17265
910.915	17170
911.03	17121
911.145	16881
911.259	16850
911.374	16991
911.489	16843
911.604	16615
911.718	16634
911.833	16679
911.947	16489
912.062	16451
912.176	16672
912.291	16611
912.405	16626
912.519	16869
912.633	16793
912.748	16603
912.862	16493
912.976	16493
913.09	16314
913.204	16329
913.318	16481
913.431	16527
913.545	16432
913.659	16558
913.772	16341
913.886	16249
914	16150
914.113	16257
914.226	16268
914.34	16223
914.453	16093
914.566	16147
914.68	16055
914.793	15964
914.906	15873
915.019	15751
915.132	15675
915.245	15808
915.358	15778
915.47	15724
915.583	15819
915.696	15831
915.809	15915
915.921	15926
916.034	15614
916.146	15606
916.259	15633
916.371	15778
916.483	15766
916.595	15553
916.708	15599
916.82	15580
916.932	15580
917.044	15564
917.156	15431
917.268	15435
917.38	15431
917.491	15420
917.603	15466
917.715	15405
917.826	15534
917.938	15344
918.049	15203
918.161	15363
918.272	15431
918.384	15382
918.495	15226
918.606	15165
918.717	15119
918.828	15203
918.939	15272
919.05	15081
919.161	15138
919.272	14834
919.383	14982
919.494	15169
919.604	15378
919.715	15169
919.826	14902
919.936	15093
920.047	15275
920.157	15074
920.267	15233
920.378	15142
920.488	15119
920.598	15237
920.708	15370
920.818	15142
920.928	15176
921.038	15496
921.148	15279
921.258	15039
921.368	14891
921.477	14883
921.587	14834
921.697	14743
921.806	14857
921.916	14606
922.025	14514
922.134	14404
922.244	14495
922.353	14473
922.462	14419
922.571	14317
922.68	14221
922.789	14012
922.898	14081
923.007	14077
923.116	14069
923.224	14103
923.333	14054
923.442	13921
923.55	14020
923.659	13986
923.767	13993
923.876	13928
923.984	14005
924.092	13807
924.201	13894
924.309	13887
924.417	13845
924.525	13776
924.633	13742
924.741	14579
924.849	13499
924.956	13674
925.064	13605
925.172	13487
925.279	13464
925.387	13506
925.494	13510
925.602	13594
925.709	13483
925.816	13472
925.924	13468
926.031	13567
926.138	13438
926.245	13396
926.352	13293
926.459	13518
926.566	13525
926.673	13331
926.779	13149
926.886	13259
926.993	13023
927.099	13065
927.206	12920
927.312	13019
927.419	13088
927.525	13038
927.631	13084
927.737	12909
927.843	12795
927.95	12802
928.056	12791
928.162	12886
928.267	12840
928.373	13502
928.479	12897
928.585	12620
928.69	12726
928.796	12806
928.901	12741
929.007	12612
929.112	12734
929.218	12604
929.323	12608
929.428	12551
929.533	12677
929.638	12506
929.743	12551
929.848	12509
929.953	12601
930.058	12330
930.163	12232
930.267	12220
930.372	12346
930.477	12201
930.581	12452
930.685	12266
930.79	12114
930.894	12125
930.998	12049
931.103	12220
931.207	11870
931.311	11722
931.415	11699
931.519	11551
931.623	11501
