Data from test_V78500241_926.txt Node
Date: Fri Mar 25 15:48:12 CST 2022
User: usil
Spectrometer: V785-0024
Trigger mode: 0
Integration Time (sec): 4.000000E-1
Scans to average: 1
Nonlinearity correction enabled: false
Boxcar width: 0
Storing dark spectrum: false
XAxis mode: Wavelengths
Number of Pixels in Spectrum: 1024
>>>>>Begin Spectral Data<<<<<
801.071	28204
801.214	28082
801.356	27987
801.499	27945
801.641	27850
801.783	27873
801.926	27876
802.068	27876
802.211	27728
802.353	27701
802.496	27553
802.638	27424
802.78	27427
802.923	27462
803.065	27519
803.208	27458
803.35	27610
803.492	27515
803.635	27671
803.777	27561
803.919	27709
804.061	27994
804.204	27835
804.346	27572
804.488	27633
804.63	27580
804.773	27496
804.915	27724
805.057	27823
805.199	27728
805.341	27751
805.483	27808
805.626	27953
805.768	27736
805.91	27648
806.052	27793
806.194	27724
806.336	28166
806.478	27827
806.62	27793
806.762	27899
806.904	28226
807.046	28436
807.188	28310
807.33	28188
807.472	28352
807.614	28219
807.756	28242
807.898	28158
808.04	28124
808.182	28173
808.324	28128
808.465	28162
808.607	28386
808.749	28447
808.891	28580
809.033	28653
809.174	28485
809.316	28382
809.458	28516
809.6	28455
809.741	28569
809.883	28622
810.025	28862
810.166	28900
810.308	28733
810.45	28812
810.591	28592
810.733	28599
810.875	28516
811.016	28386
811.158	28398
811.299	28603
811.441	28668
811.582	28763
811.724	28592
811.865	28432
812.007	28546
812.148	28394
812.29	28596
812.431	28850
812.573	28980
812.714	28965
812.855	29064
812.997	29060
813.138	29334
813.279	29208
813.421	29033
813.562	29003
813.703	28866
813.845	28672
813.986	28493
814.127	28398
814.268	28147
814.41	28261
814.551	28097
814.692	28303
814.833	28109
814.974	28002
815.115	28078
815.256	28070
815.397	27949
815.539	28021
815.68	28036
815.821	28070
815.962	27956
816.103	27949
816.244	27972
816.385	27759
816.526	27835
816.666	27736
816.807	27492
816.948	27686
817.089	27618
817.23	27553
817.371	27660
817.512	27473
817.653	27450
817.793	27492
817.934	27511
818.075	27515
818.216	27511
818.356	27351
818.497	27344
818.638	27287
818.778	27310
818.919	27104
819.06	27382
819.2	27462
819.341	27504
819.481	27473
819.622	27591
819.762	27816
819.903	27892
820.043	27770
820.184	27656
820.324	27682
820.465	27747
820.605	27637
820.746	27648
820.886	27511
821.026	27576
821.167	27629
821.307	27622
821.447	27622
821.588	27378
821.728	27386
821.868	27157
822.008	26906
822.149	27074
822.289	26960
822.429	26743
822.569	26701
822.709	26670
822.849	26682
822.99	26541
823.13	26465
823.27	26560
823.41	26415
823.55	26248
823.69	26389
823.83	26336
823.97	26309
824.11	26111
824.25	26088
824.389	26134
824.529	26263
824.669	26107
824.809	26317
824.949	26138
825.089	26298
825.228	26332
825.368	25974
825.508	25951
825.648	25963
825.787	26046
825.927	26111
826.067	26126
826.206	26126
826.346	26081
826.485	26096
826.625	25928
826.765	26073
826.904	26024
827.044	25757
827.183	25856
827.323	25647
827.462	25811
827.601	25879
827.741	25689
827.88	25658
828.02	25674
828.159	25670
828.298	25769
828.437	25788
828.577	25715
828.716	25788
828.855	25586
828.994	25445
829.134	25468
829.273	25506
829.412	25369
829.551	25354
829.69	25285
829.829	25449
829.968	25438
830.107	25453
830.246	25438
830.385	25453
830.524	25327
830.663	25312
830.802	25206
830.941	25065
831.08	24985
831.219	25027
831.357	25137
831.496	25479
831.635	24920
831.774	25050
831.913	24837
832.051	24875
832.19	24776
832.329	24856
832.467	24738
832.606	24741
832.744	24642
832.883	24734
833.022	24665
833.16	24650
833.299	24646
833.437	24707
833.576	24913
833.714	24825
833.852	24806
833.991	24833
834.129	24768
834.267	24791
834.406	24711
834.544	24741
834.682	24852
834.821	24856
834.959	24977
835.097	24749
835.235	24863
835.373	24738
835.511	24711
835.65	24585
835.788	24597
835.926	24464
836.064	24403
836.202	24410
836.34	24601
836.478	24711
836.615	24608
836.753	24536
836.891	24654
837.029	24696
837.167	24433
837.305	24494
837.443	24467
837.58	24418
837.718	24532
837.856	24559
837.993	24357
838.131	24475
838.269	24311
838.406	24327
838.544	24292
838.681	24129
838.819	24049
838.956	23843
839.094	23882
839.231	23851
839.369	24136
839.506	24186
839.643	24155
839.781	23863
839.918	23961
840.055	23992
840.193	23908
840.33	23783
840.467	23836
840.604	23885
840.742	24091
840.879	23805
841.016	23771
841.153	23638
841.29	23988
841.427	23843
841.564	23741
841.701	23783
841.838	23752
841.975	23737
842.112	23695
842.249	23779
842.385	23543
842.522	23866
842.659	23558
842.796	23528
842.933	23592
843.069	23406
843.206	23524
843.343	23512
843.479	23463
843.616	23474
843.752	23303
843.889	23372
844.025	23581
844.162	23273
844.298	23307
844.435	23258
844.571	23345
844.708	23395
844.844	23531
844.98	23452
845.117	23406
845.253	23254
845.389	23277
845.525	23239
845.661	23235
845.798	23140
845.934	23128
846.07	23003
846.206	23083
846.342	23273
846.478	22995
846.614	23052
846.75	22729
846.886	22721
847.022	22755
847.158	22835
847.294	22900
847.429	22885
847.565	22672
847.701	22968
847.837	22485
847.972	22497
848.108	22679
848.244	22615
848.379	22421
848.515	22421
848.65	22409
848.786	22440
848.921	22398
849.057	22584
849.192	22455
849.328	22352
849.463	22356
849.598	22398
849.734	22295
849.869	22192
850.004	22120
850.14	22253
850.275	22215
850.41	22074
850.545	22116
850.68	22188
850.815	22162
850.95	22131
851.085	22314
851.22	22211
851.355	22128
851.49	22211
851.625	22055
851.76	22211
851.895	22070
852.03	22154
852.165	22010
852.299	22158
852.434	22253
852.569	22086
852.703	22131
852.838	22200
852.973	22291
853.107	22367
853.242	22036
853.376	22051
853.511	21987
853.645	21934
853.78	22135
853.914	22051
854.048	22013
854.183	21892
854.317	22143
854.451	22257
854.585	21979
854.72	21918
854.854	22006
854.988	21983
855.122	21861
855.256	21838
855.39	21953
855.524	22032
855.658	21895
855.792	22017
855.926	22010
856.06	22090
856.194	21998
856.327	21869
856.461	21922
856.595	21892
856.729	21937
856.862	22082
856.996	21975
857.13	22040
857.263	22010
857.397	22135
857.53	21953
857.664	22063
857.797	21979
857.931	22116
858.064	22124
858.197	22101
858.331	21956
858.464	21907
858.597	21850
858.731	22029
858.864	21934
858.997	22067
859.13	21964
859.263	22036
859.396	22059
859.529	21956
859.662	22029
859.795	21911
859.928	21922
860.061	22169
860.194	22226
860.327	21934
860.46	21991
860.592	22010
860.725	22169
860.858	22055
860.99	21915
861.123	21907
861.256	21903
861.388	21998
861.521	22786
861.653	21778
861.786	21747
861.918	21835
862.05	21793
862.183	21922
862.315	21926
862.447	21953
862.58	21854
862.712	21717
862.844	21644
862.976	21835
863.108	21686
863.24	22048
863.372	21530
863.504	21679
863.636	21728
863.768	21770
863.9	21606
864.032	21553
864.164	21534
864.296	21606
864.428	21728
864.559	21675
864.691	21743
864.823	21591
864.954	21610
865.086	21625
865.217	21610
865.349	21511
865.48	21538
865.612	21561
865.743	21709
865.875	21709
866.006	21629
866.137	21488
866.269	21614
866.4	21523
866.531	21466
866.662	21405
866.793	21583
866.924	21496
867.055	21450
867.186	21519
867.317	21397
867.448	21393
867.579	21450
867.71	21405
867.841	21500
867.972	21488
868.103	21530
868.233	21443
868.364	21557
868.495	21705
868.625	21717
868.756	21823
868.886	21576
869.017	21781
869.147	21793
869.278	21823
869.408	21629
869.539	21743
869.669	21842
869.799	21747
869.929	21915
870.06	21762
870.19	21968
870.32	21941
870.45	21926
870.58	22074
870.71	22226
870.84	22181
870.97	22124
871.1	22112
871.23	22371
871.36	22344
871.489	22234
871.619	22230
871.749	22344
871.879	22344
872.008	22337
872.138	22310
872.267	22344
872.397	22234
872.526	22090
872.656	22048
872.785	22158
872.915	22337
873.044	22348
873.173	22424
873.303	22379
873.432	22379
873.561	22424
873.69	22379
873.819	22356
873.948	22398
874.077	22356
874.206	22299
874.335	22303
874.464	22542
874.593	22596
874.722	22535
874.851	22523
874.979	22508
875.108	22603
875.237	22500
875.365	22485
875.494	22493
875.623	22459
875.751	22455
875.88	22447
876.008	22706
876.136	22774
876.265	22904
876.393	23006
876.521	23018
876.65	22968
876.778	23067
876.906	22965
877.034	22949
877.162	22938
877.29	22911
877.418	22881
877.546	22930
877.674	22919
877.802	22759
877.93	22790
878.058	22892
878.185	22778
878.313	22896
878.441	22904
878.568	22729
878.696	22782
878.824	22873
878.951	22991
879.079	23079
879.206	23166
879.333	22877
879.461	22953
879.588	22987
879.715	22991
879.842	23128
879.97	22987
880.097	22584
880.224	22736
880.351	22782
880.478	22706
880.605	22645
880.732	22706
880.859	23022
880.986	22706
881.112	22656
881.239	22656
881.366	22348
881.493	22443
881.619	22295
881.746	22322
881.872	22379
881.999	22230
882.125	22280
882.252	22344
882.378	22287
882.505	22379
882.631	22265
882.757	21972
882.883	22070
883.01	21934
883.136	21934
883.262	21865
883.388	21819
883.514	22025
883.64	22017
883.766	21899
883.892	21644
884.018	21679
884.143	22013
884.269	22086
884.395	21743
884.52	21519
884.646	21603
884.772	21671
884.897	21447
885.023	21739
885.148	21652
885.274	21701
885.399	21720
885.524	21572
885.65	21610
885.775	21671
885.9	21587
886.025	21686
886.15	21671
886.275	21511
886.4	21367
886.525	21496
886.65	21450
886.775	21492
886.9	21644
887.025	21762
887.149	21515
887.274	21389
887.399	21397
887.523	21340
887.648	21412
887.773	21241
887.897	21443
888.021	21401
888.146	21367
888.27	21561
888.395	21473
888.519	21363
888.643	21321
888.767	21393
888.891	21279
889.015	21180
889.139	21211
889.263	21211
889.387	21283
889.511	21397
889.635	21272
889.759	21142
889.883	21195
890.006	21116
890.13	21150
890.254	21108
890.377	21222
890.501	20891
890.624	20906
890.748	20963
890.871	20788
890.995	20655
891.118	20621
891.241	20727
891.364	20716
891.488	20864
891.611	20788
891.734	20735
891.857	20629
891.98	20804
892.103	20693
892.226	20781
892.349	20625
892.471	20556
892.594	20674
892.717	20590
892.839	20609
892.962	20602
893.085	20655
893.207	20602
893.33	20492
893.452	20571
893.575	20663
893.697	20617
893.819	20842
893.941	20739
894.064	20701
894.186	20480
894.308	20507
894.43	20712
894.552	20697
894.674	20670
894.796	20514
894.918	20613
895.04	20522
895.161	20625
895.283	20621
895.405	20571
895.526	20564
895.648	20564
895.769	20552
895.891	20621
896.012	20648
896.134	20648
896.255	20434
896.376	20575
896.498	20655
896.619	20621
896.74	20594
896.861	20632
896.982	20861
897.103	21066
897.224	20811
897.345	20849
897.466	20773
897.587	20895
897.708	21005
897.828	20872
897.949	20682
898.07	20663
898.19	20785
898.311	20895
898.431	20826
898.552	20857
898.672	20910
898.792	20979
898.913	20895
899.033	20823
899.153	20598
899.273	20495
899.393	20438
899.513	20556
899.633	20583
899.753	20670
899.873	20480
899.993	20507
900.113	20495
900.232	20625
900.352	20454
900.472	20328
900.591	20313
900.711	20286
900.83	20355
900.95	20438
901.069	20362
901.189	20282
901.308	20001
901.427	20020
901.546	19993
901.665	19978
901.784	19906
901.904	19788
902.023	19693
902.141	19407
902.26	19358
902.379	19533
902.498	19362
902.617	19304
902.735	19289
902.854	19384
902.973	19285
903.091	19133
903.21	19156
903.328	19168
903.446	19057
903.565	18916
903.683	18973
903.801	18768
903.919	18772
904.038	18897
904.156	18525
904.274	18719
904.392	18658
904.51	18696
904.627	18589
904.745	18677
904.863	18665
904.981	18464
905.098	18372
905.216	18281
905.334	18346
905.451	18388
905.569	18422
905.686	18372
905.803	18319
905.921	18186
906.038	18178
906.155	18117
906.272	17999
906.389	18102
906.506	17923
906.623	17931
906.74	17813
906.857	17802
906.974	17840
907.091	17897
907.208	17946
907.324	17878
907.441	17680
907.557	17596
907.674	17558
907.79	17474
907.907	17535
908.023	17592
908.139	17551
908.256	17459
908.372	17398
908.488	17372
908.604	17258
908.72	17273
908.836	17258
908.952	17200
909.068	17273
909.184	17345
909.3	17273
909.415	17277
909.531	17265
909.647	17025
909.762	16976
909.878	16915
909.993	16995
910.108	17033
910.224	16976
910.339	16984
910.454	16854
910.57	16740
910.685	16668
910.8	16999
910.915	16965
911.03	16793
911.145	16634
911.259	16538
911.374	16558
911.489	16405
911.604	16421
911.718	16265
911.833	16306
911.947	16280
912.062	16166
912.176	16322
912.291	16329
912.405	16268
912.519	16558
912.633	16428
912.748	16352
912.862	16226
912.976	16090
913.09	16051
913.204	16036
913.318	16097
913.431	16276
913.545	16226
913.659	16188
913.772	16013
913.886	15911
914	15907
914.113	15987
914.226	16055
914.34	15983
914.453	15736
914.566	15941
914.68	15873
914.793	15739
914.906	15477
915.019	15553
915.132	15420
915.245	15526
915.358	15424
915.47	15511
915.583	15370
915.696	15587
915.809	15660
915.921	15743
916.034	15340
916.146	15393
916.259	15401
916.371	15325
916.483	15466
916.595	15420
916.708	15340
916.82	15279
916.932	15291
917.044	15291
917.156	15256
917.268	15077
917.38	15207
917.491	15058
917.603	15123
917.715	15249
917.826	15291
917.938	15043
918.049	15062
918.161	14994
918.272	15176
918.384	15195
918.495	15184
918.606	14902
918.717	14807
918.828	14910
918.939	14986
919.05	14674
919.161	14948
919.272	14644
919.383	14674
919.494	14906
919.604	15036
919.715	14880
919.826	14697
919.936	14834
920.047	14876
920.157	14842
920.267	15157
920.378	14899
920.488	14853
920.598	14956
920.708	15173
920.818	14971
920.928	14849
921.038	15252
921.148	15047
921.258	14762
921.368	14701
921.477	14693
921.587	14507
921.697	14545
921.806	14522
921.916	14484
922.025	14282
922.134	14263
922.244	14202
922.353	14305
922.462	14157
922.571	14001
922.68	13928
922.789	13742
922.898	13883
923.007	13719
923.116	13875
923.224	13883
923.333	13868
923.442	13689
923.55	13586
923.659	13746
923.767	13765
923.876	13632
923.984	13666
924.092	13624
924.201	13571
924.309	13597
924.417	13525
924.525	13499
924.633	13521
924.741	14427
924.849	13335
924.956	13453
925.064	13263
925.172	13228
925.279	13190
925.387	13225
925.494	13297
925.602	13335
925.709	13255
925.816	13183
925.924	13202
926.031	13255
926.138	13251
926.245	13263
926.352	13095
926.459	13221
926.566	13285
926.673	13183
926.779	13034
926.886	12875
926.993	12970
927.099	12951
927.206	12662
927.312	12745
927.419	12810
927.525	12814
927.631	12833
927.737	12715
927.843	12627
927.95	12574
928.056	12589
928.162	12669
928.267	12692
928.373	13179
928.479	12692
928.585	12403
928.69	12563
928.796	12589
928.901	12494
929.007	12262
929.112	12479
929.218	12532
929.323	12311
929.428	12334
929.533	12475
929.638	12346
929.743	12300
929.848	12304
929.953	12258
930.058	12216
930.163	11965
930.267	12095
930.372	12140
930.477	11916
930.581	12228
930.685	12076
930.79	11977
930.894	11946
930.998	11863
931.103	11977
931.207	11604
931.311	11566
931.415	11490
931.519	11364
931.623	11288
