Data from test_V78500241_3592.txt Node
Date: Fri Mar 25 16:06:41 CST 2022
User: usil
Spectrometer: V785-0024
Trigger mode: 0
Integration Time (sec): 4.000000E-1
Scans to average: 1
Nonlinearity correction enabled: false
Boxcar width: 0
Storing dark spectrum: false
XAxis mode: Wavelengths
Number of Pixels in Spectrum: 1024
>>>>>Begin Spectral Data<<<<<
801.071	28759
801.214	28877
801.356	28508
801.499	28382
801.641	28466
801.783	28382
801.926	28561
802.068	28348
802.211	28272
802.353	28276
802.496	28348
802.638	28238
802.78	28158
802.923	28074
803.065	28040
803.208	28044
803.35	28063
803.492	28310
803.635	28401
803.777	28215
803.919	28341
804.061	28653
804.204	28447
804.346	28310
804.488	28303
804.63	28261
804.773	28272
804.915	28413
805.057	28478
805.199	28299
805.341	28512
805.483	28554
805.626	28436
805.768	28390
805.91	28538
806.052	28561
806.194	28394
806.336	28733
806.478	28615
806.62	28607
806.762	28793
806.904	28782
807.046	29010
807.188	29037
807.33	29056
807.472	29044
807.614	28862
807.756	28904
807.898	28987
808.04	28801
808.182	28938
808.324	28854
808.465	28847
808.607	29044
808.749	29250
808.891	29372
809.033	29425
809.174	29220
809.316	29159
809.458	29296
809.6	28995
809.741	29273
809.883	29493
810.025	29436
810.166	29661
810.308	29520
810.45	29433
810.591	29398
810.733	29284
810.875	29147
811.016	29170
811.158	29147
811.299	29181
811.441	29501
811.582	29360
811.724	29284
811.865	29277
812.007	29170
812.148	29280
812.29	29299
812.431	29326
812.573	29543
812.714	29615
812.855	29767
812.997	29866
813.138	29958
813.279	29935
813.421	29623
813.562	29794
813.703	29608
813.845	29452
813.986	29159
814.127	29018
814.268	28953
814.41	29003
814.551	28980
814.692	29022
814.833	28919
814.974	28942
815.115	28915
815.256	28786
815.397	28801
815.539	28881
815.68	28767
815.821	28691
815.962	28828
816.103	28729
816.244	28611
816.385	28527
816.526	28432
816.666	28470
816.807	28249
816.948	28295
817.089	28363
817.23	28375
817.371	28390
817.512	28272
817.653	28257
817.793	28169
817.934	28192
818.075	28287
818.216	28371
818.356	28268
818.497	28101
818.638	27914
818.778	28128
818.919	28086
819.06	27972
819.2	28246
819.341	28360
819.481	28287
819.622	28405
819.762	28645
819.903	28622
820.043	28413
820.184	28497
820.324	28405
820.465	28542
820.605	28360
820.746	28459
820.886	28192
821.026	28337
821.167	28371
821.307	28519
821.447	28299
821.588	28223
821.728	28048
821.868	27968
822.008	27846
822.149	27770
822.289	27698
822.429	27561
822.569	27561
822.709	27325
822.849	27370
822.99	27176
823.13	27176
823.27	27214
823.41	27169
823.55	26918
823.69	27146
823.83	27032
823.97	27070
824.11	26796
824.25	26929
824.389	26743
824.529	26998
824.669	26838
824.809	27028
824.949	27051
825.089	27096
825.228	27005
825.368	26750
825.508	26811
825.648	26804
825.787	26819
825.927	26887
826.067	26727
826.206	26792
826.346	26914
826.485	26804
826.625	26739
826.765	26914
826.904	26804
827.044	26537
827.183	26651
827.323	26583
827.462	26575
827.601	26571
827.741	26526
827.88	26461
828.02	26324
828.159	26469
828.298	26568
828.437	26590
828.577	26579
828.716	26636
828.855	26476
828.994	26267
829.134	26210
829.273	26240
829.412	26145
829.551	26240
829.69	26225
829.829	26267
829.968	26237
830.107	26191
830.246	26157
830.385	26164
830.524	26024
830.663	26103
830.802	25909
830.941	25811
831.08	25769
831.219	25871
831.357	25913
831.496	26092
831.635	25708
831.774	25746
831.913	25670
832.051	25563
832.19	25624
832.329	25647
832.467	25529
832.606	25430
832.744	25434
832.883	25487
833.022	25392
833.16	25556
833.299	25552
833.437	25396
833.576	25571
833.714	25605
833.852	25655
833.991	25689
834.129	25552
834.267	25468
834.406	25571
834.544	25502
834.682	25575
834.821	25605
834.959	25700
835.097	25354
835.235	25651
835.373	25487
835.511	25506
835.65	25426
835.788	25381
835.926	25335
836.064	25129
836.202	25304
836.34	25411
836.478	25350
836.615	25502
836.753	25350
836.891	25407
837.029	25400
837.167	25411
837.305	25354
837.443	25217
837.58	25324
837.718	25221
837.856	25312
837.993	25187
838.131	25316
838.269	25080
838.406	25206
838.544	24992
838.681	24920
838.819	24909
838.956	24764
839.094	24658
839.231	24833
839.369	24829
839.506	25103
839.643	24852
839.781	24646
839.918	24654
840.055	24509
840.193	24631
840.33	24608
840.467	24745
840.604	24589
840.742	24863
840.879	24414
841.016	24536
841.153	24486
841.29	24707
841.427	24623
841.564	24620
841.701	24505
841.838	24528
841.975	24502
842.112	24563
842.249	24380
842.385	24384
842.522	24559
842.659	24407
842.796	24296
842.933	24353
843.069	24273
843.206	24174
843.343	24365
843.479	24433
843.616	24292
843.752	24136
843.889	24083
844.025	24296
844.162	24079
844.298	24315
844.435	24121
844.571	24091
844.708	24106
844.844	24296
844.98	24258
845.117	24197
845.253	24174
845.389	24022
845.525	24114
845.661	24011
845.798	23790
845.934	23824
846.07	23828
846.206	23950
846.342	23965
846.478	23771
846.614	23699
846.75	23512
846.886	23657
847.022	23623
847.158	23520
847.294	23623
847.429	23562
847.565	23547
847.701	23817
847.837	23364
847.972	23318
848.108	23360
848.244	23383
848.379	23143
848.515	23330
848.65	22980
848.786	23075
848.921	23197
849.057	23288
849.192	23197
849.328	23197
849.463	23098
849.598	23006
849.734	23037
849.869	22968
850.004	22984
850.14	22896
850.275	22976
850.41	22866
850.545	22809
850.68	22755
850.815	22930
850.95	22892
851.085	23212
851.22	23048
851.355	22942
851.49	22900
851.625	22984
851.76	22885
851.895	22839
852.03	22900
852.165	22961
852.299	22972
852.434	23067
852.569	22946
852.703	22984
852.838	22908
852.973	22999
853.107	23071
853.242	22957
853.376	22748
853.511	22679
853.645	22660
853.78	22774
853.914	22725
854.048	22698
854.183	22615
854.317	22854
854.451	22889
854.585	22793
854.72	22656
854.854	22862
854.988	22736
855.122	22710
855.256	22626
855.39	22565
855.524	22748
855.658	22683
855.792	22721
855.926	22809
856.06	22755
856.194	22759
856.327	22679
856.461	22660
856.595	22584
856.729	22691
856.862	22797
856.996	22786
857.13	22889
857.263	22911
857.397	22824
857.53	22691
857.664	22847
857.797	22782
857.931	22885
858.064	22805
858.197	22797
858.331	22702
858.464	22683
858.597	22672
858.731	22679
858.864	22611
858.997	22687
859.13	22778
859.263	22653
859.396	22835
859.529	22782
859.662	22691
859.795	22637
859.928	22615
860.061	22862
860.194	22999
860.327	22869
860.46	22748
860.592	22786
860.725	22927
860.858	22927
860.99	22637
861.123	22653
861.256	22607
861.388	22653
861.521	23429
861.653	22637
861.786	22550
861.918	22637
862.05	22550
862.183	22660
862.315	22672
862.447	22774
862.58	22645
862.712	22516
862.844	22405
862.976	22478
863.108	22542
863.24	22816
863.372	22394
863.504	22417
863.636	22356
863.768	22356
863.9	22489
864.032	22375
864.164	22367
864.296	22500
864.428	22523
864.559	22500
864.691	22535
864.823	22440
864.954	22493
865.086	22386
865.217	22295
865.349	22318
865.48	22322
865.612	22322
865.743	22531
865.875	22352
866.006	22268
866.137	22276
866.269	22314
866.4	22204
866.531	22162
866.662	22242
866.793	22291
866.924	22261
867.055	22230
867.186	22360
867.317	22246
867.448	22169
867.579	22173
867.71	22276
867.841	22124
867.972	22238
868.103	22223
868.233	22325
868.364	22272
868.495	22375
868.625	22417
868.756	22565
868.886	22363
869.017	22497
869.147	22565
869.278	22516
869.408	22512
869.539	22398
869.669	22466
869.799	22596
869.929	22573
870.06	22592
870.19	22752
870.32	22843
870.45	22881
870.58	22881
870.71	22980
870.84	22869
870.97	22774
871.1	22942
871.23	23083
871.36	23098
871.489	22869
871.619	23064
871.749	22972
871.879	23064
872.008	23364
872.138	23121
872.267	23102
872.397	22915
872.526	22953
872.656	22980
872.785	22877
872.915	23098
873.044	23193
873.173	23200
873.303	23132
873.432	23162
873.561	23212
873.69	23181
873.819	23098
873.948	23174
874.077	22896
874.206	23014
874.335	23037
874.464	23200
874.593	23216
874.722	23269
874.851	23322
874.979	23254
875.108	23436
875.237	23391
875.365	23185
875.494	23242
875.623	23318
875.751	23208
875.88	23436
876.008	23520
876.136	23444
876.265	23649
876.393	23756
876.521	23904
876.65	23805
876.778	23619
876.906	23653
877.034	23604
877.162	23771
877.29	23608
877.418	23836
877.546	23573
877.674	23589
877.802	23695
877.93	23611
878.058	23611
878.185	23497
878.313	23512
878.441	23539
878.568	23589
878.696	23642
878.824	23676
878.951	23710
879.079	23779
879.206	23954
879.333	23904
879.461	23596
879.588	23779
879.715	23897
879.842	23882
879.97	23786
880.097	23524
880.224	23554
880.351	23539
880.478	23558
880.605	23482
880.732	23444
880.859	23687
880.986	23471
881.112	23387
881.239	23296
881.366	23318
881.493	23014
881.619	22919
881.746	23075
881.872	23025
881.999	22999
882.125	23025
882.252	23132
882.378	23006
882.505	22987
882.631	22946
882.757	22725
882.883	22908
883.01	22664
883.136	22653
883.262	22519
883.388	22618
883.514	22596
883.64	22691
883.766	22611
883.892	22402
884.018	22508
884.143	22721
884.269	22748
884.395	22565
884.52	22303
884.646	22356
884.772	22306
884.897	22261
885.023	22337
885.148	22451
885.274	22584
885.399	22405
885.524	22409
885.65	22306
885.775	22417
885.9	22257
886.025	22398
886.15	22344
886.275	22272
886.4	22215
886.525	22249
886.65	22261
886.775	22112
886.9	22379
887.025	22478
887.149	22333
887.274	22120
887.399	22173
887.523	22029
887.648	21987
887.773	21911
887.897	22143
888.021	22109
888.146	21991
888.27	22074
888.395	22188
888.519	22166
888.643	22059
888.767	22139
888.891	22051
889.015	22002
889.139	21915
889.263	21823
889.387	21949
889.511	22101
889.635	22010
889.759	21804
889.883	21774
890.006	21846
890.13	21922
890.254	21854
890.377	21793
890.501	21633
890.624	21603
890.748	21572
890.871	21458
890.995	21359
891.118	21325
891.241	21492
891.364	21469
891.488	21507
891.611	21477
891.734	21370
891.857	21500
891.98	21393
892.103	21473
892.226	21466
892.349	21447
892.471	21291
892.594	21260
892.717	21424
892.839	21302
892.962	21340
893.085	21443
893.207	21302
893.33	21291
893.452	21275
893.575	21294
893.697	21298
893.819	21496
893.941	21405
894.064	21420
894.186	21313
894.308	21226
894.43	21363
894.552	21397
894.674	21298
894.796	21203
894.918	21207
895.04	21340
895.161	21363
895.283	21256
895.405	21207
895.526	21268
895.648	21195
895.769	21252
895.891	21260
896.012	21195
896.134	21287
896.255	21336
896.376	21222
896.498	21192
896.619	21268
896.74	21245
896.861	21283
896.982	21542
897.103	21736
897.224	21618
897.345	21469
897.466	21485
897.587	21420
897.708	21572
897.828	21603
897.949	21439
898.07	21279
898.19	21340
898.311	21564
898.431	21386
898.552	21454
898.672	21462
898.792	21431
898.913	21454
899.033	21332
899.153	21340
899.273	21222
899.393	21192
899.513	21169
899.633	21214
899.753	21272
899.873	21093
899.993	21169
900.113	21005
900.232	21096
900.352	21089
900.472	20956
900.591	21017
900.711	21036
900.83	20823
900.95	21043
901.069	20998
901.189	20811
901.308	20556
901.427	20526
901.546	20469
901.665	20617
901.784	20575
901.904	20355
902.023	20328
902.141	20153
902.26	20145
902.379	20142
902.498	20065
902.617	20077
902.735	20145
902.854	20031
902.973	19898
903.091	19700
903.21	19605
903.328	19674
903.446	19624
903.565	19407
903.683	19468
903.801	19358
903.919	19354
904.038	19343
904.156	19198
904.274	19396
904.392	19160
904.51	19148
904.627	19179
904.745	19236
904.863	19244
904.981	19057
905.098	18856
905.216	18875
905.334	19000
905.451	18829
905.569	18890
905.686	18935
905.803	18863
905.921	18555
906.038	18837
906.155	18635
906.272	18517
906.389	18597
906.506	18456
906.623	18506
906.74	18311
906.857	18194
906.974	18319
907.091	18563
907.208	18555
907.324	18399
907.441	18296
907.557	18194
907.674	18083
907.79	18045
907.907	18114
908.023	18190
908.139	18167
908.256	18117
908.372	17950
908.488	18015
908.604	17984
908.72	17798
908.836	17866
908.952	17805
909.068	17980
909.184	17935
909.3	17722
909.415	17984
909.531	17878
909.647	17512
909.762	17558
909.878	17471
909.993	17516
910.108	17509
910.224	17543
910.339	17471
910.454	17425
910.57	17326
910.685	17235
910.8	17642
910.915	17505
911.03	17288
911.145	17151
911.259	17086
911.374	17071
911.489	17155
911.604	16892
911.718	16847
911.833	16869
911.947	16816
912.062	16683
912.176	16873
912.291	16869
912.405	16900
912.519	17060
912.633	17166
912.748	16900
912.862	16835
912.976	16713
913.09	16516
913.204	16599
913.318	16656
913.431	16744
913.545	16820
913.659	16713
913.772	16569
913.886	16493
914	16371
914.113	16603
914.226	16672
914.34	16550
914.453	16348
914.566	16519
914.68	16348
914.793	16257
914.906	16173
915.019	16078
915.132	15979
915.245	16067
915.358	16036
915.47	16067
915.583	15945
915.696	16006
915.809	16147
915.921	16188
916.034	15953
916.146	15926
916.259	15812
916.371	15941
916.483	16063
916.595	15846
916.708	15907
916.82	15819
916.932	15778
917.044	15732
917.156	15720
917.268	15667
917.38	15633
917.491	15625
917.603	15652
917.715	15698
917.826	15720
917.938	15576
918.049	15462
918.161	15500
918.272	15739
918.384	15618
918.495	15526
918.606	15401
918.717	15393
918.828	15386
918.939	15401
919.05	15363
919.161	15367
919.272	15207
919.383	15146
919.494	15378
919.604	15542
919.715	15389
919.826	15195
919.936	15302
920.047	15466
920.157	15397
920.267	15450
920.378	15443
920.488	15321
920.598	15545
920.708	15523
920.818	15504
920.928	15386
921.038	15545
921.148	15603
921.258	15313
921.368	15180
921.477	15138
921.587	14971
921.697	14960
921.806	15062
921.916	14868
922.025	14781
922.134	14625
922.244	14621
922.353	14773
922.462	14663
922.571	14579
922.68	14339
922.789	14366
922.898	14320
923.007	14199
923.116	14210
923.224	14282
923.333	14263
923.442	14142
923.55	14081
923.659	14172
923.767	14275
923.876	14035
923.984	14180
924.092	14054
924.201	14054
924.309	13986
924.417	13989
924.525	13902
924.633	13959
924.741	14845
924.849	13704
924.956	13887
925.064	13750
925.172	13636
925.279	13708
925.387	13689
925.494	13693
925.602	13826
925.709	13693
925.816	13613
925.924	13571
926.031	13731
926.138	13674
926.245	13651
926.352	13575
926.459	13727
926.566	13731
926.673	13548
926.779	13411
926.886	13346
926.993	13289
927.099	13335
927.206	13228
927.312	13194
927.419	13213
927.525	13225
927.631	13198
927.737	13110
927.843	12996
927.95	12973
928.056	13031
928.162	13088
928.267	13171
928.373	13719
928.479	13099
928.585	12760
928.69	13012
928.796	12977
928.901	12905
929.007	12764
929.112	12776
929.218	12859
929.323	12757
929.428	12738
929.533	12772
929.638	12597
929.743	12696
929.848	12734
929.953	12662
930.058	12585
930.163	12456
930.267	12433
930.372	12525
930.477	12403
930.581	12688
930.685	12464
930.79	12315
930.894	12315
930.998	12220
931.103	12384
931.207	12034
931.311	12022
931.415	11786
931.519	11714
931.623	11646
