Data from test_V78500241_2107.txt Node
Date: Fri Mar 25 15:56:23 CST 2022
User: usil
Spectrometer: V785-0024
Trigger mode: 0
Integration Time (sec): 4.000000E-1
Scans to average: 1
Nonlinearity correction enabled: false
Boxcar width: 0
Storing dark spectrum: false
XAxis mode: Wavelengths
Number of Pixels in Spectrum: 1024
>>>>>Begin Spectral Data<<<<<
801.071	28793
801.214	28877
801.356	28660
801.499	28637
801.641	28440
801.783	28546
801.926	28538
802.068	28504
802.211	28162
802.353	28341
802.496	28242
802.638	28211
802.78	28188
802.923	28063
803.065	28109
803.208	28097
803.35	28249
803.492	28405
803.635	28379
803.777	28306
803.919	28451
804.061	28641
804.204	28462
804.346	28230
804.488	28299
804.63	28523
804.773	28375
804.915	28493
805.057	28596
805.199	28360
805.341	28474
805.483	28577
805.626	28565
805.768	28421
805.91	28649
806.052	28622
806.194	28550
806.336	28843
806.478	28611
806.62	28725
806.762	28896
806.904	28942
807.046	29003
807.188	29041
807.33	29033
807.472	29128
807.614	29052
807.756	28968
807.898	28961
808.04	28858
808.182	28862
808.324	28786
808.465	29010
808.607	29151
808.749	29326
808.891	29425
809.033	29444
809.174	29269
809.316	29235
809.458	29003
809.6	29292
809.741	29509
809.883	29410
810.025	29596
810.166	29467
810.308	29535
810.45	29402
810.591	29573
810.733	29414
810.875	29208
811.016	29227
811.158	29318
811.299	29440
811.441	29307
811.582	29318
811.724	29216
811.865	29273
812.007	29143
812.148	29330
812.29	29436
812.431	29395
812.573	29760
812.714	29627
812.855	29771
812.997	29817
813.138	30018
813.279	29965
813.421	29771
813.562	29691
813.703	29570
813.845	29558
813.986	29181
814.127	29128
814.268	29204
814.41	29193
814.551	29003
814.692	29044
814.833	29067
814.974	29044
815.115	28976
815.256	28968
815.397	28896
815.539	28786
815.68	28953
815.821	28717
815.962	28740
816.103	28729
816.244	28588
816.385	28615
816.526	28721
816.666	28257
816.807	28360
816.948	28219
817.089	28447
817.23	28318
817.371	28394
817.512	28284
817.653	28348
817.793	28246
817.934	28268
818.075	28367
818.216	28398
818.356	28344
818.497	28162
818.638	28086
818.778	28177
818.919	28055
819.06	28128
819.2	28223
819.341	28272
819.481	28386
819.622	28508
819.762	28656
819.903	28565
820.043	28459
820.184	28561
820.324	28447
820.465	28538
820.605	28542
820.746	28497
820.886	28306
821.026	28538
821.167	28291
821.307	28470
821.447	28318
821.588	28234
821.728	28158
821.868	28025
822.008	27850
822.149	27610
822.289	27827
822.429	27595
822.569	27553
822.709	27682
822.849	27359
822.99	27355
823.13	27332
823.27	27252
823.41	27150
823.55	27009
823.69	27096
823.83	27142
823.97	27127
824.11	27051
824.25	26929
824.389	26998
824.529	26979
824.669	26975
824.809	27119
824.949	26940
825.089	27100
825.228	27058
825.368	26800
825.508	26823
825.648	26872
825.787	26940
825.927	26819
826.067	26838
826.206	26796
826.346	26807
826.485	27020
826.625	26925
826.765	26979
826.904	26861
827.044	26651
827.183	26613
827.323	26663
827.462	26663
827.601	26587
827.741	26602
827.88	26522
828.02	26419
828.159	26583
828.298	26511
828.437	26560
828.577	26587
828.716	26606
828.855	26571
828.994	26423
829.134	26355
829.273	26294
829.412	26248
829.551	26324
829.69	26332
829.829	26301
829.968	26336
830.107	26263
830.246	26221
830.385	26221
830.524	26244
830.663	26062
830.802	26008
830.941	25807
831.08	25791
831.219	25849
831.357	25963
831.496	26058
831.635	25875
831.774	25868
831.913	25807
832.051	25772
832.19	25616
832.329	25696
832.467	25548
832.606	25468
832.744	25476
832.883	25457
833.022	25426
833.16	25468
833.299	25719
833.437	25666
833.576	25639
833.714	25628
833.852	25495
833.991	25677
834.129	25708
834.267	25605
834.406	25658
834.544	25567
834.682	25571
834.821	25662
834.959	25807
835.097	25499
835.235	25643
835.373	25563
835.511	25544
835.65	25407
835.788	25419
835.926	25346
836.064	25270
836.202	25297
836.34	25365
836.478	25403
836.615	25373
836.753	25415
836.891	25403
837.029	25464
837.167	25316
837.305	25270
837.443	25228
837.58	25358
837.718	25350
837.856	25259
837.993	25213
838.131	25240
838.269	25148
838.406	25156
838.544	25050
838.681	24924
838.819	24920
838.956	24700
839.094	24745
839.231	24734
839.369	24772
839.506	25179
839.643	24962
839.781	24726
839.918	24661
840.055	24681
840.193	24593
840.33	24635
840.467	24616
840.604	24593
840.742	24844
840.879	24525
841.016	24620
841.153	24399
841.29	24738
841.427	24631
841.564	24741
841.701	24646
841.838	24635
841.975	24422
842.112	24589
842.249	24460
842.385	24369
842.522	24517
842.659	24513
842.796	24296
842.933	24369
843.069	24357
843.206	24330
843.343	24296
843.479	24350
843.616	24342
843.752	24163
843.889	24277
844.025	24285
844.162	24106
844.298	24205
844.435	24174
844.571	24106
844.708	24083
844.844	24365
844.98	24304
845.117	24205
845.253	24216
845.389	24106
845.525	23969
845.661	23988
845.798	23916
845.934	23935
846.07	23805
846.206	23878
846.342	24049
846.478	23958
846.614	23703
846.75	23497
846.886	23547
847.022	23703
847.158	23691
847.294	23615
847.429	23699
847.565	23676
847.701	23779
847.837	23429
847.972	23326
848.108	23455
848.244	23547
848.379	23235
848.515	23090
848.65	23193
848.786	23151
848.921	23193
849.057	23368
849.192	23349
849.328	23166
849.463	23197
849.598	23311
849.734	23105
849.869	23124
850.004	22949
850.14	23003
850.275	23064
850.41	22877
850.545	22885
850.68	23003
850.815	22999
850.95	22885
851.085	23269
851.22	23132
851.355	23086
851.49	22854
851.625	23029
851.76	22904
851.895	22904
852.03	22915
852.165	22984
852.299	23117
852.434	23098
852.569	23044
852.703	22938
852.838	23010
852.973	23105
853.107	23151
853.242	23033
853.376	22774
853.511	22626
853.645	22854
853.78	22915
853.914	22820
854.048	22858
854.183	22733
854.317	22793
854.451	23060
854.585	22706
854.72	22885
854.854	22850
854.988	22759
855.122	22782
855.256	22679
855.39	22805
855.524	22847
855.658	22953
855.792	22786
855.926	22767
856.06	22771
856.194	22850
856.327	22835
856.461	22672
856.595	22763
856.729	22580
856.862	22793
856.996	22828
857.13	22831
857.263	22831
857.397	22877
857.53	22828
857.664	22831
857.797	22869
857.931	22885
858.064	22782
858.197	22923
858.331	22816
858.464	22634
858.597	22805
858.731	22630
858.864	22767
858.997	22755
859.13	22740
859.263	22645
859.396	22866
859.529	22729
859.662	22725
859.795	22733
859.928	22752
860.061	22892
860.194	22949
860.327	22873
860.46	22759
860.592	22862
860.725	22812
860.858	22854
860.99	22843
861.123	22694
861.256	22622
861.388	22771
861.521	23467
861.653	22706
861.786	22535
861.918	22622
862.05	22641
862.183	22763
862.315	22702
862.447	22759
862.58	22755
862.712	22291
862.844	22344
862.976	22573
863.108	22557
863.24	22812
863.372	22436
863.504	22527
863.636	22417
863.768	22360
863.9	22478
864.032	22375
864.164	22424
864.296	22577
864.428	22531
864.559	22436
864.691	22516
864.823	22523
864.954	22398
865.086	22379
865.217	22436
865.349	22230
865.48	22242
865.612	22306
865.743	22371
865.875	22424
866.006	22303
866.137	22265
866.269	22344
866.4	22310
866.531	22265
866.662	22219
866.793	22268
866.924	22230
867.055	22344
867.186	22322
867.317	22344
867.448	22188
867.579	22276
867.71	22181
867.841	22200
867.972	22242
868.103	22280
868.233	22261
868.364	22360
868.495	22421
868.625	22390
868.756	22668
868.886	22489
869.017	22493
869.147	22672
869.278	22691
869.408	22409
869.539	22577
869.669	22653
869.799	22653
869.929	22771
870.06	22637
870.19	22733
870.32	22877
870.45	22892
870.58	22809
870.71	22999
870.84	22965
870.97	22953
871.1	22911
871.23	23033
871.36	23170
871.489	23098
871.619	23132
871.749	23064
871.879	23128
872.008	23071
872.138	23105
872.267	23121
872.397	23018
872.526	22991
872.656	22953
872.785	22896
872.915	23052
873.044	23174
873.173	23067
873.303	23094
873.432	23288
873.561	23212
873.69	23124
873.819	23083
873.948	23261
874.077	23197
874.206	23083
874.335	23121
874.464	23208
874.593	23273
874.722	23292
874.851	23402
874.979	23387
875.108	23383
875.237	23250
875.365	23174
875.494	23482
875.623	23315
875.751	23258
875.88	23421
876.008	23440
876.136	23528
876.265	23687
876.393	23912
876.521	23748
876.65	23805
876.778	23843
876.906	23802
877.034	23615
877.162	23737
877.29	23638
877.418	23657
877.546	23634
877.674	23684
877.802	23687
877.93	23684
878.058	23482
878.185	23589
878.313	23695
878.441	23531
878.568	23551
878.696	23748
878.824	23710
878.951	23665
879.079	23847
879.206	23901
879.333	23878
879.461	23748
879.588	23786
879.715	23859
879.842	23851
879.97	23748
880.097	23478
880.224	23535
880.351	23566
880.478	23414
880.605	23368
880.732	23284
880.859	23649
880.986	23463
881.112	23383
881.239	23246
881.366	23143
881.493	23136
881.619	23052
881.746	23109
881.872	23102
881.999	23037
882.125	23041
882.252	23121
882.378	23044
882.505	23124
882.631	23109
882.757	22835
882.883	22790
883.01	22656
883.136	22710
883.262	22535
883.388	22474
883.514	22809
883.64	22911
883.766	22573
883.892	22394
884.018	22478
884.143	22584
884.269	22767
884.395	22462
884.52	22462
884.646	22348
884.772	22246
884.897	22280
885.023	22325
885.148	22443
885.274	22489
885.399	22417
885.524	22291
885.65	22322
885.775	22436
885.9	22409
886.025	22402
886.15	22413
886.275	22371
886.4	22219
886.525	22405
886.65	22261
886.775	22177
886.9	22379
887.025	22596
887.149	22344
887.274	22074
887.399	22207
887.523	22169
887.648	22032
887.773	21918
887.897	22124
888.021	22097
888.146	22120
888.27	22154
888.395	22230
888.519	22147
888.643	22139
888.767	22105
888.891	21991
889.015	21876
889.139	21972
889.263	21842
889.387	22032
889.511	22128
889.635	22013
889.759	21854
889.883	21892
890.006	21937
890.13	21968
890.254	21793
890.377	21804
890.501	21724
890.624	21625
890.748	21682
890.871	21473
890.995	21469
891.118	21401
891.241	21447
891.364	21511
891.488	21561
891.611	21363
891.734	21416
891.857	21511
891.98	21428
892.103	21583
892.226	21386
892.349	21420
892.471	21154
892.594	21408
892.717	21431
892.839	21211
892.962	21321
893.085	21378
893.207	21310
893.33	21135
893.452	21291
893.575	21291
893.697	21237
893.819	21519
893.941	21515
894.064	21420
894.186	21184
894.308	21146
894.43	21408
894.552	21386
894.674	21325
894.796	21260
894.918	21207
895.04	21302
895.161	21351
895.283	21367
895.405	21230
895.526	21283
895.648	21256
895.769	21340
895.891	21291
896.012	21351
896.134	21298
896.255	21306
896.376	21298
896.498	21287
896.619	21325
896.74	21214
896.861	21344
896.982	21564
897.103	21736
897.224	21599
897.345	21469
897.466	21545
897.587	21519
897.708	21511
897.828	21500
897.949	21412
898.07	21439
898.19	21363
898.311	21534
898.431	21405
898.552	21530
898.672	21656
898.792	21557
898.913	21443
899.033	21306
899.153	21249
899.273	21169
899.393	21211
899.513	21203
899.633	21287
899.753	21306
899.873	21135
899.993	21291
900.113	21001
900.232	21192
900.352	21157
900.472	20979
900.591	20990
900.711	20971
900.83	20880
900.95	21142
901.069	21024
901.189	20914
901.308	20678
901.427	20602
901.546	20629
901.665	20560
901.784	20556
901.904	20431
902.023	20263
902.141	20088
902.26	20149
902.379	20164
902.498	19955
902.617	20016
902.735	20065
902.854	20073
902.973	19959
903.091	19769
903.21	19772
903.328	19765
903.446	19438
903.565	19559
903.683	19506
903.801	19320
903.919	19464
904.038	19373
904.156	19301
904.274	19304
904.392	19278
904.51	19202
904.627	19304
904.745	19282
904.863	19335
904.981	19027
905.098	19091
905.216	18894
905.334	19008
905.451	18958
905.569	18981
905.686	18886
905.803	18894
905.921	18646
906.038	18791
906.155	18753
906.272	18627
906.389	18635
906.506	18445
906.623	18498
906.74	18422
906.857	18327
906.974	18422
907.091	18574
907.208	18570
907.324	18460
907.441	18388
907.557	18114
907.674	18144
907.79	18110
907.907	18178
908.023	18159
908.139	18072
908.256	18102
908.372	18053
908.488	17973
908.604	17855
908.72	17889
908.836	17893
908.952	17843
909.068	17878
909.184	17935
909.3	17836
909.415	17912
909.531	17878
909.647	17684
909.762	17619
909.878	17562
909.993	17547
910.108	17649
910.224	17592
910.339	17547
910.454	17379
910.57	17383
910.685	17368
910.8	17566
910.915	17577
911.03	17360
911.145	17178
911.259	17113
911.374	17033
911.489	17064
911.604	17075
911.718	16900
911.833	16976
911.947	16767
912.062	16820
912.176	16946
912.291	16839
912.405	16824
912.519	17018
912.633	17109
912.748	16915
912.862	16843
912.976	16653
913.09	16542
913.204	16523
913.318	16637
913.431	16812
913.545	16694
913.659	16839
913.772	16588
913.886	16573
914	16481
914.113	16531
914.226	16550
914.34	16550
914.453	16375
914.566	16489
914.68	16344
914.793	16390
914.906	16154
915.019	15998
915.132	15994
915.245	15998
915.358	16074
915.47	16029
915.583	16059
915.696	16044
915.809	16120
915.921	16200
916.034	15983
916.146	15918
916.259	15903
916.371	15987
916.483	16067
916.595	15911
916.708	15850
916.82	15934
916.932	15808
917.044	15797
917.156	15823
917.268	15701
917.38	15701
917.491	15629
917.603	15606
917.715	15720
917.826	15709
917.938	15603
918.049	15485
918.161	15564
918.272	15736
918.384	15713
918.495	15542
918.606	15450
918.717	15340
918.828	15359
918.939	15435
919.05	15382
919.161	15374
919.272	15169
919.383	15252
919.494	15458
919.604	15641
919.715	15363
919.826	15275
919.936	15325
920.047	15439
920.157	15351
920.267	15515
920.378	15412
920.488	15382
920.598	15507
920.708	15694
920.818	15408
920.928	15386
921.038	15572
921.148	15618
921.258	15214
921.368	15214
921.477	15089
921.587	15062
921.697	14895
921.806	15051
921.916	14929
922.025	14788
922.134	14708
922.244	14678
922.353	14712
922.462	14610
922.571	14438
922.68	14389
922.789	14324
922.898	14332
923.007	14275
923.116	14370
923.224	14339
923.333	14199
923.442	14149
923.55	14069
923.659	14134
923.767	14317
923.876	14168
923.984	14100
924.092	14005
924.201	14058
924.309	14035
924.417	14111
924.525	13944
924.633	14039
924.741	14708
924.849	13845
924.956	13879
925.064	13700
925.172	13567
925.279	13651
925.387	13757
925.494	13658
925.602	13944
925.709	13662
925.816	13525
925.924	13613
926.031	13761
926.138	13708
926.245	13750
926.352	13537
926.459	13727
926.566	13715
926.673	13605
926.779	13434
926.886	13441
926.993	13236
927.099	13225
927.206	13228
927.312	13118
927.419	13297
927.525	13202
927.631	13278
927.737	13129
927.843	13160
927.95	12977
928.056	13072
928.162	13057
928.267	13027
928.373	13700
928.479	13095
928.585	12871
928.69	12985
928.796	13080
928.901	12871
929.007	12715
929.112	12833
929.218	12840
929.323	12795
929.428	12768
929.533	12871
929.638	12620
929.743	12722
929.848	12760
929.953	12711
930.058	12601
930.163	12410
930.267	12486
930.372	12536
930.477	12376
930.581	12646
930.685	12509
930.79	12292
930.894	12319
930.998	12273
931.103	12448
931.207	12144
931.311	12034
931.415	11901
931.519	11680
931.623	11657
