Data from test_V78500241_64.txt Node
Date: Fri Mar 25 15:42:14 CST 2022
User: usil
Spectrometer: V785-0024
Trigger mode: 0
Integration Time (sec): 4.000000E-1
Scans to average: 1
Nonlinearity correction enabled: false
Boxcar width: 0
Storing dark spectrum: false
XAxis mode: Wavelengths
Number of Pixels in Spectrum: 1024
>>>>>Begin Spectral Data<<<<<
801.071	29988
801.214	29885
801.356	29676
801.499	29585
801.641	29360
801.783	29452
801.926	29581
802.068	29254
802.211	29242
802.353	29254
802.496	29033
802.638	29132
802.78	29044
802.923	28984
803.065	29018
803.208	28991
803.35	28976
803.492	29067
803.635	29029
803.777	28961
803.919	29235
804.061	29512
804.204	29140
804.346	28984
804.488	29003
804.63	28976
804.773	29075
804.915	29041
805.057	29242
805.199	29094
805.341	29162
805.483	29334
805.626	29136
805.768	29223
805.91	29326
806.052	29261
806.194	29273
806.336	29414
806.478	29273
806.62	29223
806.762	29307
806.904	29383
807.046	29741
807.188	29707
807.33	29733
807.472	29611
807.614	29554
807.756	29528
807.898	29512
808.04	29356
808.182	29353
808.324	29417
808.465	29414
808.607	29600
808.749	29543
808.891	29859
809.033	29946
809.174	29836
809.316	29714
809.458	29840
809.6	29783
809.741	29764
809.883	29847
810.025	30076
810.166	29984
810.308	29923
810.45	29912
810.591	29969
810.733	29843
810.875	29642
811.016	29531
811.158	29627
811.299	29878
811.441	29805
811.582	29836
811.724	29840
811.865	29729
812.007	29649
812.148	29672
812.29	29726
812.431	29828
812.573	30038
812.714	30140
812.855	30133
812.997	30228
813.138	30441
813.279	30232
813.421	30315
813.562	30182
813.703	29920
813.845	29756
813.986	29638
814.127	29486
814.268	29269
814.41	29497
814.551	29261
814.692	29501
814.833	29208
814.974	29341
815.115	29269
815.256	29185
815.397	29166
815.539	29166
815.68	28972
815.821	29006
815.962	29067
816.103	29075
816.244	28790
816.385	28831
816.526	28744
816.666	28535
816.807	28550
816.948	28523
817.089	28607
817.23	28493
817.371	28440
817.512	28443
817.653	28470
817.793	28466
817.934	28398
818.075	28367
818.216	28253
818.356	28272
818.497	28284
818.638	27975
818.778	28112
818.919	28162
819.06	28169
819.2	28226
819.341	28158
819.481	28265
819.622	28447
819.762	28637
819.903	28527
820.043	28356
820.184	28401
820.324	28394
820.465	28531
820.605	28303
820.746	28401
820.886	28185
821.026	28375
821.167	28173
821.307	28363
821.447	28306
821.588	28242
821.728	28032
821.868	27888
822.008	27793
822.149	27713
822.289	27614
822.429	27397
822.569	27504
822.709	27287
822.849	27104
822.99	27313
823.13	27131
823.27	27085
823.41	27039
823.55	26861
823.69	27055
823.83	27051
823.97	27001
824.11	26830
824.25	26598
824.389	26765
824.529	26845
824.669	26720
824.809	26861
824.949	26727
825.089	26731
825.228	26758
825.368	26552
825.508	26549
825.648	26549
825.787	26655
825.927	26537
826.067	26579
826.206	26568
826.346	26697
826.485	26587
826.625	26556
826.765	26598
826.904	26613
827.044	26343
827.183	26267
827.323	26195
827.462	26115
827.601	26282
827.741	26221
827.88	26119
828.02	26050
828.159	26062
828.298	26050
828.437	26145
828.577	26073
828.716	26191
828.855	26161
828.994	25830
829.134	25909
829.273	25837
829.412	25860
829.551	25765
829.69	25921
829.829	25791
829.968	25940
830.107	25921
830.246	25818
830.385	25712
830.524	25776
830.663	25616
830.802	25453
830.941	25449
831.08	25343
831.219	25476
831.357	25449
831.496	25571
831.635	25358
831.774	25324
831.913	25194
832.051	25221
832.19	25141
832.329	25168
832.467	25091
832.606	24962
832.744	24992
832.883	24981
833.022	24996
833.16	24992
833.299	25034
833.437	25141
833.576	25031
833.714	24989
833.852	25076
833.991	25008
834.129	25072
834.267	25061
834.406	24852
834.544	24947
834.682	25023
834.821	25034
834.959	25152
835.097	24867
835.235	24954
835.373	24894
835.511	24954
835.65	24920
835.788	24745
835.926	24688
836.064	24593
836.202	24585
836.34	24871
836.478	24859
836.615	24859
836.753	24779
836.891	24901
837.029	24768
837.167	24783
837.305	24681
837.443	24601
837.58	24635
837.718	24703
837.856	24642
837.993	24578
838.131	24513
838.269	24437
838.406	24551
838.544	24399
838.681	24338
838.819	24167
838.956	24098
839.094	24064
839.231	24072
839.369	24205
839.506	24391
839.643	24330
839.781	23988
839.918	23904
840.055	23973
840.193	23935
840.33	23893
840.467	23942
840.604	24011
840.742	24216
840.879	23843
841.016	23901
841.153	23821
841.29	23980
841.427	23874
841.564	23889
841.701	23687
841.838	23695
841.975	23779
842.112	23802
842.249	23668
842.385	23611
842.522	23805
842.659	23691
842.796	23478
842.933	23471
843.069	23493
843.206	23573
843.343	23452
843.479	23535
843.616	23497
843.752	23311
843.889	23391
844.025	23493
844.162	23421
844.298	23421
844.435	23360
844.571	23254
844.708	23448
844.844	23474
844.98	23467
845.117	23299
845.253	23280
845.389	23117
845.525	23140
845.661	23128
845.798	22980
845.934	23003
846.07	22995
846.206	23037
846.342	23121
846.478	22957
846.614	22786
846.75	22637
846.886	22645
847.022	22733
847.158	22744
847.294	22729
847.429	22786
847.565	22611
847.701	22904
847.837	22409
847.972	22375
848.108	22565
848.244	22531
848.379	22352
848.515	22249
848.65	22173
848.786	22200
848.921	22322
849.057	22272
849.192	22226
849.328	22226
849.463	22261
849.598	22219
849.734	22223
849.869	21979
850.004	22109
850.14	21979
850.275	22040
850.41	21953
850.545	21895
850.68	21816
850.815	22029
850.95	21846
851.085	22086
851.22	22070
851.355	21972
851.49	21899
851.625	21949
851.76	22002
851.895	21717
852.03	21911
852.165	21964
852.299	21991
852.434	22082
852.569	21911
852.703	22006
852.838	21949
852.973	22032
853.107	22128
853.242	21865
853.376	21759
853.511	21625
853.645	21785
853.78	21827
853.914	21724
854.048	21781
854.183	21671
854.317	21747
854.451	21941
854.585	21656
854.72	21755
854.854	21701
854.988	21800
855.122	21656
855.256	21538
855.39	21728
855.524	21819
855.658	21838
855.792	21720
855.926	21724
856.06	21660
856.194	21694
856.327	21694
856.461	21622
856.595	21641
856.729	21739
856.862	21915
856.996	21675
857.13	21797
857.263	21812
857.397	21793
857.53	21599
857.664	21816
857.797	21732
857.931	21774
858.064	21675
858.197	21625
858.331	21542
858.464	21656
858.597	21542
858.731	21660
858.864	21656
858.997	21660
859.13	21599
859.263	21679
859.396	21698
859.529	21599
859.662	21580
859.795	21564
859.928	21576
860.061	21698
860.194	21755
860.327	21618
860.46	21561
860.592	21781
860.725	21690
860.858	21713
860.99	21610
861.123	21576
861.256	21481
861.388	21473
861.521	22265
861.653	21583
861.786	21420
861.918	21572
862.05	21660
862.183	21648
862.315	21656
862.447	21766
862.58	21682
862.712	21378
862.844	21329
862.976	21572
863.108	21405
863.24	21717
863.372	21332
863.504	21428
863.636	21336
863.768	21317
863.9	21340
864.032	21256
864.164	21119
864.296	21275
864.428	21454
864.559	21249
864.691	21348
864.823	21256
864.954	21310
865.086	21249
865.217	21146
865.349	21287
865.48	21169
865.612	21127
865.743	21256
865.875	21173
866.006	21131
866.137	21195
866.269	21207
866.4	21108
866.531	21188
866.662	21165
866.793	21100
866.924	21093
867.055	21138
867.186	21146
867.317	21211
867.448	20956
867.579	21009
867.71	20986
867.841	21062
867.972	21207
868.103	20960
868.233	21116
868.364	21108
868.495	21108
868.625	21488
868.756	21389
868.886	21176
869.017	21264
869.147	21469
869.278	21401
869.408	21321
869.539	21321
869.669	21378
869.799	21416
869.929	21454
870.06	21485
870.19	21610
870.32	21591
870.45	21816
870.58	21732
870.71	21793
870.84	21823
870.97	21808
871.1	21629
871.23	21899
871.36	22010
871.489	21781
871.619	21873
871.749	22025
871.879	22070
872.008	22017
872.138	21861
872.267	21934
872.397	21842
872.526	21774
872.656	21720
872.785	21770
872.915	21994
873.044	22040
873.173	21888
873.303	22059
873.432	22063
873.561	22010
873.69	21903
873.819	21941
873.948	21953
874.077	21991
874.206	22029
874.335	21907
874.464	22078
874.593	22196
874.722	22124
874.851	22139
874.979	22310
875.108	22329
875.237	22253
875.365	22139
875.494	22090
875.623	22261
875.751	22204
875.88	22219
876.008	22333
876.136	22394
876.265	22577
876.393	22763
876.521	22656
876.65	22634
876.778	22649
876.906	22489
877.034	22447
877.162	22535
877.29	22352
877.418	22436
877.546	22592
877.674	22656
877.802	22577
877.93	22516
878.058	22508
878.185	22367
878.313	22504
878.441	22546
878.568	22428
878.696	22436
878.824	22592
878.951	22611
879.079	22816
879.206	22816
879.333	22679
879.461	22447
879.588	22649
879.715	22801
879.842	22934
879.97	22565
880.097	22481
880.224	22413
880.351	22508
880.478	22360
880.605	22436
880.732	22265
880.859	22634
880.986	22493
881.112	22424
881.239	22200
881.366	22097
881.493	22059
881.619	22059
881.746	21937
881.872	22010
881.999	21873
882.125	21983
882.252	21892
882.378	21972
882.505	22120
882.631	21907
882.757	21694
882.883	21861
883.01	21694
883.136	21671
883.262	21587
883.388	21599
883.514	21724
883.64	21667
883.766	21728
883.892	21500
884.018	21485
884.143	21625
884.269	21838
884.395	21443
884.52	21283
884.646	21359
884.772	21211
884.897	21214
885.023	21370
885.148	21348
885.274	21428
885.399	21355
885.524	21378
885.65	21439
885.775	21348
885.9	21260
886.025	21485
886.15	21428
886.275	21192
886.4	21150
886.525	21218
886.65	21214
886.775	21279
886.9	21344
887.025	21599
887.149	21294
887.274	21123
887.399	21066
887.523	21036
887.648	20929
887.773	20960
887.897	21237
888.021	21070
888.146	20990
888.27	21085
888.395	21131
888.519	21150
888.643	21176
888.767	21081
888.891	20891
889.015	20941
889.139	20899
889.263	20906
889.387	20887
889.511	21001
889.635	20986
889.759	20880
889.883	20902
890.006	20815
890.13	20944
890.254	20686
890.377	20823
890.501	20644
890.624	20476
890.748	20590
890.871	20495
890.995	20400
891.118	20336
891.241	20423
891.364	20328
891.488	20370
891.611	20248
891.734	20267
891.857	20606
891.98	20400
892.103	20450
892.226	20499
892.349	20282
892.471	20210
892.594	20389
892.717	20377
892.839	20221
892.962	20286
893.085	20328
893.207	20370
893.33	20092
893.452	20237
893.575	20381
893.697	20343
893.819	20507
893.941	20492
894.064	20412
894.186	20233
894.308	20210
894.43	20339
894.552	20457
894.674	20438
894.796	20240
894.918	20278
895.04	20275
895.161	20381
895.283	20412
895.405	20263
895.526	20286
895.648	20313
895.769	20263
895.891	20263
896.012	20400
896.134	20431
896.255	20282
896.376	20180
896.498	20336
896.619	20431
896.74	20305
896.861	20275
896.982	20807
897.103	20781
897.224	20697
897.345	20564
897.466	20587
897.587	20552
897.708	20712
897.828	20545
897.949	20404
898.07	20294
898.19	20374
898.311	20484
898.431	20503
898.552	20514
898.672	20552
898.792	20530
898.913	20492
899.033	20324
899.153	20172
899.273	20122
899.393	20111
899.513	20328
899.633	20183
899.753	20271
899.873	20054
899.993	20126
900.113	20161
900.232	20115
900.352	20069
900.472	19978
900.591	19898
900.711	19982
900.83	19833
900.95	20107
901.069	20142
901.189	19925
901.308	19597
901.427	19521
901.546	19613
901.665	19506
901.784	19635
901.904	19381
902.023	19289
902.141	19141
902.26	19107
902.379	19103
902.498	19076
902.617	18943
902.735	19099
902.854	19046
902.973	18920
903.091	18844
903.21	18677
903.328	18715
903.446	18593
903.565	18540
903.683	18471
903.801	18433
903.919	18464
904.038	18433
904.156	18380
904.274	18315
904.392	18388
904.51	18235
904.627	18239
904.745	18258
904.863	18247
904.981	18136
905.098	17954
905.216	17988
905.334	17923
905.451	17847
905.569	17908
905.686	17977
905.803	17946
905.921	17695
906.038	17885
906.155	17843
906.272	17615
906.389	17585
906.506	17501
906.623	17486
906.74	17440
906.857	17376
906.974	17288
907.091	17478
907.208	17630
907.324	17471
907.441	17353
907.557	17094
907.674	17102
907.79	17216
907.907	17064
908.023	17235
908.139	17200
908.256	17083
908.372	17067
908.488	17010
908.604	16824
908.72	16755
908.836	16782
908.952	16702
909.068	16854
909.184	16877
909.3	16930
909.415	16831
909.531	16812
909.647	16580
909.762	16527
909.878	16478
909.993	16504
910.108	16424
910.224	16466
910.339	16508
910.454	16356
910.57	16421
910.685	16303
910.8	16440
910.915	16424
911.03	16432
911.145	16147
911.259	16013
911.374	15953
911.489	16112
911.604	16032
911.718	15789
911.833	15766
911.947	15778
912.062	15709
912.176	15941
912.291	16002
912.405	15892
912.519	16105
912.633	16071
912.748	15861
912.862	15770
912.976	15644
913.09	15458
913.204	15580
913.318	15648
913.431	15701
913.545	15747
913.659	15770
913.772	15656
913.886	15431
914	15488
914.113	15454
914.226	15519
914.34	15492
914.453	15222
914.566	15462
914.68	15363
914.793	15298
914.906	15131
915.019	15051
915.132	14998
915.245	15074
915.358	15081
915.47	15036
915.583	15070
915.696	15150
915.809	15173
915.921	15108
916.034	15104
916.146	14975
916.259	14998
916.371	15100
916.483	15001
916.595	14918
916.708	14872
916.82	14963
916.932	14941
917.044	14811
917.156	14746
917.268	14769
917.38	14663
917.491	14686
917.603	14773
917.715	14773
917.826	14739
917.938	14587
918.049	14465
918.161	14606
918.272	14762
918.384	14712
918.495	14651
918.606	14507
918.717	14461
918.828	14404
918.939	14503
919.05	14404
919.161	14450
919.272	14199
919.383	14225
919.494	14374
919.604	14575
919.715	14347
919.826	14267
919.936	14271
920.047	14431
920.157	14450
920.267	14560
920.378	14320
920.488	14408
920.598	14495
920.708	14610
920.818	14514
920.928	14454
921.038	14625
921.148	14556
921.258	14362
921.368	14161
921.477	14103
921.587	14088
921.697	13993
921.806	14096
921.916	13951
922.025	13913
922.134	13753
922.244	13734
922.353	13811
922.462	13662
922.571	13491
922.68	13384
922.789	13362
922.898	13407
923.007	13293
923.116	13365
923.224	13331
923.333	13331
923.442	13133
923.55	13179
923.659	13217
923.767	13251
923.876	13217
923.984	13198
924.092	13122
924.201	13015
924.309	13091
924.417	13126
924.525	12996
924.633	13103
924.741	13959
924.849	12932
924.956	13042
925.064	12829
925.172	12726
925.279	12810
925.387	12753
925.494	12715
925.602	12966
925.709	12833
925.816	12715
925.924	12802
926.031	12852
926.138	12757
926.245	12722
926.352	12631
926.459	12764
926.566	12810
926.673	12726
926.779	12517
926.886	12566
926.993	12372
927.099	12319
927.206	12308
927.312	12407
927.419	12353
927.525	12403
927.631	12418
927.737	12243
927.843	12239
927.95	12148
928.056	12171
928.162	12167
928.267	12266
928.373	12745
928.479	12186
928.585	12060
928.69	12121
928.796	12144
928.901	11904
929.007	11863
929.112	12064
929.218	11901
929.323	11977
929.428	11843
929.533	12045
929.638	11771
929.743	11836
929.848	11855
929.953	11817
930.058	11733
930.163	11623
930.267	11653
930.372	11745
930.477	11497
930.581	11718
930.685	11604
930.79	11497
930.894	11528
930.998	11497
931.103	11528
931.207	11178
931.311	11109
931.415	10961
931.519	10809
931.623	10771
