Data from test_V78500241_3086.txt Node
Date: Fri Mar 25 16:03:10 CST 2022
User: usil
Spectrometer: V785-0024
Trigger mode: 0
Integration Time (sec): 4.000000E-1
Scans to average: 1
Nonlinearity correction enabled: false
Boxcar width: 0
Storing dark spectrum: false
XAxis mode: Wavelengths
Number of Pixels in Spectrum: 1024
>>>>>Begin Spectral Data<<<<<
801.071	28896
801.214	28877
801.356	28561
801.499	28470
801.641	28386
801.783	28352
801.926	28417
802.068	28466
802.211	28306
802.353	28325
802.496	28086
802.638	28120
802.78	28101
802.923	28162
803.065	27991
803.208	28025
803.35	28040
803.492	28169
803.635	28386
803.777	28044
803.919	28394
804.061	28691
804.204	28413
804.346	28226
804.488	28192
804.63	28352
804.773	28158
804.915	28367
805.057	28527
805.199	28398
805.341	28561
805.483	28440
805.626	28455
805.768	28314
805.91	28565
806.052	28538
806.194	28428
806.336	28527
806.478	28512
806.62	28455
806.762	28611
806.904	28805
807.046	29083
807.188	28862
807.33	28904
807.472	28991
807.614	28862
807.756	28930
807.898	28786
808.04	28759
808.182	28710
808.324	28965
808.465	28835
808.607	28999
808.749	29155
808.891	29292
809.033	29417
809.174	29269
809.316	29170
809.458	29204
809.6	29208
809.741	29296
809.883	29261
810.025	29528
810.166	29528
810.308	29528
810.45	29436
810.591	29375
810.733	29147
810.875	29140
811.016	29189
811.158	29117
811.299	29372
811.441	29303
811.582	29254
811.724	29132
811.865	29109
812.007	29200
812.148	29299
812.29	29391
812.431	29414
812.573	29627
812.714	29752
812.855	29771
812.997	29855
813.138	29882
813.279	29916
813.421	29790
813.562	29596
813.703	29490
813.845	29535
813.986	29117
814.127	29003
814.268	28835
814.41	28972
814.551	28809
814.692	29178
814.833	28911
814.974	28991
815.115	28908
815.256	28812
815.397	29014
815.539	28740
815.68	28660
815.821	28573
815.962	28786
816.103	28683
816.244	28702
816.385	28584
816.526	28607
816.666	28299
816.807	28291
816.948	28223
817.089	28363
817.23	28303
817.371	28181
817.512	28367
817.653	28188
817.793	28082
817.934	28284
818.075	28215
818.216	28219
818.356	28287
818.497	28063
818.638	27991
818.778	27960
818.919	27922
819.06	28162
819.2	28131
819.341	28242
819.481	28226
819.622	28466
819.762	28656
819.903	28523
820.043	28341
820.184	28348
820.324	28360
820.465	28455
820.605	28401
820.746	28451
820.886	28284
821.026	28459
821.167	28367
821.307	28428
821.447	28322
821.588	28135
821.728	28032
821.868	27838
822.008	27857
822.149	27660
822.289	27736
822.429	27526
822.569	27450
822.709	27492
822.849	27386
822.99	27169
823.13	27154
823.27	27184
823.41	27055
823.55	26956
823.69	27226
823.83	27108
823.97	26971
824.11	26929
824.25	26807
824.389	26944
824.529	26975
824.669	27020
824.809	27116
824.949	27070
825.089	26998
825.228	26937
825.368	26895
825.508	26724
825.648	26807
825.787	26842
825.927	26815
826.067	26712
826.206	26807
826.346	26929
826.485	26925
826.625	26785
826.765	26773
826.904	26990
827.044	26587
827.183	26473
827.323	26446
827.462	26499
827.601	26484
827.741	26476
827.88	26476
828.02	26446
828.159	26564
828.298	26564
828.437	26625
828.577	26530
828.716	26492
828.855	26347
828.994	26278
829.134	26142
829.273	26229
829.412	26096
829.551	26134
829.69	26149
829.829	26248
829.968	26252
830.107	26320
830.246	26161
830.385	26115
830.524	26153
830.663	25955
830.802	26005
830.941	25784
831.08	25791
831.219	25814
831.357	25947
831.496	25856
831.635	26008
831.774	25582
831.913	25514
832.051	25628
832.19	25563
832.329	25635
832.467	25590
832.606	25464
832.744	25445
832.883	25449
833.022	25422
833.16	25525
833.299	25468
833.437	25586
833.576	25613
833.714	25525
833.852	25685
833.991	25613
834.129	25662
834.267	25586
834.406	25529
834.544	25430
834.682	25392
834.821	25464
834.959	25651
835.097	25487
835.235	25449
835.373	25464
835.511	25483
835.65	25358
835.788	25350
835.926	25240
836.064	25095
836.202	25141
836.34	25350
836.478	25460
836.615	25312
836.753	25373
836.891	25445
837.029	25217
837.167	25236
837.305	25316
837.443	25308
837.58	25217
837.718	25388
837.856	25263
837.993	25141
838.131	25251
838.269	25084
838.406	25084
838.544	25076
838.681	24875
838.819	24890
838.956	24650
839.094	24768
839.231	24585
839.369	24776
839.506	25019
839.643	24878
839.781	24627
839.918	24646
840.055	24525
840.193	24517
840.33	24551
840.467	24574
840.604	24582
840.742	24783
840.879	24334
841.016	24475
841.153	24471
841.29	24574
841.427	24475
841.564	24719
841.701	24532
841.838	24448
841.975	24369
842.112	24422
842.249	24452
842.385	24304
842.522	24467
842.659	24281
842.796	24285
842.933	24296
843.069	24281
843.206	24251
843.343	24342
843.479	24323
843.616	24296
843.752	24201
843.889	24091
844.025	24213
844.162	24220
844.298	24243
844.435	24190
844.571	23954
844.708	24110
844.844	24216
844.98	24319
845.117	24117
845.253	24079
845.389	23885
845.525	23870
845.661	23958
845.798	23840
845.934	23878
846.07	23783
846.206	23832
846.342	23870
846.478	23824
846.614	23653
846.75	23501
846.886	23638
847.022	23672
847.158	23642
847.294	23543
847.429	23661
847.565	23512
847.701	23737
847.837	23185
847.972	23166
848.108	23379
848.244	23326
848.379	23204
848.515	23086
848.65	23197
848.786	23109
848.921	23136
849.057	23162
849.192	23197
849.328	23204
849.463	23064
849.598	23121
849.734	23052
849.869	22965
850.004	22949
850.14	22915
850.275	22782
850.41	22740
850.545	22801
850.68	22668
850.815	22999
850.95	22946
851.085	22972
851.22	22889
851.355	22847
851.49	22877
851.625	22881
851.76	22835
851.895	22923
852.03	22854
852.165	22915
852.299	22892
852.434	22930
852.569	22877
852.703	22915
852.838	22976
852.973	23113
853.107	23098
853.242	22733
853.376	22637
853.511	22455
853.645	22748
853.78	22793
853.914	22763
854.048	22626
854.183	22611
854.317	22656
854.451	22942
854.585	22748
854.72	22778
854.854	22759
854.988	22694
855.122	22774
855.256	22668
855.39	22630
855.524	22702
855.658	22725
855.792	22862
855.926	22733
856.06	22611
856.194	22782
856.327	22675
856.461	22641
856.595	22706
856.729	22786
856.862	22847
856.996	22729
857.13	22854
857.263	22847
857.397	22771
857.53	22710
857.664	22812
857.797	22767
857.931	22862
858.064	22767
858.197	22831
858.331	22812
858.464	22713
858.597	22462
858.731	22702
858.864	22550
858.997	22588
859.13	22649
859.263	22641
859.396	22691
859.529	22717
859.662	22565
859.795	22668
859.928	22691
860.061	22847
860.194	22881
860.327	22869
860.46	22725
860.592	22885
860.725	22816
860.858	22854
860.99	22774
861.123	22550
861.256	22717
861.388	22698
861.521	23391
861.653	22535
861.786	22409
861.918	22527
862.05	22478
862.183	22603
862.315	22675
862.447	22656
862.58	22550
862.712	22470
862.844	22344
862.976	22550
863.108	22531
863.24	22729
863.372	22462
863.504	22314
863.636	22341
863.768	22322
863.9	22413
864.032	22325
864.164	22390
864.296	22405
864.428	22580
864.559	22455
864.691	22481
864.823	22481
864.954	22337
865.086	22379
865.217	22314
865.349	22207
865.48	22299
865.612	22360
865.743	22382
865.875	22344
866.006	22284
866.137	22219
866.269	22322
866.4	22303
866.531	22188
866.662	22200
866.793	22154
866.924	22200
867.055	22188
867.186	22322
867.317	22169
867.448	22185
867.579	22211
867.71	22044
867.841	22131
867.972	22249
868.103	22226
868.233	22211
868.364	22200
868.495	22386
868.625	22394
868.756	22588
868.886	22436
869.017	22390
869.147	22664
869.278	22569
869.408	22432
869.539	22481
869.669	22573
869.799	22462
869.929	22691
870.06	22451
870.19	22740
870.32	22694
870.45	22816
870.58	22858
870.71	22946
870.84	22942
870.97	22911
871.1	22767
871.23	22949
871.36	22987
871.489	22927
871.619	23022
871.749	22980
871.879	23067
872.008	23162
872.138	22965
872.267	23098
872.397	22961
872.526	22801
872.656	22869
872.785	22904
872.915	23086
873.044	23117
873.173	23094
873.303	23143
873.432	23094
873.561	23102
873.69	23193
873.819	23277
873.948	23033
874.077	23113
874.206	23025
874.335	23170
874.464	23117
874.593	23341
874.722	23113
874.851	23261
874.979	23223
875.108	23379
875.237	23200
875.365	23227
875.494	23208
875.623	23414
875.751	23368
875.88	23334
876.008	23318
876.136	23395
876.265	23657
876.393	23707
876.521	23828
876.65	23764
876.778	23657
876.906	23687
877.034	23596
877.162	23585
877.29	23577
877.418	23611
877.546	23596
877.674	23665
877.802	23661
877.93	23657
878.058	23608
878.185	23471
878.313	23566
878.441	23509
878.568	23444
878.696	23520
878.824	23653
878.951	23627
879.079	23745
879.206	23855
879.333	23741
879.461	23707
879.588	23733
879.715	23805
879.842	23863
879.97	23573
880.097	23318
880.224	23471
880.351	23406
880.478	23402
880.605	23455
880.732	23467
880.859	23638
880.986	23433
881.112	23387
881.239	23189
881.366	23220
881.493	23052
881.619	23094
881.746	23056
881.872	23136
881.999	23033
882.125	22885
882.252	22908
882.378	22946
882.505	23181
882.631	22831
882.757	22717
882.883	22831
883.01	22687
883.136	22668
883.262	22443
883.388	22478
883.514	22577
883.64	22687
883.766	22542
883.892	22390
884.018	22436
884.143	22497
884.269	22702
884.395	22371
884.52	22352
884.646	22329
884.772	22333
884.897	22265
885.023	22306
885.148	22466
885.274	22341
885.399	22375
885.524	22188
885.65	22379
885.775	22162
885.9	22238
886.025	22478
886.15	22413
886.275	22310
886.4	22200
886.525	22306
886.65	22173
886.775	22059
886.9	22272
887.025	22325
887.149	22306
887.274	22093
887.399	22128
887.523	22029
887.648	22029
887.773	22086
887.897	22116
888.021	21945
888.146	22040
888.27	22135
888.395	22166
888.519	22036
888.643	22097
888.767	22150
888.891	21968
889.015	21819
889.139	21918
889.263	21739
889.387	21945
889.511	21991
889.635	21888
889.759	21675
889.883	21865
890.006	21835
890.13	21854
890.254	21789
890.377	21762
890.501	21622
890.624	21538
890.748	21675
890.871	21481
890.995	21382
891.118	21363
891.241	21428
891.364	21344
891.488	21492
891.611	21439
891.734	21340
891.857	21496
891.98	21420
892.103	21511
892.226	21382
892.349	21420
892.471	21245
892.594	21332
892.717	21272
892.839	21214
892.962	21260
893.085	21374
893.207	21306
893.33	21233
893.452	21249
893.575	21363
893.697	21237
893.819	21367
893.941	21424
894.064	21488
894.186	21203
894.308	21043
894.43	21344
894.552	21336
894.674	21420
894.796	21154
894.918	21203
895.04	21302
895.161	21313
895.283	21317
895.405	21150
895.526	21218
895.648	21310
895.769	21283
895.891	21195
896.012	21317
896.134	21249
896.255	21252
896.376	21184
896.498	21291
896.619	21104
896.74	21241
896.861	21214
896.982	21553
897.103	21690
897.224	21477
897.345	21405
897.466	21241
897.587	21530
897.708	21591
897.828	21534
897.949	21420
898.07	21283
898.19	21526
898.311	21515
898.431	21348
898.552	21530
898.672	21477
898.792	21599
898.913	21606
899.033	21275
899.153	21203
899.273	21055
899.393	21260
899.513	21199
899.633	21214
899.753	21165
899.873	21104
899.993	21275
900.113	21001
900.232	21089
900.352	21001
900.472	21017
900.591	21051
900.711	21032
900.83	20883
900.95	20937
901.069	21154
901.189	20765
901.308	20621
901.427	20560
901.546	20511
901.665	20549
901.784	20484
901.904	20309
902.023	20225
902.141	20122
902.26	20069
902.379	20084
902.498	19898
902.617	19986
902.735	20027
902.854	19978
902.973	19944
903.091	19620
903.21	19609
903.328	19651
903.446	19590
903.565	19434
903.683	19544
903.801	19278
903.919	19483
904.038	19327
904.156	19304
904.274	19156
904.392	19122
904.51	19187
904.627	19156
904.745	19202
904.863	19145
904.981	19050
905.098	18802
905.216	18939
905.334	18795
905.451	18932
905.569	18776
905.686	18783
905.803	18939
905.921	18726
906.038	18696
906.155	18840
906.272	18635
906.389	18608
906.506	18353
906.623	18388
906.74	18429
906.857	18380
906.974	18216
907.091	18486
907.208	18547
907.324	18391
907.441	18254
907.557	18232
907.674	18136
907.79	18106
907.907	18114
908.023	18053
908.139	18091
908.256	17999
908.372	18102
908.488	17897
908.604	17882
908.72	17771
908.836	17866
908.952	17642
909.068	17805
909.184	17882
909.3	17798
909.415	17882
909.531	17813
909.647	17566
909.762	17539
909.878	17429
909.993	17467
910.108	17543
910.224	17566
910.339	17589
910.454	17318
910.57	17318
910.685	17235
910.8	17497
910.915	17497
911.03	17311
911.145	17056
911.259	17124
911.374	17098
911.489	17075
911.604	16839
911.718	16911
911.833	16877
911.947	16725
912.062	16664
912.176	16866
912.291	16862
912.405	16816
912.519	16987
912.633	16972
912.748	16946
912.862	16771
912.976	16645
913.09	16550
913.204	16599
913.318	16645
913.431	16710
913.545	16637
913.659	16736
913.772	16645
913.886	16443
914	16436
914.113	16584
914.226	16512
914.34	16459
914.453	16303
914.566	16409
914.68	16280
914.793	16238
914.906	16143
915.019	16036
915.132	15949
915.245	16082
915.358	15987
915.47	16040
915.583	16055
915.696	16124
915.809	16017
915.921	16150
916.034	15972
916.146	15873
916.259	15804
916.371	15930
916.483	15899
916.595	15789
916.708	15743
916.82	15797
916.932	15747
917.044	15759
917.156	15709
917.268	15698
917.38	15606
917.491	15538
917.603	15538
917.715	15694
917.826	15724
917.938	15648
918.049	15466
918.161	15603
918.272	15698
918.384	15698
918.495	15599
918.606	15344
918.717	15355
918.828	15450
918.939	15397
919.05	15298
919.161	15348
919.272	15097
919.383	15211
919.494	15412
919.604	15481
919.715	15291
919.826	15112
919.936	15237
920.047	15355
920.157	15351
920.267	15462
920.378	15291
920.488	15340
920.598	15416
920.708	15641
920.818	15439
920.928	15428
921.038	15614
921.148	15557
921.258	15211
921.368	15203
921.477	15005
921.587	15108
921.697	14944
921.806	14994
921.916	14830
922.025	14743
922.134	14758
922.244	14606
922.353	14621
922.462	14655
922.571	14423
922.68	14393
922.789	14355
922.898	14400
923.007	14240
923.116	14358
923.224	14206
923.333	14271
923.442	14149
923.55	14164
923.659	14157
923.767	14164
923.876	14119
923.984	14077
924.092	13970
924.201	14005
924.309	13951
924.417	14031
924.525	14027
924.633	13978
924.741	14758
924.849	13636
924.956	13875
925.064	13632
925.172	13616
925.279	13620
925.387	13685
925.494	13613
925.602	13750
925.709	13662
925.816	13624
925.924	13578
926.031	13666
926.138	13563
926.245	13632
926.352	13480
926.459	13670
926.566	13655
926.673	13445
926.779	13525
926.886	13308
926.993	13270
927.099	13228
927.206	13190
927.312	13198
927.419	13236
927.525	13251
927.631	13221
927.737	13034
927.843	13065
927.95	12920
928.056	13046
928.162	13038
928.267	13019
928.373	13719
928.479	13156
928.585	12806
928.69	13008
928.796	12970
928.901	12844
929.007	12738
929.112	12890
929.218	12848
929.323	12779
929.428	12753
929.533	12806
929.638	12738
929.743	12604
929.848	12749
929.953	12711
930.058	12585
930.163	12471
930.267	12429
930.372	12460
930.477	12350
930.581	12528
930.685	12384
930.79	12292
930.894	12319
930.998	12205
931.103	12315
931.207	11980
931.311	11923
931.415	11817
931.519	11680
931.623	11558
