Data from test_V78500241_186.txt Node
Date: Fri Mar 25 15:43:05 CST 2022
User: usil
Spectrometer: V785-0024
Trigger mode: 0
Integration Time (sec): 4.000000E-1
Scans to average: 1
Nonlinearity correction enabled: false
Boxcar width: 0
Storing dark spectrum: false
XAxis mode: Wavelengths
Number of Pixels in Spectrum: 1024
>>>>>Begin Spectral Data<<<<<
801.071	29608
801.214	29695
801.356	29345
801.499	29307
801.641	29185
801.783	29250
801.926	29471
802.068	29315
802.211	29208
802.353	29056
802.496	28919
802.638	28812
802.78	28942
802.923	28630
803.065	28691
803.208	28786
803.35	28953
803.492	28972
803.635	28987
803.777	28831
803.919	29025
804.061	29258
804.204	29014
804.346	28919
804.488	28763
804.63	28911
804.773	28850
804.915	28930
805.057	29098
805.199	28930
805.341	28980
805.483	29033
805.626	29022
805.768	29014
805.91	29086
806.052	29113
806.194	28854
806.336	29178
806.478	29132
806.62	29052
806.762	29204
806.904	29440
807.046	29497
807.188	29676
807.33	29608
807.472	29653
807.614	29360
807.756	29490
807.898	29474
808.04	29231
808.182	29239
808.324	29220
808.465	29208
808.607	29471
808.749	29608
808.891	29760
809.033	29843
809.174	29737
809.316	29672
809.458	29566
809.6	29577
809.741	29779
809.883	29657
810.025	29935
810.166	29904
810.308	29923
810.45	29901
810.591	29790
810.733	29687
810.875	29661
811.016	29467
811.158	29596
811.299	29874
811.441	29684
811.582	29855
811.724	29691
811.865	29577
812.007	29516
812.148	29592
812.29	29570
812.431	29699
812.573	29878
812.714	29980
812.855	30117
812.997	30068
813.138	30369
813.279	30327
813.421	30277
813.562	29969
813.703	29916
813.845	29958
813.986	29589
814.127	29353
814.268	29360
814.41	29296
814.551	29277
814.692	29204
814.833	29083
814.974	29162
815.115	29292
815.256	28942
815.397	29006
815.539	29056
815.68	28923
815.821	28915
815.962	29128
816.103	28961
816.244	28839
816.385	28797
816.526	28675
816.666	28478
816.807	28390
816.948	28459
817.089	28485
817.23	28531
817.371	28474
817.512	28535
817.653	28371
817.793	28421
817.934	28337
818.075	28386
818.216	28455
818.356	28333
818.497	28306
818.638	28017
818.778	28238
818.919	28097
819.06	28162
819.2	28101
819.341	28375
819.481	28314
819.622	28310
819.762	28611
819.903	28542
820.043	28538
820.184	28489
820.324	28504
820.465	28504
820.605	28295
820.746	28390
820.886	28261
821.026	28352
821.167	28299
821.307	28478
821.447	28242
821.588	28196
821.728	27960
821.868	27991
822.008	27717
822.149	27698
822.289	27686
822.429	27572
822.569	27393
822.709	27321
822.849	27306
822.99	27230
823.13	27199
823.27	27112
823.41	26895
823.55	26857
823.69	27058
823.83	27089
823.97	27058
824.11	26861
824.25	26640
824.389	26830
824.529	26864
824.669	26785
824.809	26948
824.949	26861
825.089	26887
825.228	26982
825.368	26705
825.508	26606
825.648	26530
825.787	26773
825.927	26587
826.067	26625
826.206	26587
826.346	26720
826.485	26750
826.625	26674
826.765	26720
826.904	26549
827.044	26339
827.183	26374
827.323	26324
827.462	26423
827.601	26286
827.741	26389
827.88	26309
828.02	26164
828.159	26336
828.298	26294
828.437	26446
828.577	26210
828.716	26408
828.855	26149
828.994	26035
829.134	25947
829.273	26012
829.412	25799
829.551	25982
829.69	25940
829.829	25989
829.968	25944
830.107	26081
830.246	25860
830.385	25959
830.524	25818
830.663	25750
830.802	25765
830.941	25540
831.08	25445
831.219	25525
831.357	25582
831.496	25807
831.635	25491
831.774	25419
831.913	25396
832.051	25339
832.19	25289
832.329	25293
832.467	25129
832.606	24913
832.744	25099
832.883	25187
833.022	25050
833.16	25133
833.299	25274
833.437	25091
833.576	25141
833.714	25160
833.852	25164
833.991	25099
834.129	25217
834.267	25259
834.406	25118
834.544	25183
834.682	25164
834.821	25160
834.959	25232
835.097	25129
835.235	25164
835.373	25042
835.511	25088
835.65	24928
835.788	24913
835.926	24932
836.064	24802
836.202	24848
836.34	24970
836.478	25057
836.615	24829
836.753	24947
836.891	25000
837.029	25080
837.167	24726
837.305	24844
837.443	24825
837.58	24787
837.718	24875
837.856	24825
837.993	24783
838.131	24814
838.269	24566
838.406	24601
838.544	24646
838.681	24315
838.819	24353
838.956	24372
839.094	24213
839.231	24216
839.369	24296
839.506	24513
839.643	24407
839.781	24239
839.918	23988
840.055	24174
840.193	24155
840.33	23923
840.467	24083
840.604	24133
840.742	24384
840.879	23927
841.016	24152
841.153	24007
841.29	24228
841.427	23999
841.564	24174
841.701	23999
841.838	23961
841.975	23878
842.112	23859
842.249	23775
842.385	23745
842.522	23958
842.659	23935
842.796	23756
842.933	23726
843.069	23676
843.206	23745
843.343	23916
843.479	23809
843.616	23741
843.752	23596
843.889	23551
844.025	23638
844.162	23512
844.298	23649
844.435	23425
844.571	23486
844.708	23509
844.844	23619
844.98	23535
845.117	23570
845.253	23531
845.389	23364
845.525	23368
845.661	23425
845.798	23147
845.934	23265
846.07	23128
846.206	23296
846.342	23307
846.478	23136
846.614	23064
846.75	22930
846.886	22904
847.022	22972
847.158	22927
847.294	22877
847.429	22957
847.565	22965
847.701	23151
847.837	22755
847.972	22611
848.108	22683
848.244	22672
848.379	22554
848.515	22542
848.65	22417
848.786	22474
848.921	22382
849.057	22500
849.192	22538
849.328	22588
849.463	22405
849.598	22402
849.734	22295
849.869	22421
850.004	22135
850.14	22219
850.275	22143
850.41	22078
850.545	22265
850.68	22143
850.815	22246
850.95	22204
851.085	22356
851.22	22230
851.355	22223
851.49	22177
851.625	22017
851.76	22124
851.895	22093
852.03	22101
852.165	22169
852.299	22169
852.434	22291
852.569	22234
852.703	22135
852.838	22276
852.973	22257
853.107	22272
853.242	22025
853.376	22025
853.511	21949
853.645	22036
853.78	22188
853.914	21983
854.048	21934
854.183	21911
854.317	22063
854.451	22173
854.585	21964
854.72	21968
854.854	22074
854.988	21949
855.122	21972
855.256	21884
855.39	21937
855.524	22036
855.658	22010
855.792	21922
855.926	21975
856.06	22048
856.194	22021
856.327	21895
856.461	21857
856.595	21804
856.729	21937
856.862	22082
856.996	22002
857.13	22116
857.263	22002
857.397	22067
857.53	21956
857.664	21941
857.797	22040
857.931	22013
858.064	22021
858.197	22131
858.331	21888
858.464	21922
858.597	21838
858.731	21960
858.864	22036
858.997	21892
859.13	21926
859.263	21850
859.396	22074
859.529	21884
859.662	21903
859.795	21854
859.928	21937
860.061	22124
860.194	22097
860.327	22067
860.46	21850
860.592	21934
860.725	22124
860.858	21991
860.99	21778
861.123	21949
861.256	21838
861.388	21850
861.521	22542
861.653	21854
861.786	21633
861.918	21869
862.05	21766
862.183	21835
862.315	21880
862.447	21930
862.58	21888
862.712	21682
862.844	21622
862.976	21739
863.108	21720
863.24	21949
863.372	21408
863.504	21572
863.636	21614
863.768	21545
863.9	21561
864.032	21591
864.164	21469
864.296	21606
864.428	21660
864.559	21694
864.691	21644
864.823	21511
864.954	21553
865.086	21545
865.217	21477
865.349	21492
865.48	21458
865.612	21530
865.743	21519
865.875	21408
866.006	21336
866.137	21507
866.269	21530
866.4	21458
866.531	21462
866.662	21348
866.793	21378
866.924	21340
867.055	21370
867.186	21344
867.317	21523
867.448	21298
867.579	21405
867.71	21260
867.841	21321
867.972	21428
868.103	21416
868.233	21454
868.364	21363
868.495	21469
868.625	21618
868.756	21785
868.886	21526
869.017	21633
869.147	21789
869.278	21751
869.408	21618
869.539	21591
869.669	21709
869.799	21629
869.929	21675
870.06	21812
870.19	21934
870.32	21869
870.45	21941
870.58	21945
870.71	22154
870.84	22139
870.97	21979
871.1	22036
871.23	22097
871.36	22249
871.489	22109
871.619	22158
871.749	22158
871.879	22272
872.008	22265
872.138	22249
872.267	22177
872.397	22101
872.526	22044
872.656	22055
872.785	22002
872.915	22204
873.044	22352
873.173	22230
873.303	22257
873.432	22322
873.561	22390
873.69	22242
873.819	22086
873.948	22268
874.077	22348
874.206	22204
874.335	22204
874.464	22447
874.593	22428
874.722	22455
874.851	22474
874.979	22538
875.108	22542
875.237	22508
875.365	22341
875.494	22333
875.623	22634
875.751	22440
875.88	22500
876.008	22538
876.136	22653
876.265	22923
876.393	22972
876.521	23079
876.65	22900
876.778	22858
876.906	22771
877.034	22782
877.162	22797
877.29	22858
877.418	22782
877.546	22915
877.674	22816
877.802	22919
877.93	22801
878.058	22634
878.185	22717
878.313	22755
878.441	22831
878.568	22683
878.696	22797
878.824	22786
878.951	22908
879.079	22904
879.206	23109
879.333	22991
879.461	22767
879.588	22885
879.715	22965
879.842	23090
879.97	22938
880.097	22599
880.224	22577
880.351	22656
880.478	22653
880.605	22637
880.732	22683
880.859	22828
880.986	22706
881.112	22474
881.239	22596
881.366	22284
881.493	22284
881.619	22226
881.746	22352
881.872	22276
881.999	22109
882.125	22257
882.252	22120
882.378	22196
882.505	22337
882.631	22116
882.757	22044
882.883	21991
883.01	21979
883.136	21842
883.262	21960
883.388	21770
883.514	21895
883.64	21975
883.766	21930
883.892	21717
884.018	21720
884.143	21808
884.269	21960
884.395	21720
884.52	21431
884.646	21523
884.772	21477
884.897	21359
885.023	21667
885.148	21614
885.274	21690
885.399	21656
885.524	21477
885.65	21458
885.775	21629
885.9	21534
886.025	21675
886.15	21641
886.275	21424
886.4	21481
886.525	21507
886.65	21519
886.775	21568
886.9	21625
887.025	21800
887.149	21549
887.274	21370
887.399	21279
887.523	21192
887.648	21195
887.773	21203
887.897	21306
888.021	21313
888.146	21180
888.27	21386
888.395	21363
888.519	21344
888.643	21340
888.767	21283
888.891	21055
889.015	21077
889.139	21157
889.263	21074
889.387	21222
889.511	21264
889.635	21203
889.759	20990
889.883	21043
890.006	21127
890.13	21180
890.254	20937
890.377	21119
890.501	20918
890.624	20754
890.748	20842
890.871	20678
890.995	20617
891.118	20541
891.241	20682
891.364	20712
891.488	20762
891.611	20575
891.734	20629
891.857	20807
891.98	20629
892.103	20689
892.226	20549
892.349	20457
892.471	20362
892.594	20541
892.717	20697
892.839	20518
892.962	20476
893.085	20678
893.207	20450
893.33	20461
893.452	20385
893.575	20469
893.697	20518
893.819	20689
893.941	20838
894.064	20644
894.186	20556
894.308	20396
894.43	20617
894.552	20648
894.674	20533
894.796	20480
894.918	20533
895.04	20552
895.161	20602
895.283	20495
895.405	20465
895.526	20492
895.648	20568
895.769	20480
895.891	20590
896.012	20667
896.134	20552
896.255	20560
896.376	20423
896.498	20579
896.619	20724
896.74	20469
896.861	20583
896.982	20929
897.103	21123
897.224	20781
897.345	20857
897.466	20674
897.587	20689
897.708	20788
897.828	20830
897.949	20636
898.07	20537
898.19	20754
898.311	20750
898.431	20609
898.552	20830
898.672	20838
898.792	20743
898.913	20693
899.033	20575
899.153	20503
899.273	20381
899.393	20431
899.513	20465
899.633	20476
899.753	20507
899.873	20320
899.993	20320
900.113	20400
900.232	20385
900.352	20469
900.472	20183
900.591	20259
900.711	20214
900.83	20199
900.95	20351
901.069	20214
901.189	20138
901.308	19856
901.427	19803
901.546	19849
901.665	19868
901.784	19826
901.904	19685
902.023	19613
902.141	19384
902.26	19206
902.379	19343
902.498	19206
902.617	19141
902.735	19190
902.854	19206
902.973	19255
903.091	18882
903.21	18913
903.328	18886
903.446	18837
903.565	18764
903.683	18692
903.801	18684
903.919	18646
904.038	18673
904.156	18528
904.274	18604
904.392	18426
904.51	18388
904.627	18536
904.745	18391
904.863	18517
904.981	18327
905.098	18224
905.216	18163
905.334	18220
905.451	18091
905.569	18102
905.686	18106
905.803	18190
905.921	17946
906.038	18068
906.155	17904
906.272	17821
906.389	17885
906.506	17634
906.623	17649
906.74	17695
906.857	17539
906.974	17577
907.091	17786
907.208	17707
907.324	17745
907.441	17501
907.557	17398
907.674	17406
907.79	17258
907.907	17326
908.023	17349
908.139	17239
908.256	17280
908.372	17322
908.488	17166
908.604	17098
908.72	17037
908.836	16968
908.952	17003
909.068	17014
909.184	17174
909.3	16972
909.415	16942
909.531	16980
909.647	16843
909.762	16786
909.878	16801
909.993	16729
910.108	16664
910.224	16721
910.339	16736
910.454	16664
910.57	16554
910.685	16474
910.8	16892
910.915	16660
911.03	16599
911.145	16398
911.259	16344
911.374	16249
911.489	16204
911.604	16101
911.718	16029
911.833	16051
911.947	15861
912.062	16021
912.176	16036
912.291	16150
912.405	16086
912.519	16375
912.633	16223
912.748	15926
912.862	15953
912.976	15838
913.09	15701
913.204	15835
913.318	15827
913.431	15960
913.545	15884
913.659	15892
913.772	15797
913.886	15682
914	15682
914.113	15759
914.226	15713
914.34	15675
914.453	15507
914.566	15648
914.68	15572
914.793	15462
914.906	15275
915.019	15306
915.132	15203
915.245	15283
915.358	15279
915.47	15272
915.583	15245
915.696	15412
915.809	15298
915.921	15416
916.034	15165
916.146	15207
916.259	15188
916.371	15298
916.483	15218
916.595	15142
916.708	15058
916.82	15062
916.932	14933
917.044	15089
917.156	15017
917.268	14895
917.38	14937
917.491	14933
917.603	14815
917.715	14929
917.826	14986
917.938	14849
918.049	14678
918.161	14815
918.272	14956
918.384	14986
918.495	14781
918.606	14606
918.717	14644
918.828	14564
918.939	14727
919.05	14476
919.161	14476
919.272	14370
919.383	14412
919.494	14659
919.604	14815
919.715	14541
919.826	14499
919.936	14507
920.047	14579
920.157	14602
920.267	14765
920.378	14583
920.488	14457
920.598	14629
920.708	14845
920.818	14708
920.928	14594
921.038	14819
921.148	14781
921.258	14579
921.368	14343
921.477	14362
921.587	14218
921.697	14157
921.806	14180
921.916	14164
922.025	14005
922.134	13959
922.244	13898
922.353	13906
922.462	13712
922.571	13715
922.68	13594
922.789	13658
922.898	13556
923.007	13445
923.116	13544
923.224	13548
923.333	13499
923.442	13434
923.55	13343
923.659	13316
923.767	13419
923.876	13407
923.984	13324
924.092	13297
924.201	13251
924.309	13293
924.417	13282
924.525	13312
924.633	13263
924.741	13967
924.849	13069
924.956	13141
925.064	13050
925.172	12977
925.279	12951
925.387	12993
925.494	12973
925.602	13065
925.709	13095
925.816	12798
925.924	12901
926.031	12920
926.138	13008
926.245	12939
926.352	12776
926.459	12962
926.566	12981
926.673	12795
926.779	12779
926.886	12684
926.993	12559
927.099	12593
927.206	12418
927.312	12441
927.419	12574
927.525	12395
927.631	12532
927.737	12475
927.843	12418
927.95	12220
928.056	12338
928.162	12380
928.267	12376
928.373	13031
928.479	12391
928.585	12133
928.69	12304
928.796	12365
928.901	12186
929.007	12083
929.112	12205
929.218	12273
929.323	12079
929.428	12068
929.533	12106
929.638	12015
929.743	12072
929.848	12060
929.953	11942
930.058	11935
930.163	11737
930.267	11748
930.372	11942
930.477	11649
930.581	11916
930.685	11775
930.79	11619
930.894	11646
930.998	11570
931.103	11737
931.207	11311
931.311	11277
931.415	11269
931.519	11060
931.623	11098
