Data from test_V78500241_874.txt Node
Date: Fri Mar 25 15:47:51 CST 2022
User: usil
Spectrometer: V785-0024
Trigger mode: 0
Integration Time (sec): 4.000000E-1
Scans to average: 1
Nonlinearity correction enabled: false
Boxcar width: 0
Storing dark spectrum: false
XAxis mode: Wavelengths
Number of Pixels in Spectrum: 1024
>>>>>Begin Spectral Data<<<<<
801.071	27892
801.214	27789
801.356	27542
801.499	27416
801.641	27336
801.783	27526
801.926	27401
802.068	27408
802.211	27302
802.353	27268
802.496	27184
802.638	27138
802.78	26994
802.923	27017
803.065	27043
803.208	27116
803.35	26998
803.492	27169
803.635	27264
803.777	27058
803.919	27329
804.061	27496
804.204	27195
804.346	27119
804.488	27032
804.63	27256
804.773	27074
804.915	27165
805.057	27222
805.199	27173
805.341	27230
805.483	27272
805.626	27291
805.768	27169
805.91	27332
806.052	27279
806.194	27302
806.336	27583
806.478	27382
806.62	27466
806.762	27496
806.904	27724
807.046	27793
807.188	27732
807.33	27675
807.472	27800
807.614	27812
807.756	27842
807.898	27739
808.04	27523
808.182	27603
808.324	27583
808.465	27652
808.607	27949
808.749	27895
808.891	28078
809.033	28131
809.174	28063
809.316	28044
809.458	27979
809.6	27968
809.741	28204
809.883	28207
810.025	28401
810.166	28276
810.308	28394
810.45	28169
810.591	28147
810.733	28112
810.875	27861
811.016	27873
811.158	27937
811.299	28158
811.441	28055
811.582	28204
811.724	27953
811.865	27994
812.007	27945
812.148	28025
812.29	28070
812.431	28173
812.573	28348
812.714	28478
812.855	28645
812.997	28504
813.138	28904
813.279	28641
813.421	28702
813.562	28546
813.703	28428
813.845	28360
813.986	28021
814.127	27949
814.268	27595
814.41	27808
814.551	27682
814.692	27724
814.833	27736
814.974	27690
815.115	27675
815.256	27481
815.397	27488
815.539	27545
815.68	27466
815.821	27431
815.962	27351
816.103	27439
816.244	27389
816.385	27310
816.526	27310
816.666	27100
816.807	26944
816.948	27070
817.089	27150
817.23	27116
817.371	26994
817.512	27009
817.653	26994
817.793	26842
817.934	27013
818.075	26998
818.216	27074
818.356	26899
818.497	26982
818.638	26765
818.778	26712
818.919	26883
819.06	26868
819.2	26944
819.341	27020
819.481	26990
819.622	27135
819.762	27294
819.903	27081
820.043	27218
820.184	27089
820.324	27036
820.465	27116
820.605	27184
820.746	27081
820.886	27070
821.026	27116
821.167	26956
821.307	27005
821.447	27024
821.588	26902
821.728	26781
821.868	26777
822.008	26488
822.149	26480
822.289	26507
822.429	26218
822.569	26134
822.709	26115
822.849	25955
822.99	25932
823.13	25989
823.27	25986
823.41	25734
823.55	25658
823.69	25799
823.83	25628
823.97	25624
824.11	25594
824.25	25540
824.389	25556
824.529	25757
824.669	25620
824.809	25811
824.949	25742
825.089	25719
825.228	25814
825.368	25529
825.508	25449
825.648	25559
825.787	25628
825.927	25563
826.067	25495
826.206	25499
826.346	25575
826.485	25499
826.625	25479
826.765	25506
826.904	25396
827.044	25194
827.183	25244
827.323	25088
827.462	25156
827.601	25194
827.741	25255
827.88	25126
828.02	25160
828.159	25168
828.298	25213
828.437	25331
828.577	25095
828.716	25327
828.855	25034
828.994	24848
829.134	24924
829.273	25057
829.412	24901
829.551	24829
829.69	24810
829.829	24821
829.968	24985
830.107	24871
830.246	24882
830.385	24802
830.524	24726
830.663	24749
830.802	24677
830.941	24551
831.08	24418
831.219	24631
831.357	24555
831.496	24623
831.635	24483
831.774	24456
831.913	24342
832.051	24308
832.19	24327
832.329	24300
832.467	24289
832.606	24167
832.744	24216
832.883	24125
833.022	24174
833.16	24182
833.299	24186
833.437	24159
833.576	24243
833.714	24384
833.852	24262
833.991	24247
834.129	24292
834.267	24365
834.406	24235
834.544	24281
834.682	24266
834.821	24148
834.959	24334
835.097	24182
835.235	24232
835.373	24155
835.511	24159
835.65	24041
835.788	24091
835.926	23885
836.064	23893
836.202	23950
836.34	24091
836.478	24144
836.615	24076
836.753	24045
836.891	24140
837.029	24095
837.167	24129
837.305	23901
837.443	23912
837.58	23824
837.718	23946
837.856	23889
837.993	23882
838.131	23882
838.269	23790
838.406	23726
838.544	23627
838.681	23551
838.819	23524
838.956	23467
839.094	23356
839.231	23444
839.369	23570
839.506	23748
839.643	23585
839.781	23376
839.918	23414
840.055	23406
840.193	23341
840.33	23258
840.467	23349
840.604	23284
840.742	23619
840.879	23143
841.016	23235
841.153	23254
841.29	23307
841.427	23254
841.564	23433
841.701	23280
841.838	23337
841.975	23227
842.112	23269
842.249	23223
842.385	23113
842.522	23216
842.659	23151
842.796	23083
842.933	23128
843.069	22949
843.206	22995
843.343	23143
843.479	23041
843.616	23029
843.752	22824
843.889	22866
844.025	23086
844.162	22843
844.298	22915
844.435	22687
844.571	22744
844.708	22869
844.844	22984
844.98	22915
845.117	23010
845.253	22847
845.389	22660
845.525	22755
845.661	22706
845.798	22554
845.934	22538
846.07	22485
846.206	22607
846.342	22740
846.478	22516
846.614	22253
846.75	22314
846.886	22158
847.022	22280
847.158	22192
847.294	22394
847.429	22348
847.565	22211
847.701	22508
847.837	22006
847.972	22021
848.108	22173
848.244	22105
848.379	22036
848.515	21956
848.65	21774
848.786	21926
848.921	21926
849.057	22059
849.192	21907
849.328	21854
849.463	21899
849.598	21884
849.734	21770
849.869	21838
850.004	21603
850.14	21732
850.275	21690
850.41	21587
850.545	21477
850.68	21553
850.815	21606
850.95	21610
851.085	21793
851.22	21671
851.355	21660
851.49	21629
851.625	21610
851.76	21564
851.895	21511
852.03	21580
852.165	21591
852.299	21732
852.434	21770
852.569	21701
852.703	21591
852.838	21675
852.973	21873
853.107	21762
853.242	21648
853.376	21523
853.511	21386
853.645	21485
853.78	21629
853.914	21477
854.048	21348
854.183	21473
854.317	21439
854.451	21641
854.585	21397
854.72	21367
854.854	21515
854.988	21344
855.122	21454
855.256	21374
855.39	21351
855.524	21424
855.658	21576
855.792	21580
855.926	21542
856.06	21625
856.194	21557
856.327	21454
856.461	21458
856.595	21359
856.729	21477
856.862	21515
856.996	21485
857.13	21443
857.263	21679
857.397	21526
857.53	21389
857.664	21389
857.797	21595
857.931	21530
858.064	21534
858.197	21603
858.331	21492
858.464	21374
858.597	21359
858.731	21374
858.864	21420
858.997	21389
859.13	21428
859.263	21485
859.396	21473
859.529	21500
859.662	21473
859.795	21473
859.928	21462
860.061	21637
860.194	21671
860.327	21542
860.46	21469
860.592	21663
860.725	21572
860.858	21641
860.99	21568
861.123	21401
861.256	21340
861.388	21496
861.521	22101
861.653	21351
861.786	21199
861.918	21268
862.05	21389
862.183	21393
862.315	21317
862.447	21511
862.58	21389
862.712	21157
862.844	21096
862.976	21287
863.108	21203
863.24	21538
863.372	21192
863.504	21077
863.636	21252
863.768	21230
863.9	21135
864.032	20998
864.164	21001
864.296	21066
864.428	21279
864.559	21256
864.691	21233
864.823	21237
864.954	21214
865.086	21161
865.217	21081
865.349	21028
865.48	21001
865.612	21089
865.743	21062
865.875	21020
866.006	20998
866.137	21127
866.269	21032
866.4	21070
866.531	20952
866.662	21009
866.793	21036
866.924	21013
867.055	21001
867.186	21017
867.317	20960
867.448	20868
867.579	20902
867.71	20975
867.841	20925
867.972	21009
868.103	21020
868.233	21066
868.364	20941
868.495	21142
868.625	21226
868.756	21348
868.886	21222
869.017	21192
869.147	21355
869.278	21431
869.408	21313
869.539	21184
869.669	21287
869.799	21351
869.929	21367
870.06	21310
870.19	21583
870.32	21553
870.45	21511
870.58	21568
870.71	21720
870.84	21660
870.97	21614
871.1	21724
871.23	21686
871.36	21713
871.489	21709
871.619	21812
871.749	21770
871.879	21842
872.008	21934
872.138	21850
872.267	21915
872.397	21709
872.526	21671
872.656	21675
872.785	21603
872.915	21785
873.044	21903
873.173	21831
873.303	21876
873.432	21873
873.561	21998
873.69	21876
873.819	21922
873.948	21960
874.077	21873
874.206	21724
874.335	21812
874.464	21941
874.593	22196
874.722	21972
874.851	22112
874.979	22181
875.108	22090
875.237	22063
875.365	21873
875.494	22078
875.623	22078
875.751	22143
875.88	22051
876.008	22063
876.136	22257
876.265	22508
876.393	22584
876.521	22599
876.65	22519
876.778	22398
876.906	22375
877.034	22356
877.162	22405
877.29	22402
877.418	22348
877.546	22466
877.674	22390
877.802	22421
877.93	22348
878.058	22485
878.185	22295
878.313	22284
878.441	22428
878.568	22223
878.696	22409
878.824	22481
878.951	22512
879.079	22535
879.206	22767
879.333	22489
879.461	22466
879.588	22493
879.715	22527
879.842	22721
879.97	22459
880.097	22246
880.224	22265
880.351	22333
880.478	22223
880.605	22265
880.732	22249
880.859	22352
880.986	22287
881.112	22306
881.239	22078
881.366	22002
881.493	21800
881.619	21865
881.746	21846
881.872	21861
881.999	21823
882.125	21789
882.252	21838
882.378	21728
882.505	21880
882.631	21766
882.757	21591
882.883	21553
883.01	21447
883.136	21507
883.262	21496
883.388	21393
883.514	21618
883.64	21568
883.766	21355
883.892	21367
884.018	21374
884.143	21553
884.269	21507
884.395	21272
884.52	21230
884.646	21127
884.772	21036
884.897	20998
885.023	21116
885.148	21245
885.274	21401
885.399	21313
885.524	21047
885.65	21074
885.775	21260
885.9	21081
886.025	21230
886.15	21230
886.275	21081
886.4	21001
886.525	21138
886.65	21093
886.775	21055
886.9	21374
887.025	21439
887.149	21066
887.274	20918
887.399	20956
887.523	20937
887.648	20880
887.773	20906
887.897	20998
888.021	20880
888.146	20819
888.27	21081
888.395	21039
888.519	20925
888.643	21089
888.767	21028
888.891	20853
889.015	20667
889.139	20800
889.263	20621
889.387	20750
889.511	21001
889.635	20861
889.759	20754
889.883	20686
890.006	20667
890.13	20762
890.254	20640
890.377	20541
890.501	20400
890.624	20476
890.748	20564
890.871	20415
890.995	20248
891.118	20263
891.241	20343
891.364	20298
891.488	20415
891.611	20278
891.734	20286
891.857	20374
891.98	20252
892.103	20374
892.226	20282
892.349	20248
892.471	20077
892.594	20271
892.717	20172
892.839	20218
892.962	20218
893.085	20225
893.207	20233
893.33	20027
893.452	20138
893.575	20210
893.697	20065
893.819	20290
893.941	20370
894.064	20290
894.186	20145
894.308	20046
894.43	20362
894.552	20362
894.674	20343
894.796	20043
894.918	20134
895.04	20027
895.161	20278
895.283	20336
895.405	20195
895.526	20202
895.648	20214
895.769	20355
895.891	20164
896.012	20252
896.134	20324
896.255	20210
896.376	20206
896.498	20164
896.619	20301
896.74	20119
896.861	20115
896.982	20484
897.103	20609
897.224	20461
897.345	20454
897.466	20396
897.587	20309
897.708	20442
897.828	20457
897.949	20400
898.07	20305
898.19	20415
898.311	20484
898.431	20400
898.552	20366
898.672	20442
898.792	20514
898.913	20476
899.033	20259
899.153	20187
899.273	20172
899.393	20210
899.513	20119
899.633	20240
899.753	20336
899.873	20069
899.993	20267
900.113	20046
900.232	20077
900.352	20100
900.472	20054
900.591	19849
900.711	20008
900.83	19849
900.95	19970
901.069	19917
901.189	19795
901.308	19708
901.427	19384
901.546	19548
901.665	19605
901.784	19578
901.904	19365
902.023	19198
902.141	19133
902.26	19042
902.379	19072
902.498	18958
902.617	19042
902.735	19031
902.854	18996
902.973	18875
903.091	18791
903.21	18741
903.328	18635
903.446	18547
903.565	18608
903.683	18486
903.801	18334
903.919	18433
904.038	18483
904.156	18197
904.274	18201
904.392	18190
904.51	18232
904.627	18304
904.745	18213
904.863	18353
904.981	18136
905.098	17908
905.216	17988
905.334	17931
905.451	17931
905.569	17889
905.686	17946
905.803	17866
905.921	17710
906.038	17878
906.155	17767
906.272	17566
906.389	17703
906.506	17554
906.623	17493
906.74	17589
906.857	17299
906.974	17391
907.091	17524
907.208	17627
907.324	17600
907.441	17398
907.557	17273
907.674	17311
907.79	17045
907.907	17086
908.023	17254
908.139	17212
908.256	17071
908.372	17124
908.488	17090
908.604	16911
908.72	16946
908.836	17025
908.952	16862
909.068	16843
909.184	17128
909.3	16862
909.415	16927
909.531	16957
909.647	16637
909.762	16527
909.878	16672
909.993	16675
910.108	16538
910.224	16573
910.339	16611
910.454	16538
910.57	16504
910.685	16360
910.8	16710
910.915	16527
911.03	16481
911.145	16291
911.259	16219
911.374	16268
911.489	16162
911.604	16025
911.718	16002
911.833	15968
911.947	15842
912.062	15747
912.176	15964
912.291	15998
912.405	15956
912.519	16120
912.633	16101
912.748	15953
912.862	15835
912.976	15709
913.09	15667
913.204	15816
913.318	15759
913.431	15785
913.545	15903
913.659	15857
913.772	15774
913.886	15492
914	15633
914.113	15637
914.226	15633
914.34	15564
914.453	15500
914.566	15553
914.68	15488
914.793	15386
914.906	15287
915.019	15249
915.132	15150
915.245	15173
915.358	15173
915.47	15104
915.583	15123
915.696	15161
915.809	15298
915.921	15332
916.034	15180
916.146	15047
916.259	14975
916.371	15100
916.483	15184
916.595	15077
916.708	14994
916.82	15020
916.932	14990
917.044	14960
917.156	14967
917.268	14853
917.38	14800
917.491	14830
917.603	15039
917.715	14975
917.826	14880
917.938	14773
918.049	14735
918.161	14765
918.272	14868
918.384	14929
918.495	14659
918.606	14644
918.717	14575
918.828	14575
918.939	14705
919.05	14503
919.161	14606
919.272	14385
919.383	14575
919.494	14644
919.604	14773
919.715	14575
919.826	14495
919.936	14594
920.047	14682
920.157	14587
920.267	14842
920.378	14625
920.488	14564
920.598	14769
920.708	14929
920.818	14625
920.928	14522
921.038	14891
921.148	14777
921.258	14503
921.368	14396
921.477	14313
921.587	14336
921.697	14214
921.806	14381
921.916	14180
922.025	14020
922.134	14005
922.244	13921
922.353	14058
922.462	13822
922.571	13780
922.68	13658
922.789	13681
922.898	13597
923.007	13601
923.116	13647
923.224	13594
923.333	13681
923.442	13457
923.55	13407
923.659	13514
923.767	13476
923.876	13434
923.984	13457
924.092	13236
924.201	13384
924.309	13346
924.417	13354
924.525	13297
924.633	13312
924.741	14191
924.849	13023
924.956	13164
925.064	13107
925.172	12939
925.279	13027
925.387	13015
925.494	13057
925.602	13118
925.709	13110
925.816	12962
925.924	12973
926.031	13034
926.138	12989
926.245	12993
926.352	12897
926.459	12924
926.566	13019
926.673	12875
926.779	12810
926.886	12726
926.993	12662
927.099	12566
927.206	12460
927.312	12517
927.419	12616
927.525	12570
927.631	12532
927.737	12475
927.843	12342
927.95	12311
928.056	12380
928.162	12433
928.267	12414
928.373	13004
928.479	12433
928.585	12209
928.69	12399
928.796	12429
928.901	12186
929.007	12159
929.112	12247
929.218	12266
929.323	12239
929.428	12144
929.533	12167
929.638	11950
929.743	12091
929.848	12171
929.953	12121
930.058	11984
930.163	11866
930.267	11783
930.372	11961
930.477	11779
930.581	11999
930.685	11851
930.79	11699
930.894	11661
930.998	11619
931.103	11771
931.207	11535
931.311	11444
931.415	11231
931.519	11102
931.623	11094
