Data from test_V78500241_837.txt Node
Date: Fri Mar 25 15:47:35 CST 2022
User: usil
Spectrometer: V785-0024
Trigger mode: 0
Integration Time (sec): 4.000000E-1
Scans to average: 1
Nonlinearity correction enabled: false
Boxcar width: 0
Storing dark spectrum: false
XAxis mode: Wavelengths
Number of Pixels in Spectrum: 1024
>>>>>Begin Spectral Data<<<<<
801.071	27477
801.214	27424
801.356	27283
801.499	27032
801.641	27028
801.783	27001
801.926	27070
802.068	26921
802.211	26982
802.353	26914
802.496	26655
802.638	26667
802.78	26792
802.923	26670
803.065	26625
803.208	26495
803.35	26667
803.492	26811
803.635	26948
803.777	26739
803.919	26876
804.061	27249
804.204	26979
804.346	26785
804.488	26804
804.63	26823
804.773	26762
804.915	26891
805.057	26952
805.199	26746
805.341	27047
805.483	26998
805.626	26880
805.768	26883
805.91	26979
806.052	26963
806.194	26891
806.336	27032
806.478	27089
806.62	26918
806.762	27039
806.904	27119
807.046	27405
807.188	27466
807.33	27412
807.472	27435
807.614	27184
807.756	27317
807.898	27230
808.04	27138
808.182	27157
808.324	27093
808.465	27401
808.607	27443
808.749	27549
808.891	27633
809.033	27892
809.174	27736
809.316	27538
809.458	27629
809.6	27530
809.741	27671
809.883	27861
810.025	27903
810.166	27960
810.308	27778
810.45	27861
810.591	27911
810.733	27679
810.875	27466
811.016	27519
811.158	27557
811.299	27591
811.441	27781
811.582	27633
811.724	27603
811.865	27519
812.007	27523
812.148	27542
812.29	27606
812.431	27831
812.573	27941
812.714	27964
812.855	27998
812.997	28192
813.138	28215
813.279	28261
813.421	28238
813.562	28093
813.703	27987
813.845	27918
813.986	27424
814.127	27291
814.268	27245
814.41	27336
814.551	27332
814.692	27401
814.833	27131
814.974	27233
815.115	27252
815.256	27089
815.397	27195
815.539	27039
815.68	27119
815.821	26975
815.962	27013
816.103	27180
816.244	26963
816.385	26857
816.526	26842
816.666	26617
816.807	26560
816.948	26533
817.089	26663
817.23	26697
817.371	26579
817.512	26549
817.653	26355
817.793	26355
817.934	26503
818.075	26537
818.216	26777
818.356	26476
818.497	26453
818.638	26263
818.778	26408
818.919	26336
819.06	26336
819.2	26389
819.341	26609
819.481	26511
819.622	26834
819.762	26765
819.903	26773
820.043	26735
820.184	26697
820.324	26648
820.465	26731
820.605	26743
820.746	26632
820.886	26427
821.026	26499
821.167	26571
821.307	26655
821.447	26682
821.588	26583
821.728	26317
821.868	26237
822.008	25997
822.149	26050
822.289	25978
822.429	25807
822.569	25658
822.709	25670
822.849	25537
822.99	25438
823.13	25544
823.27	25377
823.41	25403
823.55	25187
823.69	25343
823.83	25362
823.97	25419
824.11	25122
824.25	25095
824.389	25031
824.529	25320
824.669	25206
824.809	25236
824.949	25324
825.089	25187
825.228	25091
825.368	25091
825.508	25080
825.648	24943
825.787	25145
825.927	25084
826.067	24981
826.206	25031
826.346	25038
826.485	24973
826.625	24962
826.765	25099
826.904	25072
827.044	24935
827.183	24734
827.323	24753
827.462	24856
827.601	24639
827.741	24719
827.88	24776
828.02	24661
828.159	24726
828.298	24814
828.437	24867
828.577	24658
828.716	24776
828.855	24734
828.994	24315
829.134	24448
829.273	24578
829.412	24475
829.551	24304
829.69	24350
829.829	24445
829.968	24608
830.107	24467
830.246	24292
830.385	24353
830.524	24209
830.663	24220
830.802	24186
830.941	23969
831.08	24003
831.219	24098
831.357	24041
831.496	24315
831.635	24087
831.774	23946
831.913	23840
832.051	23752
832.19	23786
832.329	23824
832.467	23665
832.606	23646
832.744	23604
832.883	23745
833.022	23577
833.16	23741
833.299	23863
833.437	23699
833.576	23722
833.714	23714
833.852	23813
833.991	23779
834.129	23710
834.267	23756
834.406	23783
834.544	23680
834.682	23737
834.821	23794
834.959	23927
835.097	23691
835.235	23817
835.373	23676
835.511	23832
835.65	23566
835.788	23573
835.926	23410
836.064	23421
836.202	23478
836.34	23668
836.478	23653
836.615	23668
836.753	23554
836.891	23680
837.029	23661
837.167	23543
837.305	23558
837.443	23554
837.58	23372
837.718	23417
837.856	23486
837.993	23414
838.131	23414
838.269	23181
838.406	23459
838.544	23254
838.681	23128
838.819	23117
838.956	22968
839.094	22904
839.231	22961
839.369	23064
839.506	23121
839.643	23067
839.781	22919
839.918	22854
840.055	22934
840.193	22957
840.33	22854
840.467	22839
840.604	22987
840.742	23010
840.879	22675
841.016	22858
841.153	22782
841.29	23044
841.427	22866
841.564	22927
841.701	22919
841.838	22729
841.975	22763
842.112	22752
842.249	22603
842.385	22717
842.522	22786
842.659	22679
842.796	22611
842.933	22656
843.069	22618
843.206	22580
843.343	22649
843.479	22588
843.616	22481
843.752	22367
843.889	22363
844.025	22462
844.162	22409
844.298	22440
844.435	22207
844.571	22226
844.708	22379
844.844	22443
844.98	22432
845.117	22379
845.253	22337
845.389	22177
845.525	22314
845.661	22166
845.798	22109
845.934	22135
846.07	22070
846.206	22116
846.342	22173
846.478	21987
846.614	21911
846.75	21865
846.886	21766
847.022	21911
847.158	21842
847.294	21766
847.429	21922
847.565	21770
847.701	22013
847.837	21428
847.972	21447
848.108	21644
848.244	21701
848.379	21450
848.515	21420
848.65	21359
848.786	21473
848.921	21462
849.057	21507
849.192	21428
849.328	21420
849.463	21374
849.598	21416
849.734	21363
849.869	21321
850.004	21188
850.14	21222
850.275	21093
850.41	21123
850.545	21089
850.68	21058
850.815	21184
850.95	21195
851.085	21230
851.22	21351
851.355	21226
851.49	21131
851.625	20929
851.76	21096
851.895	21096
852.03	21085
852.165	21154
852.299	21218
852.434	21127
852.569	21214
852.703	21233
852.838	21264
852.973	21256
853.107	21214
853.242	21085
853.376	21093
853.511	20895
853.645	20906
853.78	21180
853.914	21024
854.048	21017
854.183	20826
854.317	21165
854.451	21146
854.585	21043
854.72	20967
854.854	21157
854.988	21024
855.122	20868
855.256	20830
855.39	20929
855.524	21173
855.658	21180
855.792	21077
855.926	20880
856.06	21119
856.194	21203
856.327	20998
856.461	20982
856.595	20902
856.729	20921
856.862	21138
856.996	21077
857.13	21055
857.263	21275
857.397	21135
857.53	21009
857.664	21005
857.797	21150
857.931	21131
858.064	20921
858.197	21062
858.331	20967
858.464	20956
858.597	20960
858.731	20990
858.864	20979
858.997	20963
859.13	21070
859.263	20994
859.396	21074
859.529	21032
859.662	20982
859.795	20910
859.928	21070
860.061	21142
860.194	21146
860.327	20944
860.46	21058
860.592	21116
860.725	21207
860.858	21131
860.99	21005
861.123	21001
861.256	20921
861.388	20941
861.521	21557
861.653	20864
861.786	20743
861.918	20826
862.05	20849
862.183	21062
862.315	20929
862.447	20914
862.58	20918
862.712	20629
862.844	20632
862.976	20845
863.108	20807
863.24	21294
863.372	20659
863.504	20678
863.636	20682
863.768	20796
863.9	20765
864.032	20636
864.164	20716
864.296	20823
864.428	20899
864.559	20834
864.691	20819
864.823	20796
864.954	20617
865.086	20724
865.217	20575
865.349	20606
865.48	20587
865.612	20739
865.743	20693
865.875	20697
866.006	20613
866.137	20613
866.269	20632
866.4	20522
866.531	20537
866.662	20549
866.793	20503
866.924	20545
867.055	20556
867.186	20476
867.317	20488
867.448	20377
867.579	20507
867.71	20442
867.841	20454
867.972	20503
868.103	20587
868.233	20473
868.364	20568
868.495	20602
868.625	20758
868.756	20979
868.886	20819
869.017	20743
869.147	20921
869.278	20876
869.408	20842
869.539	20815
869.669	20830
869.799	20868
869.929	20891
870.06	20914
870.19	21161
870.32	21036
870.45	21081
870.58	21150
870.71	21294
870.84	21264
870.97	21116
871.1	21176
871.23	21507
871.36	21374
871.489	21397
871.619	21408
871.749	21389
871.879	21408
872.008	21435
872.138	21336
872.267	21466
872.397	21237
872.526	21287
872.656	21291
872.785	21249
872.915	21511
873.044	21466
873.173	21523
873.303	21389
873.432	21439
873.561	21595
873.69	21348
873.819	21500
873.948	21568
874.077	21515
874.206	21313
874.335	21439
874.464	21469
874.593	21614
874.722	21648
874.851	21736
874.979	21694
875.108	21686
875.237	21671
875.365	21477
875.494	21469
875.623	21728
875.751	21580
875.88	21652
876.008	21766
876.136	21937
876.265	22002
876.393	22105
876.521	22067
876.65	22169
876.778	21964
876.906	22029
877.034	21991
877.162	21937
877.29	21983
877.418	22017
877.546	21968
877.674	22010
877.802	21998
877.93	22002
878.058	21892
878.185	21823
878.313	21964
878.441	21930
878.568	21831
878.696	21930
878.824	22063
878.951	21956
879.079	22070
879.206	22303
879.333	22211
879.461	21979
879.588	22246
879.715	22135
879.842	22276
879.97	22112
880.097	21911
880.224	21804
880.351	21793
880.478	21850
880.605	21759
880.732	21789
880.859	22101
880.986	21876
881.112	21808
881.239	21751
881.366	21545
881.493	21511
881.619	21344
881.746	21447
881.872	21386
881.999	21401
882.125	21424
882.252	21420
882.378	21500
882.505	21606
882.631	21192
882.757	21150
882.883	21161
883.01	21066
883.136	21058
883.262	21055
883.388	20910
883.514	20998
883.64	21157
883.766	21100
883.892	20948
884.018	20895
884.143	21047
884.269	21157
884.395	20773
884.52	20788
884.646	20777
884.772	20785
884.897	20663
885.023	20727
885.148	20781
885.274	20876
885.399	20811
885.524	20887
885.65	20781
885.775	20689
885.9	20754
886.025	20849
886.15	20845
886.275	20712
886.4	20632
886.525	20811
886.65	20689
886.775	20708
886.9	20739
887.025	20933
887.149	20648
887.274	20511
887.399	20571
887.523	20518
887.648	20347
887.773	20450
887.897	20511
888.021	20640
888.146	20442
888.27	20613
888.395	20621
888.519	20526
888.643	20568
888.767	20419
888.891	20461
889.015	20320
889.139	20324
889.263	20320
889.387	20473
889.511	20442
889.635	20503
889.759	20298
889.883	20286
890.006	20248
890.13	20450
890.254	20298
890.377	20252
890.501	20130
890.624	20138
890.748	20145
890.871	20024
890.995	19913
891.118	19833
891.241	19970
891.364	19909
891.488	20035
891.611	19970
891.734	19940
891.857	19978
891.98	19951
892.103	19925
892.226	19978
892.349	19799
892.471	19738
892.594	19837
892.717	19765
892.839	19757
892.962	19727
893.085	19997
893.207	19734
893.33	19734
893.452	19830
893.575	19875
893.697	19852
893.819	20001
893.941	19955
894.064	20001
894.186	19826
894.308	19727
894.43	19856
894.552	19993
894.674	19909
894.796	19670
894.918	19826
895.04	19795
895.161	19860
895.283	19913
895.405	19723
895.526	19814
895.648	19799
895.769	19814
895.891	19772
896.012	20001
896.134	19887
896.255	19799
896.376	19845
896.498	19811
896.619	19917
896.74	19700
896.861	19917
896.982	20164
897.103	20332
897.224	20088
897.345	20035
897.466	19989
897.587	19890
897.708	20221
897.828	20142
897.949	20058
898.07	19841
898.19	19940
898.311	20050
898.431	20172
898.552	20142
898.672	20001
898.792	20157
898.913	20046
899.033	20092
899.153	19906
899.273	19780
899.393	19772
899.513	19894
899.633	19864
899.753	19864
899.873	19807
899.993	19849
900.113	19757
900.232	19670
900.352	19685
900.472	19620
900.591	19529
900.711	19632
900.83	19582
900.95	19780
901.069	19677
901.189	19491
901.308	19228
901.427	19183
901.546	19175
901.665	19285
901.784	19168
901.904	19053
902.023	18894
902.141	18768
902.26	18798
902.379	18886
902.498	18787
902.617	18646
902.735	18681
902.854	18688
902.973	18604
903.091	18608
903.21	18399
903.328	18372
903.446	18334
903.565	18235
903.683	18186
903.801	18041
903.919	18045
904.038	18072
904.156	17996
904.274	18034
904.392	17916
904.51	17878
904.627	17840
904.745	17931
904.863	17961
904.981	17775
905.098	17589
905.216	17638
905.334	17722
905.451	17608
905.569	17570
905.686	17611
905.803	17710
905.921	17535
906.038	17554
906.155	17543
906.272	17356
906.389	17261
906.506	17045
906.623	17162
906.74	17132
906.857	17174
906.974	17102
907.091	17200
907.208	17261
907.324	17204
907.441	17041
907.557	16828
907.674	16850
907.79	16698
907.907	16866
908.023	16896
908.139	16835
908.256	16729
908.372	16755
908.488	16649
908.604	16615
908.72	16481
908.836	16508
908.952	16504
909.068	16599
909.184	16721
909.3	16615
909.415	16596
909.531	16596
909.647	16371
909.762	16276
909.878	16356
909.993	16325
910.108	16299
910.224	16299
910.339	16287
910.454	16169
910.57	16040
910.685	16109
910.8	16405
910.915	16280
911.03	16124
911.145	15964
911.259	15983
911.374	15895
911.489	15876
911.604	15762
911.718	15675
911.833	15682
911.947	15485
912.062	15553
912.176	15667
912.291	15671
912.405	15751
912.519	15800
912.633	15819
912.748	15584
912.862	15705
912.976	15564
913.09	15348
913.204	15473
913.318	15382
913.431	15469
913.545	15473
913.659	15564
913.772	15526
913.886	15275
914	15226
914.113	15279
914.226	15443
914.34	15363
914.453	15135
914.566	15230
914.68	15245
914.793	15150
914.906	15047
915.019	14906
915.132	14773
915.245	14914
915.358	14899
915.47	14876
915.583	14826
915.696	14971
915.809	14937
915.921	14925
916.034	14887
916.146	14735
916.259	14826
916.371	14845
916.483	14788
916.595	14823
916.708	14750
916.82	14727
916.932	14678
917.044	14636
917.156	14636
917.268	14549
917.38	14598
917.491	14594
917.603	14549
917.715	14583
917.826	14571
917.938	14507
918.049	14427
918.161	14526
918.272	14606
918.384	14606
918.495	14488
918.606	14309
918.717	14278
918.828	14351
918.939	14362
919.05	14275
919.161	14332
919.272	14081
919.383	14123
919.494	14351
919.604	14507
919.715	14278
919.826	14145
919.936	14221
920.047	14332
920.157	14248
920.267	14564
920.378	14282
920.488	14275
920.598	14389
920.708	14537
920.818	14488
920.928	14374
921.038	14606
921.148	14503
921.258	14259
921.368	14111
921.477	14134
921.587	14046
921.697	13986
921.806	13993
921.916	13925
922.025	13849
922.134	13605
922.244	13677
922.353	13647
922.462	13563
922.571	13521
922.68	13343
922.789	13301
922.898	13327
923.007	13251
923.116	13266
923.224	13354
923.333	13343
923.442	13213
923.55	13202
923.659	13149
923.767	13202
923.876	13091
923.984	13122
924.092	13076
924.201	13114
924.309	12996
924.417	13031
924.525	12993
924.633	13019
924.741	13913
924.849	12829
924.956	12932
925.064	12734
925.172	12741
925.279	12700
925.387	12814
925.494	12749
925.602	12928
925.709	12776
925.816	12658
925.924	12719
926.031	12719
926.138	12738
926.245	12684
926.352	12650
926.459	12810
926.566	12757
926.673	12620
926.779	12540
926.886	12532
926.993	12388
927.099	12300
927.206	12243
927.312	12243
927.419	12338
927.525	12327
927.631	12285
927.737	12243
927.843	12190
927.95	12057
928.056	12060
928.162	12152
928.267	12163
928.373	12848
928.479	12163
928.585	12022
928.69	12079
928.796	12205
928.901	12049
929.007	11809
929.112	12030
929.218	12049
929.323	11874
929.428	11920
929.533	12053
929.638	11783
929.743	11688
929.848	11920
929.953	11764
930.058	11718
930.163	11611
930.267	11608
930.372	11745
930.477	11516
930.581	11707
930.685	11630
930.79	11444
930.894	11436
930.998	11368
931.103	11539
931.207	11162
931.311	11143
931.415	11121
931.519	10919
931.623	10843
