Data from test_V78500241_1750.txt Node
Date: Fri Mar 25 15:53:55 CST 2022
User: usil
Spectrometer: V785-0024
Trigger mode: 0
Integration Time (sec): 4.000000E-1
Scans to average: 1
Nonlinearity correction enabled: false
Boxcar width: 0
Storing dark spectrum: false
XAxis mode: Wavelengths
Number of Pixels in Spectrum: 1024
>>>>>Begin Spectral Data<<<<<
801.071	28721
801.214	28645
801.356	28261
801.499	28443
801.641	28029
801.783	28135
801.926	28166
802.068	28070
802.211	28124
802.353	28070
802.496	27857
802.638	27918
802.78	27766
802.923	27918
803.065	27797
803.208	27823
803.35	27838
803.492	27911
803.635	28055
803.777	27960
803.919	28082
804.061	28390
804.204	28131
804.346	28055
804.488	28017
804.63	28230
804.773	28017
804.915	28329
805.057	28287
805.199	27907
805.341	28139
805.483	28337
805.626	28379
805.768	28219
805.91	28192
806.052	28246
806.194	28135
806.336	28386
806.478	28337
806.62	28238
806.762	28470
806.904	28538
807.046	28812
807.188	28706
807.33	28698
807.472	28763
807.614	28645
807.756	28592
807.898	28504
808.04	28588
808.182	28478
808.324	28519
808.465	28713
808.607	28748
808.749	29029
808.891	29155
809.033	29083
809.174	28900
809.316	28942
809.458	28866
809.6	28820
809.741	29193
809.883	29098
810.025	29318
810.166	29261
810.308	29162
810.45	29261
810.591	29143
810.733	28968
810.875	28942
811.016	28797
811.158	28900
811.299	29018
811.441	29117
811.582	29086
811.724	28987
811.865	28915
812.007	28965
812.148	28938
812.29	29067
812.431	29086
812.573	29280
812.714	29452
812.855	29455
812.997	29577
813.138	29783
813.279	29668
813.421	29520
813.562	29353
813.703	29265
813.845	29178
813.986	28961
814.127	28786
814.268	28596
814.41	28603
814.551	28733
814.692	28694
814.833	28759
814.974	28672
815.115	28763
815.256	28577
815.397	28641
815.539	28664
815.68	28474
815.821	28478
815.962	28691
816.103	28443
816.244	28223
816.385	28265
816.526	28280
816.666	27998
816.807	27819
816.948	28082
817.089	28070
817.23	28032
817.371	27903
817.512	27937
817.653	27914
817.793	27770
817.934	28112
818.075	28059
818.216	28006
818.356	27975
818.497	27884
818.638	27656
818.778	27701
818.919	27686
819.06	27838
819.2	27907
819.341	27968
819.481	28097
819.622	28223
819.762	28318
819.903	28223
820.043	28090
820.184	28128
820.324	28131
820.465	28200
820.605	28154
820.746	27994
820.886	27918
821.026	28010
821.167	28150
821.307	28200
821.447	27907
821.588	27857
821.728	27857
821.868	27618
822.008	27500
822.149	27504
822.289	27393
822.429	27203
822.569	27077
822.709	27298
822.849	26967
822.99	26998
823.13	27020
823.27	26940
823.41	26838
823.55	26621
823.69	26686
823.83	26727
823.97	26731
824.11	26625
824.25	26484
824.389	26587
824.529	26727
824.669	26693
824.809	26838
824.949	26750
825.089	26720
825.228	26644
825.368	26438
825.508	26480
825.648	26492
825.787	26568
825.927	26663
826.067	26476
826.206	26317
826.346	26514
826.485	26476
826.625	26503
826.765	26667
826.904	26625
827.044	26370
827.183	26218
827.323	26172
827.462	26244
827.601	26077
827.741	26298
827.88	26111
828.02	26153
828.159	26282
828.298	26252
828.437	26332
828.577	26115
828.716	26183
828.855	26081
828.994	26050
829.134	25963
829.273	25932
829.412	25944
829.551	25925
829.69	25898
829.829	25955
829.968	25989
830.107	26039
830.246	26084
830.385	25822
830.524	25879
830.663	25860
830.802	25556
830.941	25438
831.08	25563
831.219	25552
831.357	25575
831.496	25765
831.635	25521
831.774	25331
831.913	25335
832.051	25358
832.19	25202
832.329	25236
832.467	25084
832.606	25137
832.744	25114
832.883	25019
833.022	25160
833.16	25213
833.299	25183
833.437	25278
833.576	25160
833.714	25213
833.852	25339
833.991	25369
834.129	25335
834.267	25247
834.406	25168
834.544	25194
834.682	25324
834.821	25141
834.959	25483
835.097	25088
835.235	25247
835.373	25084
835.511	25278
835.65	25118
835.788	25072
835.926	25000
836.064	24909
836.202	24825
836.34	25152
836.478	25114
836.615	24954
836.753	25072
836.891	25091
837.029	25091
837.167	24916
837.305	24954
837.443	24943
837.58	24852
837.718	24951
837.856	24882
837.993	24791
838.131	24894
838.269	24757
838.406	24817
838.544	24654
838.681	24642
838.819	24525
838.956	24228
839.094	24346
839.231	24372
839.369	24658
839.506	24798
839.643	24574
839.781	24201
839.918	24289
840.055	24273
840.193	24266
840.33	24163
840.467	24232
840.604	24251
840.742	24608
840.879	24018
841.016	24117
841.153	24030
841.29	24235
841.427	24174
841.564	24308
841.701	24205
841.838	24205
841.975	24144
842.112	24194
842.249	24076
842.385	24030
842.522	24308
842.659	24140
842.796	24007
842.933	24049
843.069	24106
843.206	23847
843.343	23923
843.479	23980
843.616	24034
843.752	23809
843.889	23813
844.025	23912
844.162	23821
844.298	23942
844.435	23760
844.571	23676
844.708	23885
844.844	23832
844.98	23843
845.117	23882
845.253	23684
845.389	23703
845.525	23741
845.661	23558
845.798	23436
845.934	23608
846.07	23455
846.206	23471
846.342	23653
846.478	23520
846.614	23315
846.75	23269
846.886	23227
847.022	23242
847.158	23254
847.294	23181
847.429	23250
847.565	23231
847.701	23383
847.837	23037
847.972	22892
848.108	23098
848.244	23174
848.379	22835
848.515	22748
848.65	22782
848.786	22752
848.921	22824
849.057	22927
849.192	23006
849.328	22816
849.463	22752
849.598	22797
849.734	22611
849.869	22725
850.004	22611
850.14	22569
850.275	22580
850.41	22474
850.545	22409
850.68	22561
850.815	22588
850.95	22596
851.085	22767
851.22	22774
851.355	22626
851.49	22554
851.625	22550
851.76	22550
851.895	22440
852.03	22489
852.165	22569
852.299	22557
852.434	22580
852.569	22443
852.703	22626
852.838	22710
852.973	22637
853.107	22748
853.242	22618
853.376	22489
853.511	22325
853.645	22447
853.78	22565
853.914	22470
854.048	22398
854.183	22405
854.317	22481
854.451	22550
854.585	22417
854.72	22440
854.854	22451
854.988	22363
855.122	22443
855.256	22333
855.39	22371
855.524	22462
855.658	22516
855.792	22382
855.926	22440
856.06	22413
856.194	22508
856.327	22310
856.461	22382
856.595	22329
856.729	22367
856.862	22440
856.996	22402
857.13	22489
857.263	22367
857.397	22474
857.53	22611
857.664	22523
857.797	22394
857.931	22542
858.064	22360
858.197	22440
858.331	22459
858.464	22322
858.597	22413
858.731	22402
858.864	22333
858.997	22447
859.13	22375
859.263	22443
859.396	22470
859.529	22306
859.662	22337
859.795	22257
859.928	22443
860.061	22531
860.194	22527
860.327	22459
860.46	22363
860.592	22348
860.725	22508
860.858	22561
860.99	22447
861.123	22310
861.256	22367
861.388	22417
861.521	23235
861.653	22230
861.786	22097
861.918	22185
862.05	22272
862.183	22306
862.315	22375
862.447	22481
862.58	22379
862.712	22116
862.844	22055
862.976	22188
863.108	22097
863.24	22436
863.372	22101
863.504	22158
863.636	22082
863.768	22242
863.9	22192
864.032	22025
864.164	22010
864.296	22116
864.428	22215
864.559	22036
864.691	22131
864.823	22032
864.954	22048
865.086	22070
865.217	22109
865.349	21930
865.48	22029
865.612	22063
865.743	22135
865.875	21941
866.006	21945
866.137	22021
866.269	21884
866.4	22032
866.531	21899
866.662	21854
866.793	21892
866.924	21956
867.055	21876
867.186	21903
867.317	21846
867.448	21934
867.579	21800
867.71	21861
867.841	21778
867.972	21960
868.103	21892
868.233	21797
868.364	21888
868.495	21880
868.625	21998
868.756	22306
868.886	22032
869.017	22112
869.147	22204
869.278	22162
869.408	22150
869.539	22093
869.669	22166
869.799	22112
869.929	22200
870.06	22314
870.19	22398
870.32	22447
870.45	22470
870.58	22569
870.71	22717
870.84	22622
870.97	22577
871.1	22523
871.23	22698
871.36	22694
871.489	22596
871.619	22683
871.749	22725
871.879	22717
872.008	22877
872.138	22672
872.267	22584
872.397	22485
872.526	22557
872.656	22577
872.785	22683
872.915	22710
873.044	22908
873.173	22843
873.303	22900
873.432	22801
873.561	22843
873.69	22809
873.819	22820
873.948	22656
874.077	22771
874.206	22664
874.335	22828
874.464	22858
874.593	22968
874.722	22949
874.851	22991
874.979	23018
875.108	23075
875.237	22904
875.365	22877
875.494	22919
875.623	23044
875.751	22873
875.88	23029
876.008	23086
876.136	23140
876.265	23440
876.393	23539
876.521	23372
876.65	23421
876.778	23356
876.906	23395
877.034	23334
877.162	23246
877.29	23311
877.418	23296
877.546	23356
877.674	23280
877.802	23299
877.93	23303
878.058	23318
878.185	23303
878.313	23159
878.441	23242
878.568	23258
878.696	23280
878.824	23292
878.951	23398
879.079	23505
879.206	23509
879.333	23444
879.461	23273
879.588	23444
879.715	23497
879.842	23642
879.97	23379
880.097	23303
880.224	23083
880.351	23189
880.478	23178
880.605	23083
880.732	23079
880.859	23417
880.986	23170
881.112	23212
881.239	22976
881.366	22797
881.493	22599
881.619	22763
881.746	22725
881.872	22672
881.999	22729
882.125	22675
882.252	22694
882.378	22599
882.505	22790
882.631	22565
882.757	22417
882.883	22459
883.01	22398
883.136	22287
883.262	22238
883.388	22257
883.514	22405
883.64	22344
883.766	22280
883.892	22131
884.018	22291
884.143	22265
884.269	22303
884.395	21953
884.52	22044
884.646	22097
884.772	21941
884.897	21911
885.023	22074
885.148	22067
885.274	22002
885.399	22116
885.524	21979
885.65	22082
885.775	22074
885.9	21983
886.025	22215
886.15	21968
886.275	21922
886.4	21949
886.525	21964
886.65	21956
886.775	21983
886.9	22162
887.025	22154
887.149	22048
887.274	21797
887.399	21789
887.523	21774
887.648	21762
887.773	21671
887.897	21934
888.021	21842
888.146	21850
888.27	21857
888.395	21930
888.519	21789
888.643	21789
888.767	21835
888.891	21686
889.015	21553
889.139	21595
889.263	21633
889.387	21629
889.511	21694
889.635	21553
889.759	21549
889.883	21591
890.006	21595
890.13	21606
890.254	21523
890.377	21485
890.501	21397
890.624	21245
890.748	21355
890.871	21245
890.995	21199
891.118	20986
891.241	21104
891.364	21142
891.488	21207
891.611	21150
891.734	21017
891.857	21180
891.98	21138
892.103	21138
892.226	21096
892.349	21055
892.471	20887
892.594	21074
892.717	20986
892.839	21036
892.962	21077
893.085	21066
893.207	20929
893.33	20887
893.452	20948
893.575	21100
893.697	20891
893.819	21093
893.941	21245
894.064	21142
894.186	20872
894.308	20956
894.43	21051
894.552	21055
894.674	21013
894.796	20880
894.918	21100
895.04	21024
895.161	21108
895.283	20990
895.405	20998
895.526	20986
895.648	21119
895.769	21131
895.891	20990
896.012	21085
896.134	20952
896.255	20982
896.376	20895
896.498	20971
896.619	21032
896.74	20876
896.861	21028
896.982	21207
897.103	21443
897.224	21336
897.345	21256
897.466	21233
897.587	21287
897.708	21386
897.828	21173
897.949	21218
898.07	21032
898.19	21176
898.311	21272
898.431	21096
898.552	21283
898.672	21230
898.792	21279
898.913	21180
899.033	21108
899.153	21020
899.273	20815
899.393	20880
899.513	20956
899.633	20944
899.753	20941
899.873	20902
899.993	21017
900.113	20963
900.232	21024
900.352	20895
900.472	20838
900.591	20674
900.711	20629
900.83	20735
900.95	20830
901.069	20765
901.189	20587
901.308	20343
901.427	20286
901.546	20183
901.665	20313
901.784	20309
901.904	20164
902.023	20062
902.141	19864
902.26	19791
902.379	19951
902.498	19769
902.617	19715
902.735	19780
902.854	19738
902.973	19674
903.091	19453
903.21	19453
903.328	19445
903.446	19407
903.565	19411
903.683	19312
903.801	19050
903.919	19228
904.038	19183
904.156	19069
904.274	19019
904.392	19008
904.51	19012
904.627	19027
904.745	19027
904.863	19012
904.981	18897
905.098	18589
905.216	18597
905.334	18711
905.451	18703
905.569	18696
905.686	18703
905.803	18700
905.921	18479
906.038	18494
906.155	18452
906.272	18380
906.389	18384
906.506	18228
906.623	18224
906.74	18273
906.857	18163
906.974	18026
907.091	18239
907.208	18247
907.324	18148
907.441	18060
907.557	17882
907.674	17908
907.79	17748
907.907	17859
908.023	17882
908.139	17821
908.256	17764
908.372	17885
908.488	17752
908.604	17737
908.72	17619
908.836	17657
908.952	17642
909.068	17668
909.184	17775
909.3	17745
909.415	17649
909.531	17501
909.647	17353
909.762	17402
909.878	17296
909.993	17368
910.108	17296
910.224	17258
910.339	17330
910.454	17159
910.57	17117
910.685	17052
910.8	17326
910.915	17296
911.03	17147
911.145	16987
911.259	16915
911.374	16847
911.489	16694
911.604	16736
911.718	16634
911.833	16653
911.947	16592
912.062	16558
912.176	16706
912.291	16664
912.405	16687
912.519	16873
912.633	16786
912.748	16702
912.862	16607
912.976	16489
913.09	16291
913.204	16428
913.318	16462
913.431	16596
913.545	16523
913.659	16432
913.772	16421
913.886	16329
914	16185
914.113	16363
914.226	16363
914.34	16344
914.453	16128
914.566	16287
914.68	16158
914.793	16029
914.906	15937
915.019	15854
915.132	15766
915.245	15785
915.358	15808
915.47	15857
915.583	15781
915.696	15793
915.809	15918
915.921	15934
916.034	15774
916.146	15679
916.259	15717
916.371	15720
916.483	15762
916.595	15610
916.708	15690
916.82	15622
916.932	15747
917.044	15584
917.156	15557
917.268	15488
917.38	15511
917.491	15485
917.603	15462
917.715	15416
917.826	15435
917.938	15321
918.049	15325
918.161	15397
918.272	15473
918.384	15481
918.495	15386
918.606	15161
918.717	15135
918.828	15195
918.939	15211
919.05	15074
919.161	15123
919.272	15047
919.383	15066
919.494	15188
919.604	15340
919.715	15100
919.826	15077
919.936	15127
920.047	15211
920.157	15154
920.267	15325
920.378	15112
920.488	15058
920.598	15321
920.708	15405
920.818	15302
920.928	15325
921.038	15412
921.148	15325
921.258	15127
921.368	15138
921.477	15028
921.587	14864
921.697	14727
921.806	14876
921.916	14708
922.025	14564
922.134	14469
922.244	14537
922.353	14522
922.462	14438
922.571	14263
922.68	14134
922.789	14180
922.898	14202
923.007	13997
923.116	14008
923.224	14134
923.333	14081
923.442	13997
923.55	13932
923.659	13997
923.767	13978
923.876	13909
923.984	14024
924.092	13841
924.201	13986
924.309	13887
924.417	13864
924.525	13784
924.633	13681
924.741	14537
924.849	13590
924.956	13681
925.064	13502
925.172	13518
925.279	13483
925.387	13529
925.494	13434
925.602	13590
925.709	13605
925.816	13419
925.924	13499
926.031	13525
926.138	13506
926.245	13483
926.352	13377
926.459	13438
926.566	13518
926.673	13407
926.779	13320
926.886	13293
926.993	13110
927.099	13091
927.206	13095
927.312	12947
927.419	13141
927.525	13057
927.631	13088
927.737	12909
927.843	12863
927.95	12848
928.056	12867
928.162	12871
928.267	12962
928.373	13556
928.479	12973
928.585	12620
928.69	12833
928.796	12863
928.901	12715
929.007	12635
929.112	12791
929.218	12707
929.323	12646
929.428	12623
929.533	12650
929.638	12502
929.743	12601
929.848	12509
929.953	12483
930.058	12407
930.163	12224
930.267	12262
930.372	12403
930.477	12262
930.581	12456
930.685	12315
930.79	12140
930.894	12098
930.998	12098
931.103	12232
931.207	11908
931.311	11821
931.415	11703
931.519	11524
931.623	11436
