Data from test_V78500241_1063.txt Node
Date: Fri Mar 25 15:49:09 CST 2022
User: usil
Spectrometer: V785-0024
Trigger mode: 0
Integration Time (sec): 4.000000E-1
Scans to average: 1
Nonlinearity correction enabled: false
Boxcar width: 0
Storing dark spectrum: false
XAxis mode: Wavelengths
Number of Pixels in Spectrum: 1024
>>>>>Begin Spectral Data<<<<<
801.071	28242
801.214	28128
801.356	27793
801.499	27755
801.641	27793
801.783	27751
801.926	27789
802.068	27778
802.211	27759
802.353	27614
802.496	27485
802.638	27256
802.78	27348
802.923	27252
803.065	27192
803.208	27416
803.35	27332
803.492	27450
803.635	27568
803.777	27519
803.919	27747
804.061	27934
804.204	27739
804.346	27648
804.488	27671
804.63	27526
804.773	27542
804.915	27656
805.057	27732
805.199	27652
805.341	27838
805.483	27751
805.626	27625
805.768	27618
805.91	27656
806.052	27694
806.194	27667
806.336	28013
806.478	27876
806.62	27762
806.762	28002
806.904	28063
807.046	28280
807.188	28268
807.33	28025
807.472	28299
807.614	28124
807.756	28135
807.898	27956
808.04	28051
808.182	27979
808.324	28051
808.465	28143
808.607	28287
808.749	28523
808.891	28516
809.033	28531
809.174	28561
809.316	28401
809.458	28447
809.6	28363
809.741	28512
809.883	28618
810.025	28759
810.166	28809
810.308	28721
810.45	28603
810.591	28584
810.733	28607
810.875	28409
811.016	28272
811.158	28230
811.299	28554
811.441	28668
811.582	28706
811.724	28474
811.865	28363
812.007	28565
812.148	28497
812.29	28401
812.431	28527
812.573	28831
812.714	28938
812.855	29098
812.997	29052
813.138	29155
813.279	29086
813.421	28991
813.562	28949
813.703	28828
813.845	28774
813.986	28382
814.127	28284
814.268	28192
814.41	28177
814.551	28063
814.692	28090
814.833	28055
814.974	28135
815.115	28276
815.256	27918
815.397	28093
815.539	28116
815.68	27972
815.821	27873
815.962	27979
816.103	27987
816.244	27781
816.385	27717
816.526	27660
816.666	27348
816.807	27405
816.948	27515
817.089	27496
817.23	27507
817.371	27500
817.512	27389
817.653	27507
817.793	27386
817.934	27477
818.075	27405
818.216	27507
818.356	27401
818.497	27272
818.638	27116
818.778	27226
818.919	27112
819.06	27329
819.2	27313
819.341	27416
819.481	27542
819.622	27625
819.762	27762
819.903	27736
820.043	27751
820.184	27667
820.324	27614
820.465	27679
820.605	27618
820.746	27618
820.886	27382
821.026	27580
821.167	27454
821.307	27534
821.447	27481
821.588	27405
821.728	27264
821.868	27161
822.008	27013
822.149	26963
822.289	26868
822.429	26571
822.569	26606
822.709	26602
822.849	26465
822.99	26636
823.13	26507
823.27	26324
823.41	26320
823.55	26161
823.69	26229
823.83	26278
823.97	26218
824.11	26134
824.25	25936
824.389	26092
824.529	26153
824.669	25966
824.809	26119
824.949	26176
825.089	26168
825.228	26183
825.368	25928
825.508	25868
825.648	25947
825.787	25887
825.927	25970
826.067	25879
826.206	25925
826.346	26092
826.485	25993
826.625	26020
826.765	25978
826.904	25906
827.044	25731
827.183	25814
827.323	25742
827.462	25689
827.601	25662
827.741	25639
827.88	25765
828.02	25548
828.159	25651
828.298	25670
828.437	25704
828.577	25556
828.716	25818
828.855	25518
828.994	25350
829.134	25331
829.273	25445
829.412	25350
829.551	25350
829.69	25411
829.829	25392
829.968	25415
830.107	25483
830.246	25255
830.385	25369
830.524	25232
830.663	25301
830.802	24977
830.941	25099
831.08	25000
831.219	24981
831.357	25190
831.496	25225
831.635	24981
831.774	24878
831.913	24894
832.051	24814
832.19	24650
832.329	24920
832.467	24677
832.606	24650
832.744	24525
832.883	24620
833.022	24532
833.16	24665
833.299	24673
833.437	24646
833.576	24840
833.714	24650
833.852	24665
833.991	24692
834.129	24863
834.267	24635
834.406	24814
834.544	24665
834.682	24688
834.821	24578
834.959	24840
835.097	24593
835.235	24601
835.373	24776
835.511	24688
835.65	24582
835.788	24502
835.926	24517
836.064	24353
836.202	24388
836.34	24445
836.478	24509
836.615	24399
836.753	24521
836.891	24608
837.029	24536
837.167	24353
837.305	24395
837.443	24308
837.58	24361
837.718	24433
837.856	24319
837.993	24292
838.131	24437
838.269	24209
838.406	24190
838.544	24068
838.681	24117
838.819	23977
838.956	23874
839.094	23927
839.231	23870
839.369	23965
839.506	24239
839.643	24148
839.781	23802
839.918	23786
840.055	23786
840.193	23752
840.33	23733
840.467	23767
840.604	23824
840.742	24079
840.879	23596
841.016	23707
841.153	23608
841.29	23824
841.427	23710
841.564	23676
841.701	23695
841.838	23714
841.975	23531
842.112	23638
842.249	23558
842.385	23573
842.522	23672
842.659	23608
842.796	23604
842.933	23543
843.069	23414
843.206	23433
843.343	23547
843.479	23520
843.616	23474
843.752	23284
843.889	23284
844.025	23345
844.162	23315
844.298	23383
844.435	23155
844.571	23140
844.708	23288
844.844	23421
844.98	23288
845.117	23349
845.253	23216
845.389	23140
845.525	23170
845.661	23128
845.798	23060
845.934	22953
846.07	22987
846.206	22927
846.342	23204
846.478	23025
846.614	22713
846.75	22618
846.886	22702
847.022	22782
847.158	22721
847.294	22729
847.429	22748
847.565	22736
847.701	22961
847.837	22390
847.972	22360
848.108	22462
848.244	22508
848.379	22295
848.515	22242
848.65	22394
848.786	22325
848.921	22253
849.057	22409
849.192	22436
849.328	22363
849.463	22226
849.598	22177
849.734	22116
849.869	22226
850.004	22070
850.14	22082
850.275	22135
850.41	21899
850.545	22063
850.68	21987
850.815	22211
850.95	22051
851.085	22207
851.22	22093
851.355	22055
851.49	22128
851.625	21975
851.76	22006
851.895	22048
852.03	22006
852.165	22048
852.299	22006
852.434	22143
852.569	22128
852.703	22162
852.838	22097
852.973	22154
853.107	22204
853.242	22059
853.376	21846
853.511	21854
853.645	21926
853.78	22086
853.914	21850
854.048	21842
854.183	21865
854.317	21903
854.451	22185
854.585	21899
854.72	21850
854.854	22002
854.988	21869
855.122	21983
855.256	21759
855.39	21854
855.524	21918
855.658	21907
855.792	21926
855.926	21869
856.06	21983
856.194	21979
856.327	21762
856.461	21808
856.595	21838
856.729	21903
856.862	21949
856.996	21994
857.13	21892
857.263	22002
857.397	22002
857.53	21838
857.664	21956
857.797	22078
857.931	22002
858.064	21972
858.197	21979
858.331	21869
858.464	21819
858.597	21873
858.731	21979
858.864	21876
858.997	21922
859.13	21903
859.263	21888
859.396	22044
859.529	21907
859.662	21857
859.795	21934
859.928	21941
860.061	22070
860.194	22013
860.327	21918
860.46	22006
860.592	21994
860.725	22116
860.858	22120
860.99	22059
861.123	21846
861.256	21945
861.388	21880
861.521	22603
861.653	21838
861.786	21766
861.918	21774
862.05	21926
862.183	21804
862.315	21846
862.447	21960
862.58	21819
862.712	21526
862.844	21720
862.976	21618
863.108	21846
863.24	22154
863.372	21557
863.504	21580
863.636	21591
863.768	21610
863.9	21690
864.032	21519
864.164	21614
864.296	21564
864.428	21705
864.559	21713
864.691	21736
864.823	21690
864.954	21591
865.086	21618
865.217	21580
865.349	21477
865.48	21587
865.612	21462
865.743	21625
865.875	21492
866.006	21466
866.137	21549
866.269	21412
866.4	21488
866.531	21424
866.662	21458
866.793	21306
866.924	21389
867.055	21443
867.186	21439
867.317	21439
867.448	21272
867.579	21439
867.71	21310
867.841	21332
867.972	21378
868.103	21363
868.233	21488
868.364	21507
868.495	21466
868.625	21648
868.756	21766
868.886	21587
869.017	21637
869.147	21713
869.278	21728
869.408	21751
869.539	21728
869.669	21747
869.799	21682
869.929	21774
870.06	21728
870.19	21987
870.32	21854
870.45	21937
870.58	22048
870.71	22188
870.84	22188
870.97	22017
871.1	22067
871.23	22265
871.36	22242
871.489	22147
871.619	22249
871.749	22348
871.879	22356
872.008	22440
872.138	22318
872.267	22234
872.397	22124
872.526	21987
872.656	22120
872.785	22055
872.915	22291
873.044	22295
873.173	22219
873.303	22344
873.432	22276
873.561	22424
873.69	22344
873.819	22310
873.948	22440
874.077	22291
874.206	22230
874.335	22322
874.464	22508
874.593	22462
874.722	22382
874.851	22516
874.979	22531
875.108	22584
875.237	22481
875.365	22440
875.494	22459
875.623	22489
875.751	22478
875.88	22405
876.008	22645
876.136	22755
876.265	22885
876.393	22976
876.521	22987
876.65	23029
876.778	22866
876.906	22843
877.034	22797
877.162	22930
877.29	22820
877.418	22961
877.546	22889
877.674	22919
877.802	22759
877.93	22786
878.058	22873
878.185	22706
878.313	22839
878.441	22854
878.568	22573
878.696	22805
878.824	22763
878.951	22835
879.079	23044
879.206	23235
879.333	23071
879.461	22850
879.588	22968
879.715	22991
879.842	23193
879.97	22854
880.097	22656
880.224	22626
880.351	22584
880.478	22736
880.605	22550
880.732	22820
880.859	22858
880.986	22615
881.112	22611
881.239	22557
881.366	22246
881.493	22382
881.619	22261
881.746	22371
881.872	22314
881.999	22306
882.125	22147
882.252	22284
882.378	22215
882.505	22299
882.631	22169
882.757	21994
882.883	21983
883.01	21911
883.136	21835
883.262	21785
883.388	21743
883.514	21987
883.64	21983
883.766	21968
883.892	21599
884.018	21899
884.143	21759
884.269	22002
884.395	21698
884.52	21595
884.646	21739
884.772	21439
884.897	21511
885.023	21553
885.148	21603
885.274	21739
885.399	21823
885.524	21526
885.65	21583
885.775	21576
885.9	21564
886.025	21705
886.15	21644
886.275	21507
886.4	21530
886.525	21545
886.65	21443
886.775	21458
886.9	21637
887.025	21774
887.149	21481
887.274	21370
887.399	21405
887.523	21367
887.648	21340
887.773	21302
887.897	21507
888.021	21466
888.146	21283
888.27	21367
888.395	21450
888.519	21367
888.643	21344
888.767	21416
888.891	21135
889.015	21249
889.139	21161
889.263	21104
889.387	21184
889.511	21332
889.635	21226
889.759	21100
889.883	21077
890.006	21108
890.13	21066
890.254	21074
890.377	20990
890.501	20853
890.624	20925
890.748	21017
890.871	20826
890.995	20606
891.118	20621
891.241	20720
891.364	20724
891.488	20815
891.611	20705
891.734	20674
891.857	20819
891.98	20781
892.103	20777
892.226	20857
892.349	20522
892.471	20511
892.594	20602
892.717	20735
892.839	20629
892.962	20705
893.085	20590
893.207	20530
893.33	20655
893.452	20526
893.575	20617
893.697	20549
893.819	20663
893.941	20796
894.064	20663
894.186	20358
894.308	20492
894.43	20655
894.552	20762
894.674	20590
894.796	20484
894.918	20495
895.04	20492
895.161	20629
895.283	20533
895.405	20526
895.526	20629
895.648	20518
895.769	20571
895.891	20636
896.012	20670
896.134	20613
896.255	20575
896.376	20602
896.498	20621
896.619	20621
896.74	20609
896.861	20754
896.982	20872
897.103	21039
897.224	20754
897.345	20746
897.466	20640
897.587	20823
897.708	20986
897.828	20788
897.949	20777
898.07	20735
898.19	20590
898.311	20746
898.431	20830
898.552	20777
898.672	20849
898.792	20883
898.913	20830
899.033	20667
899.153	20568
899.273	20526
899.393	20507
899.513	20552
899.633	20514
899.753	20606
899.873	20389
899.993	20625
900.113	20343
900.232	20526
900.352	20461
900.472	20294
900.591	20240
900.711	20427
900.83	20404
900.95	20366
901.069	20484
901.189	20248
901.308	19947
901.427	19883
901.546	20001
901.665	19845
901.784	19986
901.904	19818
902.023	19738
902.141	19449
902.26	19377
902.379	19510
902.498	19346
902.617	19320
902.735	19491
902.854	19301
902.973	19422
903.091	19088
903.21	19065
903.328	19084
903.446	18958
903.565	18844
903.683	18882
903.801	18810
903.919	18783
904.038	18886
904.156	18616
904.274	18688
904.392	18608
904.51	18597
904.627	18585
904.745	18661
904.863	18551
904.981	18471
905.098	18338
905.216	18228
905.334	18338
905.451	18292
905.569	18239
905.686	18262
905.803	18247
905.921	18060
906.038	18182
906.155	18114
906.272	17999
906.389	17939
906.506	17794
906.623	17866
906.74	17714
906.857	17672
906.974	17646
907.091	17935
907.208	17977
907.324	17851
907.441	17684
907.557	17596
907.674	17482
907.79	17520
907.907	17520
908.023	17596
908.139	17665
908.256	17455
908.372	17436
908.488	17395
908.604	17326
908.72	17227
908.836	17307
908.952	17162
909.068	17284
909.184	17322
909.3	17277
909.415	17220
909.531	17227
909.647	16957
909.762	17037
909.878	16900
909.993	16866
910.108	16873
910.224	16896
910.339	16923
910.454	16744
910.57	16626
910.685	16729
910.8	16911
910.915	16793
911.03	16668
911.145	16554
911.259	16497
911.374	16481
911.489	16512
911.604	16409
911.718	16261
911.833	16325
911.947	16257
912.062	16128
912.176	16287
912.291	16223
912.405	16333
912.519	16462
912.633	16424
912.748	16382
912.862	16257
912.976	16112
913.09	15964
913.204	16036
913.318	16128
913.431	16109
913.545	15998
913.659	16139
913.772	15964
913.886	15926
914	15854
914.113	16036
914.226	16048
914.34	15907
914.453	15762
914.566	15945
914.68	15812
914.793	15690
914.906	15587
915.019	15443
915.132	15374
915.245	15466
915.358	15447
915.47	15469
915.583	15568
915.696	15504
915.809	15526
915.921	15618
916.034	15439
916.146	15447
916.259	15260
916.371	15477
916.483	15405
916.595	15260
916.708	15268
916.82	15306
916.932	15340
917.044	15195
917.156	15302
917.268	15180
917.38	15154
917.491	14990
917.603	15112
917.715	15199
917.826	15275
917.938	15093
918.049	15009
918.161	15116
918.272	15169
918.384	15222
918.495	15024
918.606	14883
918.717	14842
918.828	15017
918.939	14906
919.05	14724
919.161	14864
919.272	14678
919.383	14743
919.494	14929
919.604	14979
919.715	14830
919.826	14632
919.936	14826
920.047	14815
920.157	14796
920.267	15009
920.378	14857
920.488	14735
920.598	14868
920.708	15123
920.818	14979
920.928	14998
921.038	15142
921.148	15074
921.258	14758
921.368	14686
921.477	14651
921.587	14575
921.697	14381
921.806	14613
921.916	14461
922.025	14309
922.134	14195
922.244	14195
922.353	14183
922.462	14024
922.571	13970
922.68	13879
922.789	13803
922.898	13841
923.007	13845
923.116	13852
923.224	13746
923.333	13830
923.442	13658
923.55	13723
923.659	13696
923.767	13693
923.876	13647
923.984	13658
924.092	13597
924.201	13647
924.309	13613
924.417	13632
924.525	13544
924.633	13632
924.741	14259
924.849	13278
924.956	13392
925.064	13240
925.172	13221
925.279	13274
925.387	13308
925.494	13232
925.602	13327
925.709	13293
925.816	13160
925.924	13221
926.031	13255
926.138	13133
926.245	13202
926.352	13129
926.459	13217
926.566	13331
926.673	13156
926.779	13110
926.886	13015
926.993	12840
927.099	12844
927.206	12817
927.312	12711
927.419	12878
927.525	12768
927.631	12787
927.737	12707
927.843	12688
927.95	12513
928.056	12642
928.162	12639
928.267	12757
928.373	13282
928.479	12658
928.585	12445
928.69	12654
928.796	12623
928.901	12502
929.007	12384
929.112	12490
929.218	12422
929.323	12490
929.428	12376
929.533	12422
929.638	12273
929.743	12304
929.848	12304
929.953	12273
930.058	12167
930.163	12041
930.267	12057
930.372	12224
930.477	11885
930.581	12220
930.685	12026
930.79	11996
930.894	11916
930.998	11840
931.103	12091
931.207	11638
931.311	11566
931.415	11459
931.519	11307
931.623	11250
