Data from test_V78500241_2361.txt Node
Date: Fri Mar 25 15:58:09 CST 2022
User: usil
Spectrometer: V785-0024
Trigger mode: 0
Integration Time (sec): 4.000000E-1
Scans to average: 1
Nonlinearity correction enabled: false
Boxcar width: 0
Storing dark spectrum: false
XAxis mode: Wavelengths
Number of Pixels in Spectrum: 1024
>>>>>Begin Spectral Data<<<<<
801.071	29056
801.214	29022
801.356	28835
801.499	28702
801.641	28615
801.783	28672
801.926	28596
802.068	28542
802.211	28538
802.353	28474
802.496	28356
802.638	28371
802.78	28322
802.923	28158
803.065	28204
803.208	28173
803.35	28333
803.492	28447
803.635	28626
803.777	28478
803.919	28626
804.061	28820
804.204	28596
804.346	28538
804.488	28527
804.63	28489
804.773	28504
804.915	28611
805.057	28717
805.199	28432
805.341	28630
805.483	28831
805.626	28687
805.768	28588
805.91	28694
806.052	28816
806.194	28717
806.336	28885
806.478	28759
806.62	28710
806.762	28831
806.904	29044
807.046	29170
807.188	29235
807.33	29143
807.472	29197
807.614	29109
807.756	29174
807.898	29010
808.04	28957
808.182	28980
808.324	29006
808.465	29227
808.607	29364
808.749	29353
808.891	29463
809.033	29581
809.174	29562
809.316	29478
809.458	29463
809.6	29341
809.741	29596
809.883	29558
810.025	29767
810.166	29668
810.308	29798
810.45	29653
810.591	29608
810.733	29406
810.875	29463
811.016	29337
811.158	29375
811.299	29528
811.441	29509
811.582	29745
811.724	29463
811.865	29330
812.007	29463
812.148	29482
812.29	29455
812.431	29687
812.573	29851
812.714	29771
812.855	29889
812.997	30079
813.138	30205
813.279	30140
813.421	30064
813.562	29931
813.703	29828
813.845	29726
813.986	29417
814.127	29318
814.268	29136
814.41	29204
814.551	29181
814.692	29220
814.833	29174
814.974	29079
815.115	29064
815.256	29044
815.397	29010
815.539	29242
815.68	29155
815.821	28812
815.962	28866
816.103	28991
816.244	28805
816.385	28733
816.526	28729
816.666	28531
816.807	28466
816.948	28577
817.089	28607
817.23	28622
817.371	28440
817.512	28409
817.653	28356
817.793	28554
817.934	28394
818.075	28542
818.216	28500
818.356	28531
818.497	28299
818.638	28333
818.778	28147
818.919	28242
819.06	28344
819.2	28371
819.341	28584
819.481	28512
819.622	28637
819.762	28809
819.903	28809
820.043	28687
820.184	28637
820.324	28557
820.465	28767
820.605	28481
820.746	28512
820.886	28409
821.026	28603
821.167	28508
821.307	28782
821.447	28580
821.588	28561
821.728	28200
821.868	28067
822.008	27926
822.149	27979
822.289	28044
822.429	27675
822.569	27576
822.709	27759
822.849	27511
822.99	27504
823.13	27439
823.27	27500
823.41	27283
823.55	27222
823.69	27367
823.83	27382
823.97	27279
824.11	27249
824.25	27104
824.389	27150
824.529	27264
824.669	27123
824.809	27310
824.949	27180
825.089	27256
825.228	27100
825.368	26940
825.508	27070
825.648	26998
825.787	27085
825.927	27055
826.067	27036
826.206	27024
826.346	27020
826.485	27146
826.625	27074
826.765	27142
826.904	27032
827.044	26910
827.183	26811
827.323	26800
827.462	26788
827.601	26716
827.741	26800
827.88	26644
828.02	26708
828.159	26678
828.298	26777
828.437	26765
828.577	26655
828.716	26819
828.855	26663
828.994	26507
829.134	26400
829.273	26396
829.412	26465
829.551	26324
829.69	26362
829.829	26450
829.968	26560
830.107	26575
830.246	26495
830.385	26389
830.524	26195
830.663	26233
830.802	26062
830.941	26103
831.08	26020
831.219	26035
831.357	26107
831.496	26267
831.635	25989
831.774	25978
831.913	25966
832.051	25887
832.19	25795
832.329	25761
832.467	25742
832.606	25742
832.744	25491
832.883	25658
833.022	25582
833.16	25723
833.299	25689
833.437	25674
833.576	25715
833.714	25776
833.852	25887
833.991	25719
834.129	25864
834.267	25883
834.406	25704
834.544	25826
834.682	25826
834.821	25788
834.959	25852
835.097	25784
835.235	25715
835.373	25864
835.511	25799
835.65	25586
835.788	25807
835.926	25502
836.064	25350
836.202	25449
836.34	25559
836.478	25647
836.615	25590
836.753	25620
836.891	25605
837.029	25487
837.167	25419
837.305	25487
837.443	25445
837.58	25301
837.718	25441
837.856	25460
837.993	25381
838.131	25324
838.269	25206
838.406	25327
838.544	25171
838.681	25076
838.819	25000
838.956	24848
839.094	24951
839.231	24916
839.369	25114
839.506	25244
839.643	25202
839.781	24844
839.918	24837
840.055	24798
840.193	24928
840.33	24791
840.467	24741
840.604	24707
840.742	25057
840.879	24779
841.016	24608
841.153	24631
841.29	24890
841.427	24738
841.564	24757
841.701	24745
841.838	24631
841.975	24646
842.112	24703
842.249	24665
842.385	24593
842.522	24677
842.659	24597
842.796	24566
842.933	24536
843.069	24483
843.206	24505
843.343	24498
843.479	24448
843.616	24467
843.752	24372
843.889	24308
844.025	24395
844.162	24342
844.298	24292
844.435	24330
844.571	24384
844.708	24270
844.844	24410
844.98	24441
845.117	24327
845.253	24323
845.389	24125
845.525	24205
845.661	24224
845.798	24011
845.934	24190
846.07	23965
846.206	24129
846.342	24140
846.478	24060
846.614	23775
846.75	23714
846.886	23851
847.022	23767
847.158	23764
847.294	23646
847.429	23817
847.565	23691
847.701	23984
847.837	23436
847.972	23417
848.108	23680
848.244	23528
848.379	23425
848.515	23345
848.65	23402
848.786	23372
848.921	23280
849.057	23425
849.192	23490
849.328	23356
849.463	23360
849.598	23398
849.734	23261
849.869	23280
850.004	23037
850.14	23204
850.275	23242
850.41	23128
850.545	23117
850.68	23128
850.815	23166
850.95	23098
851.085	23277
851.22	23254
851.355	23185
851.49	23136
851.625	23022
851.76	23018
851.895	22949
852.03	23071
852.165	23083
852.299	23056
852.434	23356
852.569	23143
852.703	23124
852.838	23284
852.973	23105
853.107	23307
853.242	23029
853.376	22968
853.511	22801
853.645	22729
853.78	23094
853.914	22942
854.048	22972
854.183	22991
854.317	22984
854.451	23140
854.585	22999
854.72	22927
854.854	23048
854.988	22847
855.122	22953
855.256	22847
855.39	22980
855.524	23014
855.658	23022
855.792	23029
855.926	23060
856.06	23018
856.194	22949
856.327	22904
856.461	22881
856.595	22919
856.729	22923
856.862	23109
856.996	23052
857.13	23025
857.263	23098
857.397	23170
857.53	22934
857.664	22987
857.797	22862
857.931	22847
858.064	22930
858.197	23102
858.331	22957
858.464	22889
858.597	22869
858.731	22839
858.864	22915
858.997	22892
859.13	23105
859.263	22923
859.396	23052
859.529	22930
859.662	22816
859.795	22805
859.928	22892
860.061	23117
860.194	23041
860.327	22984
860.46	22930
860.592	23117
860.725	23174
860.858	23041
860.99	22953
861.123	22824
861.256	22949
861.388	22911
861.521	23726
861.653	22721
861.786	22721
861.918	22660
862.05	22809
862.183	22877
862.315	22877
862.447	22972
862.58	22733
862.712	22713
862.844	22573
862.976	22736
863.108	22694
863.24	23067
863.372	22580
863.504	22618
863.636	22634
863.768	22649
863.9	22546
864.032	22607
864.164	22649
864.296	22755
864.428	22725
864.559	22588
864.691	22778
864.823	22653
864.954	22641
865.086	22565
865.217	22546
865.349	22443
865.48	22485
865.612	22523
865.743	22721
865.875	22428
866.006	22485
866.137	22565
866.269	22504
866.4	22588
866.531	22455
866.662	22519
866.793	22497
866.924	22424
867.055	22554
867.186	22455
867.317	22360
867.448	22371
867.579	22561
867.71	22325
867.841	22421
867.972	22451
868.103	22405
868.233	22390
868.364	22344
868.495	22573
868.625	22512
868.756	22858
868.886	22542
869.017	22702
869.147	22809
869.278	22835
869.408	22759
869.539	22721
869.669	22862
869.799	22637
869.929	22824
870.06	22729
870.19	22976
870.32	22927
870.45	23010
870.58	23041
870.71	23136
870.84	23147
870.97	23109
871.1	23178
871.23	23178
871.36	23246
871.489	23162
871.619	23242
871.749	23231
871.879	23277
872.008	23311
872.138	23147
872.267	23265
872.397	23132
872.526	23025
872.656	23223
872.785	23117
872.915	23318
873.044	23307
873.173	23220
873.303	23322
873.432	23292
873.561	23353
873.69	23303
873.819	23193
873.948	23322
874.077	23292
874.206	23189
874.335	23398
874.464	23372
874.593	23509
874.722	23452
874.851	23531
874.979	23516
875.108	23471
875.237	23417
875.365	23341
875.494	23387
875.623	23505
875.751	23414
875.88	23573
876.008	23653
876.136	23627
876.265	23931
876.393	23973
876.521	23946
876.65	23973
876.778	23832
876.906	23790
877.034	23901
877.162	23866
877.29	23722
877.418	23878
877.546	23752
877.674	23878
877.802	23783
877.93	23710
878.058	23676
878.185	23684
878.313	23855
878.441	23760
878.568	23638
878.696	23729
878.824	23855
878.951	23870
879.079	24045
879.206	24190
879.333	23999
879.461	23779
879.588	23893
879.715	23961
879.842	24064
879.97	23840
880.097	23604
880.224	23649
880.351	23775
880.478	23714
880.605	23608
880.732	23699
880.859	23798
880.986	23592
881.112	23509
881.239	23551
881.366	23330
881.493	23212
881.619	23189
881.746	23280
881.872	23143
881.999	23143
882.125	23064
882.252	23200
882.378	23193
882.505	23197
882.631	23155
882.757	22881
882.883	22900
883.01	22847
883.136	22885
883.262	22622
883.388	22675
883.514	22812
883.64	22797
883.766	22835
883.892	22607
884.018	22641
884.143	22885
884.269	22881
884.395	22584
884.52	22466
884.646	22440
884.772	22382
884.897	22341
885.023	22497
885.148	22603
885.274	22721
885.399	22599
885.524	22462
885.65	22546
885.775	22394
885.9	22557
886.025	22618
886.15	22660
886.275	22447
886.4	22409
886.525	22375
886.65	22421
886.775	22371
886.9	22573
887.025	22630
887.149	22379
887.274	22219
887.399	22268
887.523	22246
887.648	22185
887.773	22200
887.897	22261
888.021	22310
888.146	22116
888.27	22344
888.395	22276
888.519	22360
888.643	22276
888.767	22291
888.891	22150
889.015	22090
889.139	22147
889.263	21998
889.387	22139
889.511	22211
889.635	22219
889.759	21994
889.883	21998
890.006	22044
890.13	22116
890.254	21926
890.377	22032
890.501	21724
890.624	21778
890.748	21747
890.871	21610
890.995	21660
891.118	21534
891.241	21603
891.364	21477
891.488	21720
891.611	21568
891.734	21473
891.857	21549
891.98	21553
892.103	21686
892.226	21660
892.349	21545
892.471	21275
892.594	21488
892.717	21428
892.839	21466
892.962	21530
893.085	21488
893.207	21485
893.33	21283
893.452	21355
893.575	21454
893.697	21332
893.819	21610
893.941	21641
894.064	21545
894.186	21519
894.308	21401
894.43	21492
894.552	21595
894.674	21454
894.796	21313
894.918	21458
895.04	21378
895.161	21545
895.283	21389
895.405	21325
895.526	21424
895.648	21405
895.769	21260
895.891	21431
896.012	21606
896.134	21348
896.255	21530
896.376	21424
896.498	21530
896.619	21405
896.74	21435
896.861	21481
896.982	21739
897.103	21789
897.224	21728
897.345	21781
897.466	21667
897.587	21698
897.708	21861
897.828	21778
897.949	21530
898.07	21447
898.19	21526
898.311	21762
898.431	21568
898.552	21660
898.672	21713
898.792	21709
898.913	21561
899.033	21469
899.153	21344
899.273	21313
899.393	21401
899.513	21378
899.633	21386
899.753	21332
899.873	21230
899.993	21443
900.113	21252
900.232	21336
900.352	21119
900.472	21230
900.591	21138
900.711	21150
900.83	21081
900.95	21256
901.069	21085
901.189	21116
901.308	20769
901.427	20587
901.546	20750
901.665	20682
901.784	20499
901.904	20518
902.023	20381
902.141	20313
902.26	20157
902.379	20278
902.498	20267
902.617	20225
902.735	20218
902.854	20278
902.973	20100
903.091	19841
903.21	19826
903.328	19727
903.446	19734
903.565	19719
903.683	19620
903.801	19491
903.919	19609
904.038	19537
904.156	19388
904.274	19521
904.392	19331
904.51	19270
904.627	19244
904.745	19419
904.863	19407
904.981	19164
905.098	19046
905.216	19008
905.334	19095
905.451	19012
905.569	19080
905.686	19114
905.803	19095
905.921	18859
906.038	18924
906.155	18779
906.272	18749
906.389	18700
906.506	18528
906.623	18635
906.74	18498
906.857	18521
906.974	18338
907.091	18616
907.208	18677
907.324	18616
907.441	18452
907.557	18376
907.674	18125
907.79	18136
907.907	18247
908.023	18357
908.139	18228
908.256	18277
908.372	18114
908.488	18064
908.604	18041
908.72	17923
908.836	17965
908.952	17847
909.068	18003
909.184	18083
909.3	17958
909.415	17965
909.531	17935
909.647	17767
909.762	17722
909.878	17600
909.993	17687
910.108	17668
910.224	17615
910.339	17558
910.454	17627
910.57	17436
910.685	17497
910.8	17623
910.915	17516
911.03	17493
911.145	17288
911.259	17284
911.374	17246
911.489	17178
911.604	17079
911.718	16984
911.833	17113
911.947	16892
912.062	16763
912.176	16904
912.291	17079
912.405	16927
912.519	17235
912.633	17132
912.748	17025
912.862	16991
912.976	16793
913.09	16660
913.204	16691
913.318	16820
913.431	16850
913.545	16889
913.659	16873
913.772	16717
913.886	16626
914	16649
914.113	16736
914.226	16679
914.34	16519
914.453	16436
914.566	16584
914.68	16322
914.793	16390
914.906	16211
915.019	16150
915.132	16029
915.245	16207
915.358	16139
915.47	16169
915.583	16238
915.696	16226
915.809	16223
915.921	16246
916.034	16078
916.146	16010
916.259	15956
916.371	16021
916.483	16078
916.595	15926
916.708	16154
916.82	15911
916.932	15892
917.044	15838
917.156	15884
917.268	15781
917.38	15823
917.491	15701
917.603	15679
917.715	15884
917.826	15869
917.938	15694
918.049	15553
918.161	15694
918.272	15819
918.384	15762
918.495	15610
918.606	15572
918.717	15401
918.828	15553
918.939	15614
919.05	15378
919.161	15519
919.272	15173
919.383	15298
919.494	15454
919.604	15641
919.715	15561
919.826	15317
919.936	15428
920.047	15526
920.157	15462
920.267	15629
920.378	15473
920.488	15393
920.598	15633
920.708	15694
920.818	15485
920.928	15492
921.038	15736
921.148	15633
921.258	15313
921.368	15230
921.477	15146
921.587	15157
921.697	14967
921.806	15192
921.916	15093
922.025	14902
922.134	14727
922.244	14727
922.353	14781
922.462	14724
922.571	14686
922.68	14461
922.789	14419
922.898	14480
923.007	14305
923.116	14412
923.224	14461
923.333	14374
923.442	14282
923.55	14195
923.659	14278
923.767	14305
923.876	14180
923.984	14183
924.092	14092
924.201	14035
924.309	14145
924.417	14073
924.525	14046
924.633	14039
924.741	15051
924.849	13868
924.956	13921
925.064	13887
925.172	13818
925.279	13868
925.387	13845
925.494	13696
925.602	13841
925.709	13769
925.816	13601
925.924	13814
926.031	13864
926.138	13708
926.245	13856
926.352	13658
926.459	13719
926.566	13784
926.673	13601
926.779	13567
926.886	13563
926.993	13365
927.099	13232
927.206	13320
927.312	13285
927.419	13350
927.525	13297
927.631	13255
927.737	13190
927.843	13042
927.95	13053
928.056	13080
928.162	13110
928.267	13183
928.373	13871
928.479	13221
928.585	12951
928.69	13019
928.796	13061
928.901	13000
929.007	12848
929.112	12993
929.218	12901
929.323	12837
929.428	12810
929.533	12935
929.638	12844
929.743	12764
929.848	12856
929.953	12719
930.058	12559
930.163	12433
930.267	12486
930.372	12593
930.477	12391
930.581	12696
930.685	12513
930.79	12479
930.894	12460
930.998	12350
931.103	12429
931.207	12140
931.311	11980
931.415	11946
931.519	11680
931.623	11703
