Data from test_V78500241_2392.txt Node
Date: Fri Mar 25 15:58:22 CST 2022
User: usil
Spectrometer: V785-0024
Trigger mode: 0
Integration Time (sec): 4.000000E-1
Scans to average: 1
Nonlinearity correction enabled: false
Boxcar width: 0
Storing dark spectrum: false
XAxis mode: Wavelengths
Number of Pixels in Spectrum: 1024
>>>>>Begin Spectral Data<<<<<
801.071	28664
801.214	28771
801.356	28660
801.499	28379
801.641	28284
801.783	28253
801.926	28409
802.068	28352
802.211	28386
802.353	28325
802.496	28200
802.638	28154
802.78	28010
802.923	28055
803.065	27914
803.208	27972
803.35	28238
803.492	28223
803.635	28226
803.777	28314
803.919	28390
804.061	28656
804.204	28348
804.346	28276
804.488	28360
804.63	28287
804.773	28333
804.915	28417
805.057	28584
805.199	28291
805.341	28447
805.483	28512
805.626	28535
805.768	28337
805.91	28489
806.052	28440
806.194	28348
806.336	28752
806.478	28428
806.62	28565
806.762	28649
806.904	28748
807.046	28949
807.188	28900
807.33	28953
807.472	29079
807.614	28782
807.756	28908
807.898	28831
808.04	28850
808.182	28790
808.324	28888
808.465	28873
808.607	29200
808.749	29064
808.891	29155
809.033	29349
809.174	29239
809.316	29109
809.458	29174
809.6	29345
809.741	29330
809.883	29372
810.025	29535
810.166	29474
810.308	29440
810.45	29429
810.591	29459
810.733	29349
810.875	29113
811.016	29003
811.158	29079
811.299	29356
811.441	29433
811.582	29372
811.724	29212
811.865	29231
812.007	29242
812.148	29189
812.29	29288
812.431	29410
812.573	29585
812.714	29646
812.855	29722
812.997	29904
813.138	30015
813.279	29805
813.421	29840
813.562	29745
813.703	29589
813.845	29467
813.986	29140
814.127	29025
814.268	28927
814.41	29109
814.551	28915
814.692	29056
814.833	28869
814.974	29060
815.115	28984
815.256	28877
815.397	28881
815.539	28934
815.68	28694
815.821	28748
815.962	28767
816.103	28782
816.244	28755
816.385	28656
816.526	28493
816.666	28489
816.807	28147
816.948	28253
817.089	28523
817.23	28109
817.371	28131
817.512	28215
817.653	28219
817.793	28314
817.934	28120
818.075	28322
818.216	28173
818.356	28246
818.497	28268
818.638	27914
818.778	27998
818.919	27983
819.06	28154
819.2	28158
819.341	28310
819.481	28238
819.622	28557
819.762	28550
819.903	28447
820.043	28421
820.184	28436
820.324	28261
820.465	28363
820.605	28352
820.746	28474
820.886	28371
821.026	28356
821.167	28432
821.307	28481
821.447	28249
821.588	28272
821.728	28063
821.868	27930
822.008	27945
822.149	27728
822.289	27819
822.429	27534
822.569	27443
822.709	27435
822.849	27294
822.99	27313
823.13	27154
823.27	27112
823.41	27108
823.55	26960
823.69	27020
823.83	27039
823.97	27036
824.11	26864
824.25	26731
824.389	26929
824.529	26948
824.669	26868
824.809	26971
824.949	27085
825.089	26921
825.228	26998
825.368	26781
825.508	26750
825.648	26788
825.787	26765
825.927	26765
826.067	26754
826.206	26826
826.346	26853
826.485	26773
826.625	26864
826.765	26811
826.904	26956
827.044	26682
827.183	26461
827.323	26545
827.462	26564
827.601	26503
827.741	26385
827.88	26503
828.02	26412
828.159	26419
828.298	26537
828.437	26480
828.577	26408
828.716	26773
828.855	26381
828.994	26275
829.134	26202
829.273	26263
829.412	26103
829.551	26142
829.69	26218
829.829	26096
829.968	26317
830.107	26229
830.246	26229
830.385	26100
830.524	26081
830.663	25993
830.802	25947
830.941	25856
831.08	25624
831.219	25826
831.357	25913
831.496	26008
831.635	25765
831.774	25727
831.913	25655
832.051	25632
832.19	25552
832.329	25647
832.467	25609
832.606	25419
832.744	25472
832.883	25392
833.022	25548
833.16	25426
833.299	25460
833.437	25548
833.576	25586
833.714	25613
833.852	25704
833.991	25502
834.129	25670
834.267	25575
834.406	25529
834.544	25525
834.682	25540
834.821	25502
834.959	25712
835.097	25403
835.235	25616
835.373	25597
835.511	25449
835.65	25301
835.788	25266
835.926	25278
836.064	25122
836.202	25236
836.34	25472
836.478	25495
836.615	25232
836.753	25441
836.891	25396
837.029	25381
837.167	25312
837.305	25129
837.443	25221
837.58	25179
837.718	25228
837.856	25251
837.993	25069
838.131	25126
838.269	24985
838.406	25114
838.544	24977
838.681	24734
838.819	24738
838.956	24768
839.094	24616
839.231	24817
839.369	24829
839.506	24985
839.643	24844
839.781	24544
839.918	24544
840.055	24726
840.193	24627
840.33	24494
840.467	24589
840.604	24551
840.742	24890
840.879	24464
841.016	24578
841.153	24426
841.29	24616
841.427	24623
841.564	24441
841.701	24490
841.838	24509
841.975	24365
842.112	24456
842.249	24292
842.385	24300
842.522	24494
842.659	24311
842.796	24178
842.933	24334
843.069	24228
843.206	24266
843.343	24327
843.479	24338
843.616	24273
843.752	24140
843.889	24095
844.025	24167
844.162	23893
844.298	24277
844.435	24098
844.571	24007
844.708	24216
844.844	24194
844.98	24182
845.117	24060
845.253	24045
845.389	23863
845.525	24038
845.661	23923
845.798	23786
845.934	23794
846.07	23882
846.206	23786
846.342	23786
846.478	23783
846.614	23623
846.75	23528
846.886	23486
847.022	23649
847.158	23478
847.294	23547
847.429	23543
847.565	23486
847.701	23668
847.837	23265
847.972	23239
848.108	23337
848.244	23303
848.379	23162
848.515	23090
848.65	23090
848.786	23193
848.921	23029
849.057	23170
849.192	23140
849.328	23037
849.463	23079
849.598	23048
849.734	23071
849.869	23064
850.004	22946
850.14	22889
850.275	22904
850.41	22866
850.545	22850
850.68	22835
850.815	22858
850.95	22949
851.085	23075
851.22	23037
851.355	22904
851.49	22869
851.625	22793
851.76	22774
851.895	22866
852.03	22850
852.165	22869
852.299	22831
852.434	23086
852.569	22919
852.703	22911
852.838	22999
852.973	23022
853.107	22850
853.242	22706
853.376	22710
853.511	22516
853.645	22687
853.78	22767
853.914	22725
854.048	22653
854.183	22672
854.317	22694
854.451	22972
854.585	22637
854.72	22660
854.854	22702
854.988	22561
855.122	22755
855.256	22531
855.39	22622
855.524	22790
855.658	22763
855.792	22752
855.926	22683
856.06	22729
856.194	22664
856.327	22649
856.461	22641
856.595	22516
856.729	22717
856.862	22801
856.996	22706
857.13	22828
857.263	22771
857.397	22831
857.53	22573
857.664	22759
857.797	22691
857.931	22797
858.064	22691
858.197	22934
858.331	22691
858.464	22679
858.597	22569
858.731	22717
858.864	22489
858.997	22691
859.13	22675
859.263	22763
859.396	22653
859.529	22603
859.662	22691
859.795	22546
859.928	22634
860.061	22801
860.194	22949
860.327	22793
860.46	22774
860.592	22896
860.725	22793
860.858	22812
860.99	22713
861.123	22565
861.256	22580
861.388	22554
861.521	23452
861.653	22615
861.786	22481
861.918	22485
862.05	22470
862.183	22634
862.315	22645
862.447	22767
862.58	22546
862.712	22299
862.844	22318
862.976	22489
863.108	22474
863.24	22961
863.372	22325
863.504	22318
863.636	22409
863.768	22402
863.9	22409
864.032	22303
864.164	22306
864.296	22424
864.428	22497
864.559	22474
864.691	22440
864.823	22379
864.954	22284
865.086	22424
865.217	22200
865.349	22082
865.48	22177
865.612	22257
865.743	22318
865.875	22188
866.006	22207
866.137	22310
866.269	22295
866.4	22192
866.531	22310
866.662	22147
866.793	22192
866.924	22303
867.055	22284
867.186	22143
867.317	22223
867.448	22135
867.579	22070
867.71	22044
867.841	22055
867.972	22177
868.103	22143
868.233	22101
868.364	22158
868.495	22272
868.625	22432
868.756	22546
868.886	22398
869.017	22512
869.147	22565
869.278	22535
869.408	22474
869.539	22489
869.669	22485
869.799	22421
869.929	22531
870.06	22626
870.19	22687
870.32	22752
870.45	22763
870.58	22702
870.71	22957
870.84	22987
870.97	22790
871.1	22835
871.23	23044
871.36	23086
871.489	22934
871.619	22953
871.749	23033
871.879	23143
872.008	23132
872.138	23151
872.267	22980
872.397	22938
872.526	22824
872.656	22908
872.785	22824
872.915	23025
873.044	23048
873.173	23003
873.303	23166
873.432	23239
873.561	23140
873.69	23044
873.819	22995
873.948	23086
874.077	22976
874.206	23071
874.335	23010
874.464	23090
874.593	23303
874.722	23284
874.851	23337
874.979	23311
875.108	23391
875.237	23208
875.365	23178
875.494	23280
875.623	23254
875.751	23151
875.88	23227
876.008	23417
876.136	23391
876.265	23646
876.393	23824
876.521	23699
876.65	23821
876.778	23714
876.906	23623
877.034	23566
877.162	23661
877.29	23570
877.418	23604
877.546	23611
877.674	23611
877.802	23589
877.93	23516
878.058	23589
878.185	23516
878.313	23509
878.441	23596
878.568	23478
878.696	23600
878.824	23554
878.951	23585
879.079	23718
879.206	23779
879.333	23775
879.461	23710
879.588	23608
879.715	23760
879.842	23904
879.97	23577
880.097	23402
880.224	23455
880.351	23505
880.478	23376
880.605	23315
880.732	23497
880.859	23531
880.986	23395
881.112	23497
881.239	23235
881.366	23189
881.493	23083
881.619	22987
881.746	22980
881.872	22896
881.999	22908
882.125	22873
882.252	22976
882.378	22987
882.505	23121
882.631	22748
882.757	22702
882.883	22786
883.01	22729
883.136	22596
883.262	22588
883.388	22493
883.514	22733
883.64	22599
883.766	22603
883.892	22428
884.018	22421
884.143	22596
884.269	22634
884.395	22344
884.52	22261
884.646	22253
884.772	22242
884.897	22158
885.023	22215
885.148	22363
885.274	22421
885.399	22424
885.524	22253
885.65	22287
885.775	22249
885.9	22272
886.025	22287
886.15	22322
886.275	22268
886.4	22242
886.525	22268
886.65	22086
886.775	22268
886.9	22360
887.025	22584
887.149	22162
887.274	21998
887.399	21972
887.523	22116
887.648	22025
887.773	21895
887.897	22055
888.021	22120
888.146	21937
888.27	22006
888.395	22181
888.519	22116
888.643	21983
888.767	22002
888.891	22082
889.015	21797
889.139	21835
889.263	21770
889.387	21800
889.511	22048
889.635	21968
889.759	21770
889.883	21884
890.006	21888
890.13	21873
890.254	21747
890.377	21743
890.501	21633
890.624	21595
890.748	21663
890.871	21511
890.995	21329
891.118	21340
891.241	21245
891.364	21363
891.488	21477
891.611	21321
891.734	21348
891.857	21564
891.98	21393
892.103	21370
892.226	21260
892.349	21401
892.471	21157
892.594	21317
892.717	21321
892.839	21321
892.962	21245
893.085	21359
893.207	21184
893.33	21207
893.452	21188
893.575	21313
893.697	21165
893.819	21386
893.941	21473
894.064	21355
894.186	21184
894.308	21165
894.43	21313
894.552	21424
894.674	21332
894.796	21089
894.918	21207
895.04	21291
895.161	21329
895.283	21336
895.405	21218
895.526	21298
895.648	21222
895.769	21237
895.891	21291
896.012	21344
896.134	21207
896.255	21279
896.376	21192
896.498	21199
896.619	21268
896.74	21218
896.861	21325
896.982	21435
897.103	21633
897.224	21500
897.345	21378
897.466	21393
897.587	21481
897.708	21485
897.828	21595
897.949	21359
898.07	21264
898.19	21351
898.311	21564
898.431	21287
898.552	21431
898.672	21412
898.792	21435
898.913	21424
899.033	21310
899.153	21218
899.273	21116
899.393	21211
899.513	21131
899.633	21260
899.753	21188
899.873	21165
899.993	21062
900.113	21199
900.232	21142
900.352	21013
900.472	20918
900.591	20826
900.711	20975
900.83	20883
900.95	20971
901.069	20982
901.189	20861
901.308	20575
901.427	20415
901.546	20503
901.665	20511
901.784	20427
901.904	20400
902.023	20202
902.141	20016
902.26	20058
902.379	20103
902.498	20005
902.617	19993
902.735	20069
902.854	19955
902.973	19875
903.091	19662
903.21	19662
903.328	19696
903.446	19533
903.565	19415
903.683	19453
903.801	19403
903.919	19312
904.038	19460
904.156	19202
904.274	19377
904.392	19141
904.51	19266
904.627	19164
904.745	19236
904.863	19232
904.981	19076
905.098	18909
905.216	18798
905.334	18863
905.451	18882
905.569	18932
905.686	18871
905.803	18791
905.921	18547
906.038	18726
906.155	18760
906.272	18608
906.389	18517
906.506	18376
906.623	18460
906.74	18422
906.857	18273
906.974	18285
907.091	18445
907.208	18490
907.324	18414
907.441	18251
907.557	18197
907.674	18152
907.79	17992
907.907	18060
908.023	18026
908.139	18102
908.256	17931
908.372	17923
908.488	17916
908.604	17965
908.72	17775
908.836	17870
908.952	17809
909.068	17752
909.184	17923
909.3	17737
909.415	17885
909.531	17752
909.647	17585
909.762	17482
909.878	17459
909.993	17482
910.108	17611
910.224	17326
910.339	17471
910.454	17406
910.57	17277
910.685	17105
910.8	17421
910.915	17398
911.03	17254
911.145	17102
911.259	17159
911.374	17090
911.489	16930
911.604	16930
911.718	16862
911.833	16824
911.947	16729
912.062	16626
912.176	16873
912.291	16736
912.405	16771
912.519	16991
912.633	16934
912.748	16816
912.862	16755
912.976	16580
913.09	16531
913.204	16523
913.318	16580
913.431	16885
913.545	16664
913.659	16740
913.772	16550
913.886	16470
914	16485
914.113	16561
914.226	16531
914.34	16481
914.453	16299
914.566	16428
914.68	16310
914.793	16166
914.906	16093
915.019	15937
915.132	15937
915.245	15979
915.358	16010
915.47	16036
915.583	16013
915.696	16032
915.809	16040
915.921	16048
916.034	15850
916.146	15857
916.259	15797
916.371	15926
916.483	15979
916.595	15793
916.708	15762
916.82	15770
916.932	15819
917.044	15629
917.156	15694
917.268	15580
917.38	15603
917.491	15637
917.603	15599
917.715	15618
917.826	15637
917.938	15572
918.049	15386
918.161	15405
918.272	15682
918.384	15625
918.495	15504
918.606	15370
918.717	15233
918.828	15523
918.939	15443
919.05	15230
919.161	15291
919.272	15180
919.383	15245
919.494	15321
919.604	15443
919.715	15317
919.826	15256
919.936	15370
920.047	15428
920.157	15298
920.267	15496
920.378	15268
920.488	15306
920.598	15450
920.708	15595
920.818	15420
920.928	15435
921.038	15606
921.148	15488
921.258	15085
921.368	15203
921.477	15112
921.587	15047
921.697	14853
921.806	15039
921.916	14899
922.025	14746
922.134	14625
922.244	14667
922.353	14682
922.462	14495
922.571	14473
922.68	14313
922.789	14343
922.898	14275
923.007	14157
923.116	14313
923.224	14244
923.333	14271
923.442	14191
923.55	14043
923.659	14168
923.767	14210
923.876	14016
923.984	14027
924.092	13989
924.201	14039
924.309	13989
924.417	14024
924.525	14039
924.633	13932
924.741	14864
924.849	13727
924.956	13959
925.064	13666
925.172	13597
925.279	13636
925.387	13655
925.494	13624
925.602	13772
925.709	13715
925.816	13575
925.924	13658
926.031	13620
926.138	13594
926.245	13590
926.352	13502
926.459	13578
926.566	13666
926.673	13506
926.779	13358
926.886	13247
926.993	13251
927.099	13217
927.206	13122
927.312	13160
927.419	13179
927.525	13198
927.631	13171
927.737	13031
927.843	13012
927.95	12939
928.056	13065
928.162	13027
928.267	13088
928.373	13734
928.479	13095
928.585	12779
928.69	12954
928.796	12943
928.901	12844
929.007	12715
929.112	12875
929.218	12859
929.323	12719
929.428	12760
929.533	12837
929.638	12631
929.743	12692
929.848	12635
929.953	12654
930.058	12528
930.163	12407
930.267	12330
930.372	12578
930.477	12323
930.581	12502
930.685	12353
930.79	12273
930.894	12292
930.998	12247
931.103	12448
931.207	11996
931.311	11908
931.415	11855
931.519	11589
931.623	11668
