Data from test_V78500241_2747.txt Node
Date: Fri Mar 25 16:00:49 CST 2022
User: usil
Spectrometer: V785-0024
Trigger mode: 0
Integration Time (sec): 4.000000E-1
Scans to average: 1
Nonlinearity correction enabled: false
Boxcar width: 0
Storing dark spectrum: false
XAxis mode: Wavelengths
Number of Pixels in Spectrum: 1024
>>>>>Begin Spectral Data<<<<<
801.071	28557
801.214	28451
801.356	28287
801.499	28101
801.641	28131
801.783	28078
801.926	28112
802.068	28097
802.211	28055
802.353	27994
802.496	27781
802.638	27892
802.78	27774
802.923	27652
803.065	27709
803.208	27694
803.35	27743
803.492	27880
803.635	27922
803.777	27949
803.919	28021
804.061	28303
804.204	28124
804.346	28029
804.488	27816
804.63	28048
804.773	27930
804.915	28078
805.057	28185
805.199	27998
805.341	28017
805.483	28135
805.626	28238
805.768	28093
805.91	28128
806.052	28162
806.194	28196
806.336	28246
806.478	28215
806.62	28325
806.762	28398
806.904	28584
807.046	28740
807.188	28675
807.33	28561
807.472	28767
807.614	28607
807.756	28603
807.898	28493
808.04	28398
808.182	28421
808.324	28470
808.465	28599
808.607	28653
808.749	28892
808.891	28949
809.033	28900
809.174	28866
809.316	28824
809.458	28843
809.6	28885
809.741	28934
809.883	29003
810.025	29166
810.166	29204
810.308	29044
810.45	29094
810.591	29037
810.733	28930
810.875	29029
811.016	28706
811.158	28904
811.299	29029
811.441	28828
811.582	28987
811.724	28938
811.865	28687
812.007	28980
812.148	28972
812.29	29086
812.431	29075
812.573	29102
812.714	29284
812.855	29387
812.997	29493
813.138	29585
813.279	29414
813.421	29364
813.562	29345
813.703	29155
813.845	29010
813.986	28698
814.127	28816
814.268	28481
814.41	28634
814.551	28527
814.692	28634
814.833	28428
814.974	28554
815.115	28618
815.256	28348
815.397	28557
815.539	28474
815.68	28257
815.821	28382
815.962	28386
816.103	28295
816.244	28188
816.385	28158
816.526	28276
816.666	28021
816.807	27842
816.948	28070
817.089	27892
817.23	27907
817.371	27854
817.512	28048
817.653	27873
817.793	27778
817.934	27819
818.075	27876
818.216	27892
818.356	27732
818.497	27831
818.638	27652
818.778	27675
818.919	27698
819.06	27835
819.2	27911
819.341	27865
819.481	27937
819.622	27975
819.762	28238
819.903	28238
820.043	28143
820.184	28040
820.324	28093
820.465	28093
820.605	28036
820.746	27949
820.886	27937
821.026	28090
821.167	27895
821.307	27960
821.447	27960
821.588	27907
821.728	27770
821.868	27568
822.008	27249
822.149	27340
822.289	27367
822.429	27207
822.569	27081
822.709	27123
822.849	26940
822.99	26925
823.13	26739
823.27	26849
823.41	26686
823.55	26621
823.69	26705
823.83	26735
823.97	26708
824.11	26488
824.25	26423
824.389	26514
824.529	26663
824.669	26564
824.809	26503
824.949	26750
825.089	26579
825.228	26644
825.368	26514
825.508	26233
825.648	26400
825.787	26423
825.927	26374
826.067	26400
826.206	26278
826.346	26579
826.485	26423
826.625	26396
826.765	26590
826.904	26473
827.044	26103
827.183	26218
827.323	26119
827.462	26286
827.601	26138
827.741	25963
827.88	26111
828.02	26092
828.159	26084
828.298	26191
828.437	26073
828.577	26157
828.716	26256
828.855	25989
828.994	25986
829.134	25791
829.273	25921
829.412	25830
829.551	25776
829.69	25635
829.829	25712
829.968	25902
830.107	25818
830.246	25970
830.385	25776
830.524	25727
830.663	25757
830.802	25643
830.941	25499
831.08	25457
831.219	25567
831.357	25460
831.496	25696
831.635	25362
831.774	25377
831.913	25339
832.051	25270
832.19	25209
832.329	25148
832.467	25156
832.606	25118
832.744	25110
832.883	25145
833.022	25095
833.16	25152
833.299	25103
833.437	25198
833.576	25308
833.714	25198
833.852	25209
833.991	25244
834.129	25266
834.267	25282
834.406	25225
834.544	25251
834.682	25327
834.821	25194
834.959	25350
835.097	25194
835.235	25270
835.373	25244
835.511	25141
835.65	25080
835.788	25023
835.926	24833
836.064	24722
836.202	24863
836.34	24932
836.478	25099
836.615	25080
836.753	25053
836.891	25057
837.029	25000
837.167	24977
837.305	24886
837.443	24837
837.58	24840
837.718	24863
837.856	24814
837.993	24753
838.131	24810
838.269	24661
838.406	24719
838.544	24620
838.681	24570
838.819	24399
838.956	24391
839.094	24315
839.231	24300
839.369	24525
839.506	24692
839.643	24559
839.781	24342
839.918	24224
840.055	24266
840.193	24330
840.33	24072
840.467	24159
840.604	24220
840.742	24460
840.879	24015
841.016	24068
841.153	24182
841.29	24315
841.427	24171
841.564	24243
841.701	24243
841.838	24171
841.975	24102
842.112	24038
842.249	23958
842.385	23908
842.522	24159
842.659	23980
842.796	23927
842.933	24022
843.069	24022
843.206	24026
843.343	23958
843.479	23809
843.616	24068
843.752	23676
843.889	23684
844.025	23931
844.162	23783
844.298	23805
844.435	23676
844.571	23718
844.708	23722
844.844	23851
844.98	23870
845.117	23859
845.253	23543
845.389	23600
845.525	23600
845.661	23611
845.798	23406
845.934	23516
846.07	23277
846.206	23471
846.342	23512
846.478	23425
846.614	23223
846.75	23162
846.886	23250
847.022	23212
847.158	23280
847.294	23315
847.429	23136
847.565	23067
847.701	23330
847.837	22957
847.972	22858
848.108	23025
848.244	23067
848.379	22866
848.515	22805
848.65	22805
848.786	22763
848.921	22790
849.057	22980
849.192	22816
849.328	22793
849.463	22885
849.598	22748
849.734	22615
849.869	22622
850.004	22542
850.14	22546
850.275	22557
850.41	22516
850.545	22474
850.68	22489
850.815	22622
850.95	22489
851.085	22733
851.22	22733
851.355	22519
851.49	22531
851.625	22599
851.76	22367
851.895	22455
852.03	22497
852.165	22527
852.299	22607
852.434	22634
852.569	22535
852.703	22485
852.838	22607
852.973	22645
853.107	22763
853.242	22432
853.376	22367
853.511	22257
853.645	22295
853.78	22375
853.914	22459
854.048	22306
854.183	22291
854.317	22447
854.451	22512
854.585	22390
854.72	22352
854.854	22318
854.988	22333
855.122	22386
855.256	22299
855.39	22447
855.524	22382
855.658	22409
855.792	22424
855.926	22375
856.06	22512
856.194	22470
856.327	22268
856.461	22261
856.595	22360
856.729	22291
856.862	22512
856.996	22432
857.13	22512
857.263	22390
857.397	22569
857.53	22284
857.664	22337
857.797	22428
857.931	22451
858.064	22352
858.197	22432
858.331	22325
858.464	22246
858.597	22246
858.731	22318
858.864	22310
858.997	22314
859.13	22348
859.263	22390
859.396	22443
859.529	22432
859.662	22344
859.795	22325
859.928	22428
860.061	22500
860.194	22668
860.327	22527
860.46	22481
860.592	22462
860.725	22569
860.858	22615
860.99	22443
861.123	22360
861.256	22402
861.388	22219
861.521	22972
861.653	22276
861.786	22120
861.918	22314
862.05	22204
862.183	22287
862.315	22226
862.447	22474
862.58	22303
862.712	22097
862.844	22086
862.976	22139
863.108	22112
863.24	22588
863.372	22006
863.504	22204
863.636	22105
863.768	22135
863.9	22109
864.032	21972
864.164	22116
864.296	22063
864.428	22185
864.559	22112
864.691	22147
864.823	21953
864.954	22074
865.086	21937
865.217	22063
865.349	21903
865.48	21850
865.612	21953
865.743	22086
865.875	21960
866.006	21934
866.137	21983
866.269	21884
866.4	21956
866.531	22017
866.662	21892
866.793	21800
866.924	21880
867.055	21991
867.186	21949
867.317	21865
867.448	21785
867.579	21838
867.71	21774
867.841	21812
867.972	21846
868.103	21823
868.233	21956
868.364	21846
868.495	22002
868.625	22181
868.756	22299
868.886	21964
869.017	22188
869.147	22242
869.278	22360
869.408	22154
869.539	22120
869.669	22329
869.799	22105
869.929	22230
870.06	22188
870.19	22413
870.32	22367
870.45	22569
870.58	22565
870.71	22611
870.84	22630
870.97	22481
871.1	22554
871.23	22645
871.36	22763
871.489	22569
871.619	22668
871.749	22858
871.879	22725
872.008	22801
872.138	22698
872.267	22649
872.397	22493
872.526	22588
872.656	22470
872.785	22672
872.915	22748
873.044	22854
873.173	22786
873.303	22706
873.432	22774
873.561	22805
873.69	22828
873.819	22656
873.948	22774
874.077	22675
874.206	22687
874.335	22710
874.464	22790
874.593	22987
874.722	22896
874.851	23048
874.979	22862
875.108	22980
875.237	22908
875.365	22873
875.494	22946
875.623	22961
875.751	22968
875.88	23121
876.008	22949
876.136	23280
876.265	23395
876.393	23524
876.521	23528
876.65	23573
876.778	23250
876.906	23292
877.034	23174
877.162	23433
877.29	23349
877.418	23185
877.546	23334
877.674	23330
877.802	23181
877.93	23322
878.058	23086
878.185	23170
878.313	23212
878.441	23383
878.568	23178
878.696	23212
878.824	23296
878.951	23345
879.079	23478
879.206	23482
879.333	23482
879.461	23341
879.588	23353
879.715	23471
879.842	23535
879.97	23414
880.097	23060
880.224	23166
880.351	23269
880.478	23052
880.605	23083
880.732	23143
880.859	23444
880.986	23067
881.112	23098
881.239	22900
881.366	22980
881.493	22683
881.619	22786
881.746	22740
881.872	22748
881.999	22626
882.125	22561
882.252	22664
882.378	22611
882.505	22691
882.631	22382
882.757	22382
882.883	22508
883.01	22382
883.136	22314
883.262	22219
883.388	22162
883.514	22356
883.64	22367
883.766	22318
883.892	22162
884.018	22219
884.143	22246
884.269	22432
884.395	22093
884.52	22051
884.646	21964
884.772	21876
884.897	21892
885.023	21960
885.148	22021
885.274	22116
885.399	22143
885.524	21926
885.65	22074
885.775	22051
885.9	21953
886.025	22097
886.15	21998
886.275	22010
886.4	21850
886.525	22032
886.65	22006
886.775	21861
886.9	22093
887.025	22139
887.149	21994
887.274	21850
887.399	21778
887.523	21690
887.648	21698
887.773	21698
887.897	21884
888.021	21789
888.146	21599
888.27	21816
888.395	21762
888.519	21709
888.643	21759
888.767	21816
888.891	21652
889.015	21606
889.139	21545
889.263	21698
889.387	21671
889.511	21759
889.635	21705
889.759	21656
889.883	21553
890.006	21526
890.13	21633
890.254	21454
890.377	21549
890.501	21268
890.624	21321
890.748	21294
890.871	21233
890.995	21104
891.118	21036
891.241	21085
891.364	21104
891.488	21249
891.611	21138
891.734	21135
891.857	21085
891.98	21138
892.103	21146
892.226	21028
892.349	21062
892.471	20941
892.594	21039
892.717	21020
892.839	20979
892.962	20960
893.085	21074
893.207	20979
893.33	20845
893.452	20891
893.575	21013
893.697	20826
893.819	21252
893.941	21138
894.064	21142
894.186	21020
894.308	20880
894.43	21203
894.552	21146
894.674	20971
894.796	20918
894.918	21013
895.04	20864
895.161	20963
895.283	20918
895.405	20853
895.526	20941
895.648	20956
895.769	21116
895.891	20918
896.012	21043
896.134	20994
896.255	20937
896.376	20857
896.498	20941
896.619	20982
896.74	20895
896.861	20906
896.982	21161
897.103	21370
897.224	21195
897.345	21116
897.466	21188
897.587	21127
897.708	21226
897.828	21222
897.949	21066
898.07	20975
898.19	21039
898.311	21184
898.431	21100
898.552	21211
898.672	21291
898.792	21195
898.913	21039
899.033	21028
899.153	20929
899.273	20883
899.393	20864
899.513	20967
899.633	20853
899.753	20952
899.873	20910
899.993	20880
900.113	20887
900.232	20796
900.352	20895
900.472	20765
900.591	20693
900.711	20663
900.83	20583
900.95	20758
901.069	20773
901.189	20568
901.308	20218
901.427	20111
901.546	20237
901.665	20278
901.784	20244
901.904	20046
902.023	20065
902.141	19875
902.26	19830
902.379	19776
902.498	19681
902.617	19830
902.735	19658
902.854	19689
902.973	19731
903.091	19483
903.21	19377
903.328	19297
903.446	19247
903.565	19236
903.683	19152
903.801	19065
903.919	19198
904.038	19209
904.156	19012
904.274	19031
904.392	19023
904.51	18909
904.627	19019
904.745	19019
904.863	19004
904.981	18650
905.098	18593
905.216	18582
905.334	18593
905.451	18639
905.569	18551
905.686	18612
905.803	18623
905.921	18502
906.038	18563
906.155	18441
906.272	18281
906.389	18327
906.506	18235
906.623	18110
906.74	18228
906.857	18057
906.974	18019
907.091	18167
907.208	18190
907.324	18209
907.441	18022
907.557	17870
907.674	17863
907.79	17851
907.907	17745
908.023	17745
908.139	17859
908.256	17908
908.372	17817
908.488	17710
908.604	17691
908.72	17554
908.836	17676
908.952	17554
909.068	17703
909.184	17672
909.3	17630
909.415	17649
909.531	17535
909.647	17220
909.762	17318
909.878	17337
909.993	17220
910.108	17265
910.224	17246
910.339	17227
910.454	17181
910.57	16991
910.685	16972
910.8	17349
910.915	17147
911.03	17041
911.145	16904
911.259	16885
911.374	16835
911.489	16706
911.604	16679
911.718	16508
911.833	16653
911.947	16523
912.062	16459
912.176	16588
912.291	16599
912.405	16584
912.519	16831
912.633	16748
912.748	16558
912.862	16508
912.976	16474
913.09	16261
913.204	16459
913.318	16440
913.431	16561
913.545	16443
913.659	16569
913.772	16409
913.886	16162
914	16200
914.113	16333
914.226	16440
914.34	16265
914.453	16074
914.566	16169
914.68	16051
914.793	16051
914.906	15812
915.019	15770
915.132	15736
915.245	15797
915.358	15838
915.47	15724
915.583	15743
915.696	15739
915.809	15785
915.921	15827
916.034	15656
916.146	15686
916.259	15675
916.371	15701
916.483	15724
916.595	15576
916.708	15587
916.82	15644
916.932	15557
917.044	15511
917.156	15538
917.268	15386
917.38	15351
917.491	15420
917.603	15466
917.715	15511
917.826	15534
917.938	15291
918.049	15211
918.161	15428
918.272	15496
918.384	15416
918.495	15233
918.606	15249
918.717	15150
918.828	15199
918.939	15165
919.05	15036
919.161	15207
919.272	14948
919.383	14971
919.494	15097
919.604	15294
919.715	15154
919.826	14971
919.936	15070
920.047	15135
920.157	15070
920.267	15279
920.378	15104
920.488	15051
920.598	15218
920.708	15420
920.818	15211
920.928	15222
921.038	15321
921.148	15279
921.258	15055
921.368	14868
921.477	14796
921.587	14746
921.697	14655
921.806	14838
921.916	14750
922.025	14606
922.134	14476
922.244	14370
922.353	14480
922.462	14271
922.571	14282
922.68	14058
922.789	14020
922.898	14123
923.007	14077
923.116	14153
923.224	14031
923.333	14088
923.442	13925
923.55	13974
923.659	13921
923.767	13909
923.876	13871
923.984	13993
924.092	13830
924.201	13849
924.309	13734
924.417	13791
924.525	13868
924.633	13666
924.741	14682
924.849	13601
924.956	13753
925.064	13563
925.172	13453
925.279	13487
925.387	13472
925.494	13453
925.602	13677
925.709	13510
925.816	13365
925.924	13445
926.031	13548
926.138	13445
926.245	13548
926.352	13289
926.459	13491
926.566	13464
926.673	13396
926.779	13225
926.886	13175
926.993	13065
927.099	13061
927.206	13050
927.312	13027
927.419	13038
927.525	12973
927.631	12993
927.737	12844
927.843	12920
927.95	12806
928.056	12783
928.162	12840
928.267	12951
928.373	13419
928.479	12859
928.585	12639
928.69	12886
928.796	12658
928.901	12696
929.007	12582
929.112	12722
929.218	12681
929.323	12540
929.428	12608
929.533	12665
929.638	12517
929.743	12574
929.848	12578
929.953	12418
930.058	12418
930.163	12285
930.267	12216
930.372	12456
930.477	12163
930.581	12372
930.685	12289
930.79	12045
930.894	12220
930.998	12072
931.103	12228
931.207	11847
931.311	11775
931.415	11657
931.519	11539
931.623	11630
