Data from test_V78500241_2892.txt Node
Date: Fri Mar 25 16:01:50 CST 2022
User: usil
Spectrometer: V785-0024
Trigger mode: 0
Integration Time (sec): 4.000000E-1
Scans to average: 1
Nonlinearity correction enabled: false
Boxcar width: 0
Storing dark spectrum: false
XAxis mode: Wavelengths
Number of Pixels in Spectrum: 1024
>>>>>Begin Spectral Data<<<<<
801.071	28656
801.214	28615
801.356	28470
801.499	28329
801.641	28287
801.783	28291
801.926	28337
802.068	28246
802.211	28128
802.353	28348
802.496	28211
802.638	28074
802.78	28158
802.923	28063
803.065	27854
803.208	27892
803.35	27911
803.492	28074
803.635	28337
803.777	28139
803.919	28234
804.061	28634
804.204	28337
804.346	28086
804.488	28128
804.63	28230
804.773	28249
804.915	28356
805.057	28344
805.199	28181
805.341	28219
805.483	28481
805.626	28386
805.768	28314
805.91	28394
806.052	28497
806.194	28428
806.336	28459
806.478	28516
806.62	28371
806.762	28493
806.904	28672
807.046	29022
807.188	28778
807.33	28991
807.472	28733
807.614	28892
807.756	28900
807.898	28816
808.04	28580
808.182	28622
808.324	28847
808.465	28713
808.607	29071
808.749	29151
808.891	29162
809.033	29288
809.174	29033
809.316	29083
809.458	29334
809.6	29052
809.741	29102
809.883	29254
810.025	29395
810.166	29273
810.308	29395
810.45	29349
810.591	29216
810.733	29075
810.875	29147
811.016	29079
811.158	29094
811.299	29079
811.441	29223
811.582	29220
811.724	29079
811.865	29178
812.007	29075
812.148	29083
812.29	29197
812.431	29406
812.573	29364
812.714	29615
812.855	29566
812.997	29745
813.138	29786
813.279	29573
813.421	29668
813.562	29482
813.703	29284
813.845	29299
813.986	28938
814.127	28980
814.268	28664
814.41	28809
814.551	28919
814.692	28862
814.833	28660
814.974	28725
815.115	28881
815.256	28603
815.397	28675
815.539	28763
815.68	28626
815.821	28611
815.962	28622
816.103	28588
816.244	28459
816.385	28409
816.526	28284
816.666	28249
816.807	28147
816.948	28196
817.089	28116
817.23	28131
817.371	28093
817.512	28135
817.653	27968
817.793	28051
817.934	28101
818.075	28143
818.216	28177
818.356	27941
818.497	28067
818.638	27850
818.778	27747
818.919	27838
819.06	27926
819.2	28048
819.341	28257
819.481	28082
819.622	28265
819.762	28474
819.903	28447
820.043	28287
820.184	28348
820.324	28268
820.465	28341
820.605	28337
820.746	28303
820.886	28211
821.026	28105
821.167	28204
821.307	28265
821.447	28192
821.588	28112
821.728	27964
821.868	27804
822.008	27496
822.149	27614
822.289	27523
822.429	27203
822.569	27237
822.709	27374
822.849	27081
822.99	27241
823.13	27249
823.27	27150
823.41	27039
823.55	26815
823.69	26944
823.83	26944
823.97	26971
824.11	26746
824.25	26727
824.389	26807
824.529	26891
824.669	26883
824.809	26982
824.949	26792
825.089	26762
825.228	26857
825.368	26530
825.508	26819
825.648	26781
825.787	26617
825.927	26785
826.067	26640
826.206	26556
826.346	26777
826.485	26682
826.625	26632
826.765	26727
826.904	26792
827.044	26495
827.183	26412
827.323	26446
827.462	26476
827.601	26408
827.741	26301
827.88	26393
828.02	26415
828.159	26332
828.298	26495
828.437	26343
828.577	26294
828.716	26434
828.855	26328
828.994	25993
829.134	26122
829.273	26031
829.412	26077
829.551	25963
829.69	25974
829.829	26077
829.968	26138
830.107	26252
830.246	26065
830.385	26016
830.524	25917
830.663	25917
830.802	25955
830.941	25597
831.08	25575
831.219	25658
831.357	25719
831.496	25879
831.635	25616
831.774	25548
831.913	25552
832.051	25518
832.19	25403
832.329	25601
832.467	25297
832.606	25259
832.744	25251
832.883	25301
833.022	25282
833.16	25293
833.299	25362
833.437	25434
833.576	25396
833.714	25289
833.852	25582
833.991	25544
834.129	25495
834.267	25472
834.406	25312
834.544	25430
834.682	25308
834.821	25240
834.959	25426
835.097	25304
835.235	25445
835.373	25449
835.511	25358
835.65	25244
835.788	25232
835.926	25160
836.064	25103
836.202	25046
836.34	25312
836.478	25240
836.615	25221
836.753	25259
836.891	25259
837.029	25171
837.167	25179
837.305	25133
837.443	24939
837.58	25008
837.718	25141
837.856	25038
837.993	25122
838.131	25118
838.269	24970
838.406	24985
838.544	24973
838.681	24764
838.819	24620
838.956	24578
839.094	24582
839.231	24566
839.369	24700
839.506	24825
839.643	24779
839.781	24471
839.918	24475
840.055	24384
840.193	24391
840.33	24521
840.467	24448
840.604	24532
840.742	24646
840.879	24327
841.016	24384
841.153	24311
841.29	24601
841.427	24513
841.564	24376
841.701	24410
841.838	24399
841.975	24235
842.112	24224
842.249	24148
842.385	24026
842.522	24460
842.659	24186
842.796	24133
842.933	24186
843.069	24091
843.206	24216
843.343	24178
843.479	24114
843.616	24144
843.752	24064
843.889	23931
844.025	24224
844.162	23935
844.298	24015
844.435	23996
844.571	23977
844.708	24072
844.844	24076
844.98	24038
845.117	23988
845.253	23779
845.389	23767
845.525	23897
845.661	23805
845.798	23634
845.934	23615
846.07	23551
846.206	23604
846.342	23710
846.478	23638
846.614	23307
846.75	23246
846.886	23299
847.022	23421
847.158	23391
847.294	23459
847.429	23379
847.565	23455
847.701	23581
847.837	23105
847.972	22999
848.108	23280
848.244	23098
848.379	23102
848.515	22915
848.65	23048
848.786	23010
848.921	23086
849.057	23128
849.192	23064
849.328	23018
849.463	22995
849.598	22858
849.734	22900
849.869	22835
850.004	22797
850.14	22755
850.275	22782
850.41	22630
850.545	22687
850.68	22733
850.815	22710
850.95	22812
851.085	23018
851.22	22965
851.355	22771
851.49	22702
851.625	22710
851.76	22710
851.895	22607
852.03	22679
852.165	22656
852.299	22740
852.434	22824
852.569	22725
852.703	22717
852.838	22854
852.973	22934
853.107	22900
853.242	22675
853.376	22630
853.511	22440
853.645	22527
853.78	22744
853.914	22679
854.048	22485
854.183	22607
854.317	22656
854.451	22812
854.585	22538
854.72	22554
854.854	22603
854.988	22542
855.122	22550
855.256	22478
855.39	22611
855.524	22653
855.658	22497
855.792	22573
855.926	22580
856.06	22546
856.194	22793
856.327	22459
856.461	22584
856.595	22634
856.729	22546
856.862	22656
856.996	22596
857.13	22550
857.263	22691
857.397	22786
857.53	22584
857.664	22630
857.797	22653
857.931	22805
858.064	22607
858.197	22729
858.331	22599
858.464	22478
858.597	22462
858.731	22504
858.864	22603
858.997	22580
859.13	22538
859.263	22538
859.396	22615
859.529	22588
859.662	22481
859.795	22451
859.928	22500
860.061	22725
860.194	22771
860.327	22599
860.46	22649
860.592	22637
860.725	22793
860.858	22672
860.99	22637
861.123	22508
861.256	22402
861.388	22561
861.521	23349
861.653	22421
861.786	22333
861.918	22504
862.05	22462
862.183	22470
862.315	22470
862.447	22428
862.58	22440
862.712	22299
862.844	22200
862.976	22348
863.108	22329
863.24	22752
863.372	22200
863.504	22322
863.636	22310
863.768	22329
863.9	22284
864.032	22162
864.164	22249
864.296	22204
864.428	22333
864.559	22341
864.691	22360
864.823	22196
864.954	22253
865.086	22242
865.217	22181
865.349	22154
865.48	22238
865.612	22162
865.743	22147
865.875	22120
866.006	22143
866.137	22207
866.269	22074
866.4	22021
866.531	21994
866.662	22147
866.793	22124
866.924	22105
867.055	22147
867.186	22101
867.317	22112
867.448	21888
867.579	22086
867.71	21926
867.841	22021
867.972	22036
868.103	22101
868.233	21998
868.364	22105
868.495	22242
868.625	22341
868.756	22371
868.886	22158
869.017	22394
869.147	22436
869.278	22333
869.408	22276
869.539	22223
869.669	22447
869.799	22394
869.929	22409
870.06	22386
870.19	22653
870.32	22611
870.45	22637
870.58	22748
870.71	22862
870.84	22774
870.97	22740
871.1	22645
871.23	22908
871.36	22938
871.489	22885
871.619	22885
871.749	22892
871.879	23014
872.008	22995
872.138	22965
872.267	22904
872.397	22915
872.526	22721
872.656	22721
872.785	22729
872.915	22991
873.044	22915
873.173	22923
873.303	23060
873.432	22968
873.561	23117
873.69	22900
873.819	22930
873.948	22953
874.077	22892
874.206	22908
874.335	22858
874.464	23018
874.593	23136
874.722	23098
874.851	23273
874.979	23242
875.108	23204
875.237	23105
875.365	23022
875.494	23140
875.623	23349
875.751	23151
875.88	23067
876.008	23166
876.136	23353
876.265	23478
876.393	23589
876.521	23672
876.65	23585
876.778	23558
876.906	23482
877.034	23478
877.162	23501
877.29	23376
877.418	23512
877.546	23539
877.674	23421
877.802	23497
877.93	23467
878.058	23425
878.185	23372
878.313	23421
878.441	23566
878.568	23284
878.696	23535
878.824	23459
878.951	23615
879.079	23733
879.206	23722
879.333	23577
879.461	23570
879.588	23585
879.715	23665
879.842	23775
879.97	23463
880.097	23391
880.224	23185
880.351	23269
880.478	23406
880.605	23273
880.732	23398
880.859	23452
880.986	23318
881.112	23273
881.239	23239
881.366	22911
881.493	22904
881.619	22908
881.746	23006
881.872	22942
881.999	22752
882.125	22908
882.252	22797
882.378	22767
882.505	22885
882.631	22710
882.757	22626
882.883	22637
883.01	22508
883.136	22519
883.262	22405
883.388	22234
883.514	22493
883.64	22538
883.766	22405
883.892	22352
884.018	22478
884.143	22535
884.269	22497
884.395	22287
884.52	22291
884.646	22200
884.772	22158
884.897	22082
885.023	22234
885.148	22234
885.274	22280
885.399	22299
885.524	22207
885.65	22306
885.775	22135
885.9	22086
886.025	22337
886.15	22124
886.275	22207
886.4	22101
886.525	22017
886.65	22070
886.775	22013
886.9	22200
887.025	22405
887.149	22116
887.274	22017
887.399	21979
887.523	21911
887.648	21895
887.773	21747
887.897	22048
888.021	21819
888.146	21941
888.27	22032
888.395	22021
888.519	21953
888.643	21983
888.767	21922
888.891	21884
889.015	21717
889.139	21686
889.263	21717
889.387	21728
889.511	21907
889.635	21907
889.759	21736
889.883	21747
890.006	21823
890.13	21842
890.254	21713
890.377	21694
890.501	21496
890.624	21504
890.748	21564
890.871	21344
890.995	21302
891.118	21313
891.241	21310
891.364	21230
891.488	21416
891.611	21351
891.734	21329
891.857	21325
891.98	21370
892.103	21302
892.226	21230
892.349	21241
892.471	21066
892.594	21230
892.717	21199
892.839	21112
892.962	21256
893.085	21233
893.207	21199
893.33	21112
893.452	21104
893.575	21237
893.697	21138
893.819	21260
893.941	21313
894.064	21283
894.186	21192
894.308	21131
894.43	21245
894.552	21279
894.674	21161
894.796	21020
894.918	21264
895.04	21123
895.161	21283
895.283	21184
895.405	21096
895.526	21154
895.648	21142
895.769	21131
895.891	21150
896.012	21249
896.134	21214
896.255	21131
896.376	21123
896.498	21085
896.619	21089
896.74	21252
896.861	21310
896.982	21519
897.103	21698
897.224	21469
897.345	21420
897.466	21466
897.587	21370
897.708	21568
897.828	21416
897.949	21249
898.07	21154
898.19	21325
898.311	21534
898.431	21348
898.552	21317
898.672	21500
898.792	21428
898.913	21424
899.033	21150
899.153	21058
899.273	21138
899.393	21077
899.513	21119
899.633	21108
899.753	21051
899.873	21074
899.993	21146
900.113	21070
900.232	21161
900.352	20963
900.472	20895
900.591	20705
900.711	20868
900.83	20815
900.95	20899
901.069	20925
901.189	20765
901.308	20594
901.427	20339
901.546	20393
901.665	20446
901.784	20412
901.904	20305
902.023	20282
902.141	19959
902.26	19909
902.379	19936
902.498	20020
902.617	19936
902.735	20005
902.854	19845
902.973	19765
903.091	19643
903.21	19647
903.328	19518
903.446	19453
903.565	19377
903.683	19483
903.801	19274
903.919	19365
904.038	19331
904.156	19118
904.274	19168
904.392	19148
904.51	19152
904.627	19099
904.745	19141
904.863	19198
904.981	18875
905.098	18894
905.216	18715
905.334	18871
905.451	18848
905.569	18722
905.686	18787
905.803	18810
905.921	18604
906.038	18635
906.155	18627
906.272	18445
906.389	18437
906.506	18399
906.623	18273
906.74	18300
906.857	18197
906.974	18228
907.091	18380
907.208	18441
907.324	18285
907.441	18106
907.557	18133
907.674	18068
907.79	17946
907.907	18106
908.023	18022
908.139	18091
908.256	17961
908.372	17992
908.488	17920
908.604	17710
908.72	17695
908.836	17771
908.952	17771
909.068	17748
909.184	17916
909.3	17691
909.415	17718
909.531	17767
909.647	17505
909.762	17490
909.878	17444
909.993	17433
910.108	17372
910.224	17368
910.339	17402
910.454	17311
910.57	17242
910.685	17094
910.8	17383
910.915	17501
911.03	17204
911.145	17045
911.259	17052
911.374	17067
911.489	16900
911.604	16984
911.718	16831
911.833	16725
911.947	16679
912.062	16561
912.176	16694
912.291	16923
912.405	16847
912.519	16976
912.633	16938
912.748	16850
912.862	16748
912.976	16596
913.09	16546
913.204	16622
913.318	16603
913.431	16702
913.545	16691
913.659	16649
913.772	16554
913.886	16508
914	16352
914.113	16478
914.226	16474
914.34	16386
914.453	16173
914.566	16375
914.68	16280
914.793	16188
914.906	16078
915.019	15949
915.132	15918
915.245	15888
915.358	15998
915.47	15998
915.583	16032
915.696	16082
915.809	15998
915.921	16059
916.034	15918
916.146	15873
916.259	15819
916.371	16025
916.483	15949
916.595	15759
916.708	15694
916.82	15804
916.932	15614
917.044	15766
917.156	15720
917.268	15580
917.38	15660
917.491	15576
917.603	15629
917.715	15713
917.826	15625
917.938	15477
918.049	15401
918.161	15526
918.272	15690
918.384	15618
918.495	15564
918.606	15317
918.717	15298
918.828	15310
918.939	15203
919.05	15157
919.161	15233
919.272	15097
919.383	15039
919.494	15336
919.604	15511
919.715	15279
919.826	15127
919.936	15211
920.047	15317
920.157	15264
920.267	15469
920.378	15245
920.488	15233
920.598	15321
920.708	15469
920.818	15348
920.928	15332
921.038	15488
921.148	15534
921.258	15100
921.368	15127
921.477	15066
921.587	14956
921.697	14880
921.806	14971
921.916	14887
922.025	14682
922.134	14716
922.244	14625
922.353	14583
922.462	14514
922.571	14454
922.68	14271
922.789	14275
922.898	14305
923.007	14267
923.116	14183
923.224	14221
923.333	14180
923.442	14077
923.55	14103
923.659	14134
923.767	14077
923.876	14043
923.984	14081
924.092	14046
924.201	14107
924.309	13944
924.417	14031
924.525	13887
924.633	13875
924.741	14902
924.849	13677
924.956	13830
925.064	13609
925.172	13544
925.279	13689
925.387	13715
925.494	13643
925.602	13734
925.709	13708
925.816	13510
925.924	13590
926.031	13582
926.138	13537
926.245	13628
926.352	13453
926.459	13571
926.566	13537
926.673	13438
926.779	13304
926.886	13335
926.993	13244
927.099	13160
927.206	13164
927.312	13072
927.419	13225
927.525	13149
927.631	13175
927.737	12985
927.843	12996
927.95	12856
928.056	12882
928.162	12928
928.267	13046
928.373	13681
928.479	13072
928.585	12825
928.69	12890
928.796	12966
928.901	12886
929.007	12662
929.112	12779
929.218	12722
929.323	12734
929.428	12753
929.533	12859
929.638	12544
929.743	12631
929.848	12684
929.953	12642
930.058	12483
930.163	12330
930.267	12346
930.372	12544
930.477	12365
930.581	12559
930.685	12315
930.79	12258
930.894	12338
930.998	12163
931.103	12308
931.207	11931
931.311	11916
931.415	11843
931.519	11638
931.623	11482
