Data from test_V78500241_2174.txt Node
Date: Fri Mar 25 15:56:51 CST 2022
User: usil
Spectrometer: V785-0024
Trigger mode: 0
Integration Time (sec): 4.000000E-1
Scans to average: 1
Nonlinearity correction enabled: false
Boxcar width: 0
Storing dark spectrum: false
XAxis mode: Wavelengths
Number of Pixels in Spectrum: 1024
>>>>>Begin Spectral Data<<<<<
801.071	28797
801.214	28771
801.356	28527
801.499	28542
801.641	28310
801.783	28440
801.926	28459
802.068	28230
802.211	28318
802.353	28306
802.496	28215
802.638	28128
802.78	28219
802.923	27930
803.065	27964
803.208	27918
803.35	27964
803.492	28310
803.635	28287
803.777	28272
803.919	28322
804.061	28706
804.204	28516
804.346	28306
804.488	28276
804.63	28352
804.773	28207
804.915	28478
805.057	28413
805.199	28417
805.341	28546
805.483	28569
805.626	28535
805.768	28314
805.91	28466
806.052	28694
806.194	28413
806.336	28622
806.478	28649
806.62	28466
806.762	28675
806.904	28824
807.046	28976
807.188	28965
807.33	28748
807.472	29117
807.614	28881
807.756	28991
807.898	28927
808.04	28752
808.182	28820
808.324	28930
808.465	28888
808.607	28911
808.749	29170
808.891	29280
809.033	29402
809.174	29250
809.316	29223
809.458	29124
809.6	29147
809.741	29273
809.883	29330
810.025	29318
810.166	29573
810.308	29459
810.45	29455
810.591	29547
810.733	29258
810.875	29151
811.016	29060
811.158	29242
811.299	29208
811.441	29353
811.582	29395
811.724	29124
811.865	29216
812.007	29079
812.148	29208
812.29	29265
812.431	29429
812.573	29493
812.714	29573
812.855	29676
812.997	29969
813.138	29882
813.279	29809
813.421	29760
813.562	29619
813.703	29421
813.845	29406
813.986	29102
814.127	28881
814.268	28984
814.41	29014
814.551	28896
814.692	28946
814.833	28843
814.974	28850
815.115	29067
815.256	28744
815.397	28847
815.539	28866
815.68	28691
815.821	28607
815.962	28816
816.103	28744
816.244	28557
816.385	28519
816.526	28527
816.666	28238
816.807	28295
816.948	28291
817.089	28344
817.23	28196
817.371	28200
817.512	28185
817.653	28112
817.793	28185
817.934	28291
818.075	28207
818.216	28261
818.356	28196
818.497	28063
818.638	27975
818.778	27956
818.919	27987
819.06	28109
819.2	28055
819.341	28306
819.481	28333
819.622	28386
819.762	28717
819.903	28523
820.043	28401
820.184	28470
820.324	28299
820.465	28443
820.605	28500
820.746	28337
820.886	28246
821.026	28352
821.167	28265
821.307	28478
821.447	28192
821.588	28147
821.728	28021
821.868	27968
822.008	27808
822.149	27819
822.289	27622
822.429	27507
822.569	27401
822.709	27511
822.849	27173
822.99	27207
823.13	27150
823.27	27119
823.41	27074
823.55	26918
823.69	27062
823.83	27119
823.97	27017
824.11	26876
824.25	26762
824.389	26868
824.529	26872
824.669	26785
824.809	26902
824.949	27009
825.089	26937
825.228	26842
825.368	26701
825.508	26727
825.648	26716
825.787	26868
825.927	26777
826.067	26689
826.206	26861
826.346	26899
826.485	26891
826.625	26693
826.765	26739
826.904	26754
827.044	26549
827.183	26663
827.323	26503
827.462	26648
827.601	26351
827.741	26541
827.88	26583
828.02	26442
828.159	26450
828.298	26492
828.437	26606
828.577	26324
828.716	26514
828.855	26301
828.994	26290
829.134	26271
829.273	26168
829.412	26111
829.551	26027
829.69	26267
829.829	26240
829.968	26180
830.107	26183
830.246	26187
830.385	26043
830.524	26138
830.663	25913
830.802	25826
830.941	25685
831.08	25750
831.219	25628
831.357	25830
831.496	25921
831.635	25757
831.774	25586
831.913	25586
832.051	25556
832.19	25510
832.329	25567
832.467	25441
832.606	25422
832.744	25377
832.883	25434
833.022	25407
833.16	25460
833.299	25518
833.437	25479
833.576	25445
833.714	25556
833.852	25632
833.991	25575
834.129	25407
834.267	25468
834.406	25518
834.544	25548
834.682	25502
834.821	25552
834.959	25662
835.097	25537
835.235	25605
835.373	25510
835.511	25434
835.65	25331
835.788	25377
835.926	25247
836.064	25179
836.202	25148
836.34	25297
836.478	25403
836.615	25358
836.753	25346
836.891	25320
837.029	25251
837.167	25266
837.305	25244
837.443	25251
837.58	25137
837.718	25255
837.856	25156
837.993	25289
838.131	25118
838.269	25000
838.406	25046
838.544	25019
838.681	24738
838.819	24897
838.956	24681
839.094	24673
839.231	24692
839.369	24875
839.506	24932
839.643	24859
839.781	24623
839.918	24509
840.055	24551
840.193	24570
840.33	24627
840.467	24445
840.604	24673
840.742	24760
840.879	24395
841.016	24513
841.153	24388
841.29	24631
841.427	24623
841.564	24589
841.701	24471
841.838	24460
841.975	24414
842.112	24433
842.249	24350
842.385	24239
842.522	24665
842.659	24391
842.796	24380
842.933	24205
843.069	24277
843.206	24308
843.343	24273
843.479	24205
843.616	24251
843.752	24064
843.889	24079
844.025	24224
844.162	24121
844.298	24216
844.435	23996
844.571	24003
844.708	24106
844.844	24178
844.98	24098
845.117	24247
845.253	24015
845.389	23977
845.525	23980
845.661	23893
845.798	23775
845.934	23980
846.07	23741
846.206	23794
846.342	24030
846.478	23790
846.614	23627
846.75	23421
846.886	23490
847.022	23558
847.158	23611
847.294	23493
847.429	23463
847.565	23558
847.701	23878
847.837	23284
847.972	23216
848.108	23414
848.244	23326
848.379	23071
848.515	23159
848.65	23098
848.786	23151
848.921	22995
849.057	23185
849.192	23159
849.328	23094
849.463	23132
849.598	23113
849.734	22999
849.869	22980
850.004	22889
850.14	22908
850.275	22904
850.41	22854
850.545	22835
850.68	22923
850.815	22938
850.95	22961
851.085	23113
851.22	22946
851.355	22801
851.49	22908
851.625	22820
851.76	22873
851.895	22740
852.03	22710
852.165	22812
852.299	22965
852.434	22946
852.569	22869
852.703	22942
852.838	22976
852.973	23071
853.107	22953
853.242	22698
853.376	22611
853.511	22577
853.645	22713
853.78	22748
853.914	22660
854.048	22645
854.183	22717
854.317	22698
854.451	22850
854.585	22733
854.72	22679
854.854	22763
854.988	22656
855.122	22687
855.256	22603
855.39	22618
855.524	22653
855.658	22706
855.792	22683
855.926	22767
856.06	22702
856.194	22725
856.327	22710
856.461	22603
856.595	22538
856.729	22634
856.862	22850
856.996	22748
857.13	22672
857.263	22733
857.397	22858
857.53	22736
857.664	22615
857.797	22763
857.931	22717
858.064	22626
858.197	22744
858.331	22634
858.464	22622
858.597	22531
858.731	22767
858.864	22694
858.997	22607
859.13	22683
859.263	22649
859.396	22752
859.529	22694
859.662	22557
859.795	22713
859.928	22706
860.061	22862
860.194	22835
860.327	22721
860.46	22717
860.592	22771
860.725	22839
860.858	22869
860.99	22706
861.123	22615
861.256	22588
861.388	22748
861.521	23254
861.653	22493
861.786	22443
861.918	22531
862.05	22641
862.183	22504
862.315	22706
862.447	22702
862.58	22622
862.712	22405
862.844	22322
862.976	22455
863.108	22409
863.24	22820
863.372	22215
863.504	22402
863.636	22451
863.768	22352
863.9	22363
864.032	22341
864.164	22333
864.296	22360
864.428	22443
864.559	22474
864.691	22417
864.823	22478
864.954	22295
865.086	22310
865.217	22341
865.349	22207
865.48	22192
865.612	22200
865.743	22413
865.875	22280
866.006	22116
866.137	22249
866.269	22360
866.4	22268
866.531	22215
866.662	22226
866.793	22181
866.924	22196
867.055	22363
867.186	22051
867.317	22055
867.448	22032
867.579	22223
867.71	22169
867.841	22101
867.972	22207
868.103	22124
868.233	22124
868.364	22219
868.495	22284
868.625	22310
868.756	22402
868.886	22481
869.017	22462
869.147	22500
869.278	22550
869.408	22325
869.539	22413
869.669	22390
869.799	22382
869.929	22637
870.06	22596
870.19	22786
870.32	22729
870.45	22755
870.58	22812
870.71	22908
870.84	22984
870.97	22904
871.1	22889
871.23	23006
871.36	22961
871.489	22923
871.619	23022
871.749	22858
871.879	23006
872.008	23044
872.138	22934
872.267	22946
872.397	22881
872.526	22965
872.656	22946
872.785	22847
872.915	23006
873.044	23200
873.173	23029
873.303	23037
873.432	22999
873.561	23090
873.69	23067
873.819	22968
873.948	23223
874.077	23029
874.206	23060
874.335	22995
874.464	23227
874.593	23235
874.722	23292
874.851	23204
874.979	23113
875.108	23280
875.237	23178
875.365	23178
875.494	23181
875.623	23269
875.751	23299
875.88	23280
876.008	23395
876.136	23395
876.265	23642
876.393	23703
876.521	23726
876.65	23707
876.778	23604
876.906	23467
877.034	23608
877.162	23562
877.29	23467
877.418	23642
877.546	23592
877.674	23528
877.802	23448
877.93	23630
878.058	23482
878.185	23474
878.313	23615
878.441	23653
878.568	23395
878.696	23630
878.824	23611
878.951	23638
879.079	23783
879.206	23908
879.333	23733
879.461	23592
879.588	23779
879.715	23687
879.842	23836
879.97	23554
880.097	23440
880.224	23303
880.351	23566
880.478	23379
880.605	23364
880.732	23391
880.859	23547
880.986	23471
881.112	23558
881.239	23391
881.366	23170
881.493	23029
881.619	22984
881.746	22965
881.872	23041
881.999	22839
882.125	22915
882.252	22927
882.378	22938
882.505	23094
882.631	22812
882.757	22683
882.883	22759
883.01	22592
883.136	22565
883.262	22516
883.388	22466
883.514	22637
883.64	22740
883.766	22428
883.892	22443
884.018	22531
884.143	22573
884.269	22752
884.395	22280
884.52	22276
884.646	22375
884.772	22166
884.897	22162
885.023	22333
885.148	22211
885.274	22508
885.399	22375
885.524	22306
885.65	22303
885.775	22067
885.9	22242
886.025	22299
886.15	22424
886.275	22246
886.4	22139
886.525	22291
886.65	22185
886.775	22093
886.9	22268
887.025	22402
887.149	22299
887.274	22010
887.399	22082
887.523	22063
887.648	22070
887.773	21819
887.897	22139
888.021	21945
888.146	21835
888.27	22116
888.395	22147
888.519	22116
888.643	22063
888.767	22067
888.891	21918
889.015	21816
889.139	21876
889.263	21785
889.387	21926
889.511	22025
889.635	21842
889.759	21743
889.883	21743
890.006	21785
890.13	21850
890.254	21766
890.377	21793
890.501	21534
890.624	21393
890.748	21507
890.871	21542
890.995	21279
891.118	21222
891.241	21431
891.364	21363
891.488	21542
891.611	21256
891.734	21458
891.857	21321
891.98	21443
892.103	21321
892.226	21367
892.349	21321
892.471	21237
892.594	21207
892.717	21226
892.839	21279
892.962	21370
893.085	21142
893.207	21180
893.33	20967
893.452	21203
893.575	21287
893.697	21195
893.819	21355
893.941	21420
894.064	21336
894.186	21237
894.308	21096
894.43	21264
894.552	21260
894.674	21306
894.796	21214
894.918	21119
895.04	21169
895.161	21214
895.283	21260
895.405	21211
895.526	21157
895.648	21195
895.769	21317
895.891	21313
896.012	21340
896.134	21294
896.255	21279
896.376	21252
896.498	21176
896.619	21241
896.74	21192
896.861	21249
896.982	21561
897.103	21625
897.224	21435
897.345	21382
897.466	21317
897.587	21386
897.708	21450
897.828	21526
897.949	21435
898.07	21214
898.19	21348
898.311	21408
898.431	21405
898.552	21363
898.672	21519
898.792	21439
898.913	21329
899.033	21313
899.153	21291
899.273	21131
899.393	20956
899.513	21211
899.633	21112
899.753	21032
899.873	21039
899.993	21157
900.113	21169
900.232	21123
900.352	21005
900.472	20952
900.591	20853
900.711	20982
900.83	20899
900.95	20929
901.069	20975
901.189	20788
901.308	20564
901.427	20454
901.546	20533
901.665	20522
901.784	20541
901.904	20214
902.023	20180
902.141	20031
902.26	19997
902.379	20126
902.498	20001
902.617	19883
902.735	19959
902.854	19913
902.973	19845
903.091	19715
903.21	19651
903.328	19575
903.446	19582
903.565	19403
903.683	19346
903.801	19324
903.919	19422
904.038	19430
904.156	19190
904.274	19400
904.392	19194
904.51	19088
904.627	19099
904.745	19107
904.863	19232
904.981	19008
905.098	18817
905.216	18802
905.334	18951
905.451	18905
905.569	18878
905.686	18856
905.803	18882
905.921	18700
906.038	18658
906.155	18650
906.272	18494
906.389	18532
906.506	18471
906.623	18391
906.74	18361
906.857	18247
906.974	18155
907.091	18486
907.208	18467
907.324	18357
907.441	18292
907.557	18224
907.674	18060
907.79	18057
907.907	18091
908.023	18167
908.139	18060
908.256	18034
908.372	17980
908.488	17988
908.604	17809
908.72	17764
908.836	17855
908.952	17802
909.068	17729
909.184	17889
909.3	17783
909.415	17783
909.531	17703
909.647	17528
909.762	17482
909.878	17467
909.993	17440
910.108	17509
910.224	17311
910.339	17421
910.454	17299
910.57	17265
910.685	17208
910.8	17497
910.915	17417
911.03	17322
911.145	17048
911.259	17090
911.374	16934
911.489	16953
911.604	16930
911.718	16786
911.833	16812
911.947	16710
912.062	16637
912.176	16782
912.291	16793
912.405	16778
912.519	16873
912.633	16911
912.748	16866
912.862	16603
912.976	16683
913.09	16421
913.204	16546
913.318	16679
913.431	16653
913.545	16630
913.659	16683
913.772	16512
913.886	16459
914	16584
914.113	16493
914.226	16535
914.34	16421
914.453	16261
914.566	16394
914.68	16337
914.793	16299
914.906	16097
915.019	16078
915.132	15987
915.245	15949
915.358	15998
915.47	16124
915.583	16002
915.696	16017
915.809	16131
915.921	16105
916.034	15880
916.146	15846
916.259	15850
916.371	16006
916.483	15964
916.595	15762
916.708	15732
916.82	15823
916.932	15690
917.044	15785
917.156	15736
917.268	15705
917.38	15633
917.491	15724
917.603	15591
917.715	15694
917.826	15781
917.938	15488
918.049	15481
918.161	15561
918.272	15679
918.384	15679
918.495	15447
918.606	15386
918.717	15408
918.828	15386
918.939	15386
919.05	15237
919.161	15348
919.272	15165
919.383	15108
919.494	15389
919.604	15492
919.715	15321
919.826	15199
919.936	15374
920.047	15428
920.157	15306
920.267	15530
920.378	15363
920.488	15272
920.598	15477
920.708	15641
920.818	15458
920.928	15447
921.038	15526
921.148	15572
921.258	15283
921.368	15135
921.477	15013
921.587	15017
921.697	14975
921.806	14956
921.916	14750
922.025	14727
922.134	14644
922.244	14568
922.353	14765
922.462	14511
922.571	14476
922.68	14381
922.789	14389
922.898	14328
923.007	14282
923.116	14313
923.224	14218
923.333	14305
923.442	14100
923.55	14168
923.659	14149
923.767	14111
923.876	14180
923.984	14123
924.092	14065
924.201	14103
924.309	14016
924.417	13936
924.525	13963
924.633	13936
924.741	14762
924.849	13822
924.956	13856
925.064	13674
925.172	13719
925.279	13750
925.387	13628
925.494	13719
925.602	13822
925.709	13715
925.816	13537
925.924	13510
926.031	13696
926.138	13613
926.245	13582
926.352	13495
926.459	13731
926.566	13655
926.673	13476
926.779	13464
926.886	13327
926.993	13221
927.099	13228
927.206	13209
927.312	13084
927.419	13164
927.525	13293
927.631	13190
927.737	13179
927.843	13088
927.95	12993
928.056	13042
928.162	13027
928.267	13050
928.373	13666
928.479	13031
928.585	12837
928.69	12939
928.796	13091
928.901	12837
929.007	12757
929.112	12821
929.218	12814
929.323	12840
929.428	12749
929.533	12825
929.638	12700
929.743	12810
929.848	12711
929.953	12703
930.058	12486
930.163	12452
930.267	12334
930.372	12623
930.477	12467
930.581	12627
930.685	12521
930.79	12273
930.894	12330
930.998	12369
931.103	12262
931.207	12030
931.311	11931
931.415	11901
931.519	11627
931.623	11661
