Data from test_V78500241_1212.txt Node
Date: Fri Mar 25 15:50:11 CST 2022
User: usil
Spectrometer: V785-0024
Trigger mode: 0
Integration Time (sec): 4.000000E-1
Scans to average: 1
Nonlinearity correction enabled: false
Boxcar width: 0
Storing dark spectrum: false
XAxis mode: Wavelengths
Number of Pixels in Spectrum: 1024
>>>>>Begin Spectral Data<<<<<
801.071	28748
801.214	28645
801.356	28348
801.499	28459
801.641	28131
801.783	28405
801.926	28409
802.068	28265
802.211	28200
802.353	28261
802.496	28029
802.638	27934
802.78	27945
802.923	27945
803.065	28010
803.208	27953
803.35	27857
803.492	28051
803.635	28128
803.777	28116
803.919	28181
804.061	28489
804.204	28310
804.346	28181
804.488	28120
804.63	28253
804.773	28166
804.915	28211
805.057	28344
805.199	28177
805.341	28249
805.483	28314
805.626	28382
805.768	28295
805.91	28440
806.052	28379
806.194	28329
806.336	28554
806.478	28447
806.62	28360
806.762	28447
806.904	28577
807.046	28904
807.188	28911
807.33	28793
807.472	28828
807.614	28831
807.756	28782
807.898	28710
808.04	28630
808.182	28694
808.324	28733
808.465	28790
808.607	28843
808.749	29086
808.891	29200
809.033	29299
809.174	29277
809.316	29018
809.458	29044
809.6	29151
809.741	29242
809.883	29147
810.025	29372
810.166	29429
810.308	29429
810.45	29239
810.591	29261
810.733	29151
810.875	29151
811.016	29083
811.158	28946
811.299	29094
811.441	29345
811.582	29231
811.724	29170
811.865	29010
812.007	29022
812.148	29064
812.29	29117
812.431	29296
812.573	29322
812.714	29642
812.855	29752
812.997	29813
813.138	29847
813.279	29771
813.421	29604
813.562	29486
813.703	29383
813.845	29398
813.986	29083
814.127	29014
814.268	28778
814.41	28767
814.551	28774
814.692	28919
814.833	28809
814.974	28892
815.115	28782
815.256	28809
815.397	28656
815.539	28725
815.68	28740
815.821	28493
815.962	28626
816.103	28546
816.244	28337
816.385	28356
816.526	28440
816.666	28318
816.807	28082
816.948	28238
817.089	28211
817.23	28120
817.371	28070
817.512	28226
817.653	28082
817.793	28010
817.934	28090
818.075	28162
818.216	28147
818.356	28169
818.497	28032
818.638	27960
818.778	27846
818.919	27743
819.06	27857
819.2	28013
819.341	28078
819.481	28036
819.622	28226
819.762	28440
819.903	28329
820.043	28333
820.184	28204
820.324	28341
820.465	28341
820.605	28226
820.746	28265
820.886	28078
821.026	28211
821.167	28261
821.307	28291
821.447	28169
821.588	28128
821.728	27998
821.868	27743
822.008	27644
822.149	27610
822.289	27561
822.429	27279
822.569	27226
822.709	27272
822.849	27207
822.99	27135
823.13	26979
823.27	27226
823.41	26975
823.55	26785
823.69	26872
823.83	26979
823.97	26815
824.11	26617
824.25	26625
824.389	26667
824.529	26940
824.669	26716
824.809	26762
824.949	26918
825.089	26819
825.228	26796
825.368	26689
825.508	26579
825.648	26575
825.787	26686
825.927	26632
826.067	26530
826.206	26686
826.346	26602
826.485	26701
826.625	26552
826.765	26819
826.904	26800
827.044	26404
827.183	26473
827.323	26183
827.462	26370
827.601	26415
827.741	26393
827.88	26423
828.02	26214
828.159	26522
828.298	26446
828.437	26290
828.577	26317
828.716	26358
828.855	26282
828.994	26024
829.134	26008
829.273	26103
829.412	26035
829.551	26081
829.69	26107
829.829	26103
829.968	26073
830.107	26035
830.246	25871
830.385	25909
830.524	25887
830.663	25852
830.802	25772
830.941	25594
831.08	25674
831.219	25582
831.357	25628
831.496	25822
831.635	25727
831.774	25601
831.913	25559
832.051	25472
832.19	25388
832.329	25407
832.467	25449
832.606	25335
832.744	25289
832.883	25266
833.022	25225
833.16	25274
833.299	25331
833.437	25308
833.576	25495
833.714	25362
833.852	25441
833.991	25441
834.129	25521
834.267	25415
834.406	25358
834.544	25472
834.682	25316
834.821	25457
834.959	25529
835.097	25236
835.235	25274
835.373	25362
835.511	25350
835.65	25247
835.788	25247
835.926	25129
836.064	24992
836.202	24996
836.34	25129
836.478	25339
836.615	25209
836.753	25278
836.891	25259
837.029	25145
837.167	25190
837.305	25179
837.443	24981
837.58	25057
837.718	25171
837.856	25057
837.993	24924
838.131	25061
838.269	24977
838.406	24920
838.544	24863
838.681	24631
838.819	24661
838.956	24528
839.094	24566
839.231	24551
839.369	24563
839.506	24821
839.643	24833
839.781	24418
839.918	24308
840.055	24532
840.193	24498
840.33	24350
840.467	24502
840.604	24483
840.742	24745
840.879	24380
841.016	24372
841.153	24262
841.29	24513
841.427	24471
841.564	24475
841.701	24426
841.838	24346
841.975	24388
842.112	24315
842.249	24422
842.385	24190
842.522	24426
842.659	24190
842.796	24133
842.933	24213
843.069	24110
843.206	24038
843.343	24239
843.479	24136
843.616	24270
843.752	23878
843.889	23946
844.025	24140
844.162	23961
844.298	24011
844.435	23824
844.571	23847
844.708	23954
844.844	23980
844.98	24076
845.117	23882
845.253	23809
845.389	23767
845.525	23931
845.661	23813
845.798	23566
845.934	23771
846.07	23684
846.206	23741
846.342	23646
846.478	23752
846.614	23497
846.75	23356
846.886	23364
847.022	23547
847.158	23478
847.294	23459
847.429	23334
847.565	23398
847.701	23604
847.837	23022
847.972	23090
848.108	23269
848.244	23094
848.379	23033
848.515	22919
848.65	22946
848.786	23102
848.921	23083
849.057	23006
849.192	23064
849.328	22946
849.463	23022
849.598	22968
849.734	22866
849.869	22717
850.004	22752
850.14	22763
850.275	22721
850.41	22679
850.545	22687
850.68	22683
850.815	22653
850.95	22748
851.085	22919
851.22	22915
851.355	22774
851.49	22740
851.625	22660
851.76	22622
851.895	22672
852.03	22603
852.165	22580
852.299	22596
852.434	22812
852.569	22767
852.703	22740
852.838	22869
852.973	22740
853.107	22771
853.242	22622
853.376	22653
853.511	22523
853.645	22596
853.78	22615
853.914	22675
854.048	22459
854.183	22573
854.317	22542
854.451	22687
854.585	22512
854.72	22440
854.854	22615
854.988	22443
855.122	22565
855.256	22432
855.39	22554
855.524	22615
855.658	22630
855.792	22519
855.926	22466
856.06	22489
856.194	22615
856.327	22508
856.461	22493
856.595	22421
856.729	22626
856.862	22550
856.996	22592
857.13	22580
857.263	22592
857.397	22641
857.53	22557
857.664	22668
857.797	22569
857.931	22752
858.064	22538
858.197	22618
858.331	22493
858.464	22371
858.597	22344
858.731	22569
858.864	22462
858.997	22424
859.13	22493
859.263	22584
859.396	22615
859.529	22413
859.662	22546
859.795	22459
859.928	22550
860.061	22538
860.194	22554
860.327	22519
860.46	22489
860.592	22637
860.725	22679
860.858	22653
860.99	22500
861.123	22569
861.256	22504
861.388	22523
861.521	23292
861.653	22375
861.786	22234
861.918	22337
862.05	22443
862.183	22394
862.315	22478
862.447	22531
862.58	22466
862.712	22200
862.844	22238
862.976	22322
863.108	22226
863.24	22516
863.372	22238
863.504	22166
863.636	22242
863.768	22223
863.9	22219
864.032	22177
864.164	22337
864.296	22310
864.428	22386
864.559	22249
864.691	22177
864.823	22131
864.954	22177
865.086	22246
865.217	22219
865.349	22147
865.48	22055
865.612	22150
865.743	22249
865.875	22158
866.006	22025
866.137	22162
866.269	22169
866.4	22059
866.531	22131
866.662	21930
866.793	22013
866.924	22074
867.055	22086
867.186	22067
867.317	22002
867.448	22040
867.579	22036
867.71	21998
867.841	21937
867.972	22044
868.103	21949
868.233	21926
868.364	22013
868.495	22120
868.625	22215
868.756	22333
868.886	22185
869.017	22341
869.147	22337
869.278	22478
869.408	22402
869.539	22246
869.669	22333
869.799	22394
869.929	22329
870.06	22325
870.19	22550
870.32	22550
870.45	22599
870.58	22683
870.71	22736
870.84	22744
870.97	22618
871.1	22603
871.23	22755
871.36	22938
871.489	22763
871.619	22911
871.749	22854
871.879	22965
872.008	22968
872.138	22862
872.267	22904
872.397	22713
872.526	22630
872.656	22816
872.785	22778
872.915	22889
873.044	23018
873.173	22847
873.303	22889
873.432	22889
873.561	23014
873.69	22896
873.819	22930
873.948	22911
874.077	22824
874.206	22839
874.335	22911
874.464	23086
874.593	23102
874.722	23029
874.851	23143
874.979	23140
875.108	23208
875.237	23067
875.365	23041
875.494	23117
875.623	23140
875.751	23174
875.88	23109
876.008	23170
876.136	23181
876.265	23505
876.393	23554
876.521	23592
876.65	23634
876.778	23566
876.906	23326
877.034	23292
877.162	23478
877.29	23345
877.418	23554
877.546	23402
877.674	23379
877.802	23425
877.93	23337
878.058	23341
878.185	23379
878.313	23379
878.441	23478
878.568	23166
878.696	23516
878.824	23467
878.951	23433
879.079	23661
879.206	23786
879.333	23463
879.461	23497
879.588	23562
879.715	23657
879.842	23726
879.97	23570
880.097	23174
880.224	23299
880.351	23299
880.478	23159
880.605	23353
880.732	23235
880.859	23554
880.986	23242
881.112	23254
881.239	23041
881.366	22953
881.493	22927
881.619	22854
881.746	22809
881.872	22828
881.999	22786
882.125	22740
882.252	22790
882.378	22831
882.505	22820
882.631	22573
882.757	22596
882.883	22630
883.01	22440
883.136	22398
883.262	22470
883.388	22409
883.514	22440
883.64	22542
883.766	22557
883.892	22295
884.018	22116
884.143	22462
884.269	22531
884.395	22150
884.52	22070
884.646	22223
884.772	22112
884.897	22097
885.023	22192
885.148	22344
885.274	22261
885.399	22188
885.524	22169
885.65	22200
885.775	22215
885.9	22116
886.025	22150
886.15	22234
886.275	22044
886.4	21831
886.525	22097
886.65	22112
886.775	21934
886.9	22200
887.025	22379
887.149	22093
887.274	21850
887.399	21842
887.523	21827
887.648	21816
887.773	21751
887.897	21960
888.021	22040
888.146	21850
888.27	22082
888.395	21937
888.519	21972
888.643	21854
888.767	21755
888.891	21732
889.015	21606
889.139	21895
889.263	21781
889.387	21682
889.511	21857
889.635	21850
889.759	21698
889.883	21652
890.006	21660
890.13	21793
890.254	21599
890.377	21557
890.501	21481
890.624	21359
890.748	21386
890.871	21348
890.995	21340
891.118	21142
891.241	21230
891.364	21203
891.488	21382
891.611	21287
891.734	21340
891.857	21256
891.98	21252
892.103	21199
892.226	21138
892.349	21127
892.471	21066
892.594	21070
892.717	21138
892.839	21081
892.962	21104
893.085	21108
893.207	21062
893.33	21051
893.452	21013
893.575	21089
893.697	21024
893.819	21161
893.941	21340
894.064	21218
894.186	21039
894.308	20948
894.43	21211
894.552	21249
894.674	21161
894.796	20838
894.918	21100
895.04	21131
895.161	21203
895.283	21093
895.405	20914
895.526	21093
895.648	21096
895.769	21005
895.891	21116
896.012	21135
896.134	21131
896.255	21108
896.376	21066
896.498	21112
896.619	21180
896.74	21085
896.861	21127
896.982	21355
897.103	21504
897.224	21367
897.345	21355
897.466	21093
897.587	21195
897.708	21367
897.828	21294
897.949	21211
898.07	21028
898.19	21230
898.311	21443
898.431	21233
898.552	21226
898.672	21321
898.792	21123
898.913	21230
899.033	21173
899.153	21089
899.273	20948
899.393	20944
899.513	21020
899.633	21028
899.753	20967
899.873	21020
899.993	21036
900.113	20941
900.232	21055
900.352	20845
900.472	20876
900.591	20705
900.711	20864
900.83	20815
900.95	20773
901.069	20811
901.189	20598
901.308	20438
901.427	20370
901.546	20275
901.665	20366
901.784	20309
901.904	20206
902.023	20126
902.141	19917
902.26	19852
902.379	20107
902.498	19860
902.617	19765
902.735	19826
902.854	19849
902.973	19674
903.091	19502
903.21	19514
903.328	19548
903.446	19369
903.565	19312
903.683	19407
903.801	19194
903.919	19232
904.038	19282
904.156	19118
904.274	19084
904.392	19069
904.51	18966
904.627	18951
904.745	19194
904.863	19103
904.981	18905
905.098	18760
905.216	18696
905.334	18783
905.451	18677
905.569	18760
905.686	18833
905.803	18715
905.921	18513
906.038	18563
906.155	18521
906.272	18391
906.389	18418
906.506	18285
906.623	18262
906.74	18323
906.857	18114
906.974	18060
907.091	18232
907.208	18410
907.324	18270
907.441	18129
907.557	18053
907.674	17942
907.79	17939
907.907	17855
908.023	17912
908.139	17904
908.256	17843
908.372	17855
908.488	17779
908.604	17710
908.72	17604
908.836	17718
908.952	17551
909.068	17657
909.184	17653
909.3	17600
909.415	17619
909.531	17703
909.647	17467
909.762	17429
909.878	17379
909.993	17379
910.108	17410
910.224	17296
910.339	17376
910.454	17261
910.57	17242
910.685	17200
910.8	17273
910.915	17318
911.03	17231
911.145	16995
911.259	16961
911.374	16942
911.489	16866
911.604	16847
911.718	16668
911.833	16702
911.947	16599
912.062	16500
912.176	16793
912.291	16721
912.405	16675
912.519	16889
912.633	16763
912.748	16691
912.862	16656
912.976	16523
913.09	16481
913.204	16440
913.318	16474
913.431	16508
913.545	16550
913.659	16489
913.772	16489
913.886	16356
914	16181
914.113	16363
914.226	16386
914.34	16314
914.453	16177
914.566	16318
914.68	16143
914.793	16082
914.906	15915
915.019	15903
915.132	15816
915.245	15823
915.358	15827
915.47	15846
915.583	15895
915.696	15918
915.809	15911
915.921	15949
916.034	15865
916.146	15766
916.259	15797
916.371	15739
916.483	15789
916.595	15629
916.708	15732
916.82	15667
916.932	15595
917.044	15603
917.156	15576
917.268	15488
917.38	15416
917.491	15469
917.603	15561
917.715	15584
917.826	15587
917.938	15428
918.049	15367
918.161	15332
918.272	15587
918.384	15557
918.495	15424
918.606	15279
918.717	15268
918.828	15214
918.939	15199
919.05	15157
919.161	15237
919.272	14948
919.383	15100
919.494	15298
919.604	15412
919.715	15268
919.826	15093
919.936	15157
920.047	15336
920.157	15214
920.267	15382
920.378	15211
920.488	15150
920.598	15367
920.708	15466
920.818	15344
920.928	15218
921.038	15450
921.148	15332
921.258	15283
921.368	15055
921.477	14986
921.587	14853
921.697	14746
921.806	14883
921.916	14727
922.025	14613
922.134	14621
922.244	14495
922.353	14598
922.462	14434
922.571	14351
922.68	14263
922.789	14252
922.898	14210
923.007	14134
923.116	14206
923.224	14221
923.333	14202
923.442	13925
923.55	14039
923.659	14069
923.767	14046
923.876	13921
923.984	14012
924.092	13936
924.201	14001
924.309	13906
924.417	13864
924.525	13852
924.633	13837
924.741	14575
924.849	13594
924.956	13723
925.064	13582
925.172	13548
925.279	13613
925.387	13548
925.494	13609
925.602	13620
925.709	13643
925.816	13495
925.924	13476
926.031	13639
926.138	13480
926.245	13502
926.352	13373
926.459	13533
926.566	13552
926.673	13392
926.779	13343
926.886	13285
926.993	13122
927.099	13110
927.206	13080
927.312	13137
927.419	13057
927.525	13091
927.631	13076
927.737	13004
927.843	12932
927.95	12806
928.056	12844
928.162	12878
928.267	12943
928.373	13567
928.479	12909
928.585	12760
928.69	12852
928.796	12943
928.901	12749
929.007	12551
929.112	12745
929.218	12658
929.323	12620
929.428	12612
929.533	12730
929.638	12601
929.743	12608
929.848	12563
929.953	12525
930.058	12433
930.163	12232
930.267	12281
930.372	12445
930.477	12311
930.581	12452
930.685	12388
930.79	12159
930.894	12121
930.998	12125
931.103	12300
931.207	12003
931.311	11836
931.415	11722
931.519	11501
931.623	11486
