Data from test_V78500241_2002.txt Node
Date: Fri Mar 25 15:55:40 CST 2022
User: usil
Spectrometer: V785-0024
Trigger mode: 0
Integration Time (sec): 4.000000E-1
Scans to average: 1
Nonlinearity correction enabled: false
Boxcar width: 0
Storing dark spectrum: false
XAxis mode: Wavelengths
Number of Pixels in Spectrum: 1024
>>>>>Begin Spectral Data<<<<<
801.071	28721
801.214	28687
801.356	28436
801.499	28413
801.641	28223
801.783	28162
801.926	28287
802.068	28223
802.211	28230
802.353	28268
802.496	27949
802.638	27922
802.78	28017
802.923	27987
803.065	27937
803.208	27895
803.35	28013
803.492	28215
803.635	28200
803.777	28105
803.919	28253
804.061	28637
804.204	28398
804.346	28109
804.488	28036
804.63	28230
804.773	28158
804.915	28200
805.057	28265
805.199	28158
805.341	28204
805.483	28291
805.626	28432
805.768	28139
805.91	28363
806.052	28367
806.194	28421
806.336	28729
806.478	28440
806.62	28481
806.762	28455
806.904	28713
807.046	28755
807.188	28744
807.33	28736
807.472	28877
807.614	28729
807.756	28698
807.898	28736
808.04	28653
808.182	28668
808.324	28744
808.465	28561
808.607	28946
808.749	29033
808.891	29140
809.033	29178
809.174	29204
809.316	29079
809.458	29029
809.6	29136
809.741	29155
809.883	29292
810.025	29284
810.166	29406
810.308	29372
810.45	29433
810.591	29227
810.733	29022
810.875	28919
811.016	28923
811.158	28892
811.299	29155
811.441	29277
811.582	29246
811.724	29083
811.865	29094
812.007	29003
812.148	29041
812.29	29067
812.431	29151
812.573	29486
812.714	29448
812.855	29638
812.997	29680
813.138	29767
813.279	29699
813.421	29672
813.562	29547
813.703	29421
813.845	29322
813.986	29025
814.127	28892
814.268	28786
814.41	28755
814.551	28835
814.692	28847
814.833	28634
814.974	28835
815.115	28793
815.256	28580
815.397	28599
815.539	28554
815.68	28512
815.821	28500
815.962	28611
816.103	28622
816.244	28489
816.385	28276
816.526	28356
816.666	28093
816.807	28067
816.948	28147
817.089	28299
817.23	28010
817.371	28135
817.512	28112
817.653	28109
817.793	27892
817.934	27960
818.075	28067
818.216	28150
818.356	28070
818.497	27983
818.638	27698
818.778	27766
818.919	27785
819.06	27873
819.2	28029
819.341	28154
819.481	28109
819.622	28367
819.762	28341
819.903	28356
820.043	28386
820.184	28253
820.324	28070
820.465	28204
820.605	28200
820.746	28139
820.886	28010
821.026	28192
821.167	28112
821.307	28219
821.447	28124
821.588	27983
821.728	27865
821.868	27709
822.008	27576
822.149	27542
822.289	27561
822.429	27233
822.569	27180
822.709	27222
822.849	27108
822.99	27085
823.13	27005
823.27	27062
823.41	26918
823.55	26815
823.69	27032
823.83	26845
823.97	26845
824.11	26781
824.25	26682
824.389	26765
824.529	26743
824.669	26712
824.809	26834
824.949	26796
825.089	26925
825.228	26678
825.368	26518
825.508	26625
825.648	26826
825.787	26590
825.927	26739
826.067	26583
826.206	26590
826.346	26598
826.485	26621
826.625	26560
826.765	26632
826.904	26750
827.044	26492
827.183	26343
827.323	26377
827.462	26366
827.601	26389
827.741	26385
827.88	26298
828.02	26210
828.159	26176
828.298	26271
828.437	26324
828.577	26149
828.716	26233
828.855	26240
828.994	26138
829.134	26012
829.273	26126
829.412	25966
829.551	25936
829.69	26027
829.829	25963
829.968	26058
830.107	26005
830.246	26035
830.385	25906
830.524	25978
830.663	25845
830.802	25712
830.941	25685
831.08	25556
831.219	25670
831.357	25742
831.496	25814
831.635	25540
831.774	25464
831.913	25403
832.051	25285
832.19	25343
832.329	25430
832.467	25190
832.606	25293
832.744	25228
832.883	25217
833.022	25190
833.16	25297
833.299	25316
833.437	25274
833.576	25312
833.714	25244
833.852	25422
833.991	25301
834.129	25422
834.267	25362
834.406	25274
834.544	25403
834.682	25377
834.821	25369
834.959	25620
835.097	25285
835.235	25369
835.373	25236
835.511	25145
835.65	25148
835.788	25190
835.926	25053
836.064	24966
836.202	25038
836.34	25194
836.478	25270
836.615	25133
836.753	25126
836.891	25168
837.029	25126
837.167	25107
837.305	24992
837.443	24905
837.58	24966
837.718	25072
837.856	24977
837.993	24901
838.131	24943
838.269	24833
838.406	24859
838.544	24905
838.681	24616
838.819	24616
838.956	24395
839.094	24353
839.231	24490
839.369	24555
839.506	24787
839.643	24703
839.781	24521
839.918	24566
840.055	24372
840.193	24521
840.33	24395
840.467	24296
840.604	24448
840.742	24650
840.879	24319
841.016	24338
841.153	24232
841.29	24475
841.427	24277
841.564	24407
841.701	24330
841.838	24414
841.975	24243
842.112	24357
842.249	24091
842.385	24110
842.522	24327
842.659	24216
842.796	24110
842.933	24133
843.069	24079
843.206	24003
843.343	24034
843.479	24129
843.616	24186
843.752	23908
843.889	23973
844.025	23931
844.162	23824
844.298	23939
844.435	23779
844.571	23897
844.708	23920
844.844	24038
844.98	23912
845.117	23893
845.253	23760
845.389	23691
845.525	23794
845.661	23714
845.798	23585
845.934	23737
846.07	23634
846.206	23581
846.342	23802
846.478	23505
846.614	23410
846.75	23151
846.886	23296
847.022	23345
847.158	23284
847.294	23280
847.429	23368
847.565	23315
847.701	23573
847.837	23113
847.972	22980
848.108	23239
848.244	23109
848.379	22968
848.515	22911
848.65	22793
848.786	22930
848.921	22908
849.057	22866
849.192	22904
849.328	22972
849.463	22896
849.598	22915
849.734	22869
849.869	22672
850.004	22763
850.14	22634
850.275	22653
850.41	22565
850.545	22687
850.68	22531
850.815	22691
850.95	22634
851.085	22854
851.22	22755
851.355	22774
851.49	22672
851.625	22554
851.76	22679
851.895	22675
852.03	22516
852.165	22596
852.299	22797
852.434	22847
852.569	22641
852.703	22584
852.838	22801
852.973	22885
853.107	22831
853.242	22535
853.376	22573
853.511	22432
853.645	22485
853.78	22653
853.914	22436
854.048	22577
854.183	22375
854.317	22561
854.451	22672
854.585	22504
854.72	22436
854.854	22565
854.988	22451
855.122	22554
855.256	22405
855.39	22394
855.524	22588
855.658	22512
855.792	22443
855.926	22459
856.06	22672
856.194	22622
856.327	22508
856.461	22386
856.595	22459
856.729	22398
856.862	22588
856.996	22527
857.13	22573
857.263	22713
857.397	22599
857.53	22394
857.664	22664
857.797	22519
857.931	22588
858.064	22569
858.197	22618
858.331	22519
858.464	22341
858.597	22375
858.731	22504
858.864	22424
858.997	22512
859.13	22535
859.263	22523
859.396	22569
859.529	22561
859.662	22497
859.795	22504
859.928	22394
860.061	22580
860.194	22786
860.327	22615
860.46	22470
860.592	22721
860.725	22694
860.858	22713
860.99	22615
861.123	22375
861.256	22363
861.388	22516
861.521	23284
861.653	22421
861.786	22242
861.918	22409
862.05	22318
862.183	22341
862.315	22375
862.447	22584
862.58	22447
862.712	22192
862.844	22284
862.976	22295
863.108	22413
863.24	22717
863.372	22154
863.504	22139
863.636	22341
863.768	22219
863.9	22116
864.032	22154
864.164	22173
864.296	22230
864.428	22249
864.559	22352
864.691	22223
864.823	22295
864.954	22181
865.086	22276
865.217	22116
865.349	21964
865.48	22109
865.612	22124
865.743	22143
865.875	22181
866.006	22067
866.137	22166
866.269	22036
866.4	22025
866.531	22120
866.662	22070
866.793	21994
866.924	22086
867.055	22120
867.186	22105
867.317	22017
867.448	21857
867.579	22017
867.71	21934
867.841	21903
867.972	21968
868.103	21945
868.233	21956
868.364	22067
868.495	22169
868.625	22261
868.756	22436
868.886	22162
869.017	22207
869.147	22413
869.278	22402
869.408	22318
869.539	22215
869.669	22341
869.799	22413
869.929	22249
870.06	22314
870.19	22561
870.32	22554
870.45	22656
870.58	22630
870.71	22812
870.84	22740
870.97	22748
871.1	22592
871.23	22790
871.36	22797
871.489	22771
871.619	22793
871.749	22949
871.879	22873
872.008	22980
872.138	22866
872.267	22938
872.397	22691
872.526	22596
872.656	22675
872.785	22664
872.915	22816
873.044	22934
873.173	22877
873.303	22892
873.432	22949
873.561	22885
873.69	22885
873.819	22873
873.948	22919
874.077	22942
874.206	22790
874.335	22873
874.464	22957
874.593	23121
874.722	23117
874.851	23132
874.979	22965
875.108	23113
875.237	22961
875.365	22930
875.494	23067
875.623	23006
875.751	23113
875.88	23064
876.008	23136
876.136	23265
876.265	23307
876.393	23619
876.521	23448
876.65	23539
876.778	23486
876.906	23543
877.034	23307
877.162	23444
877.29	23356
877.418	23448
877.546	23467
877.674	23455
877.802	23493
877.93	23444
878.058	23315
878.185	23376
878.313	23410
878.441	23551
878.568	23246
878.696	23341
878.824	23482
878.951	23505
879.079	23474
879.206	23714
879.333	23512
879.461	23592
879.588	23596
879.715	23661
879.842	23665
879.97	23482
880.097	23235
880.224	23296
880.351	23315
880.478	23261
880.605	23212
880.732	23387
880.859	23448
880.986	23284
881.112	23303
881.239	23140
881.366	22923
881.493	22805
881.619	22786
881.746	22786
881.872	22740
881.999	22805
882.125	22733
882.252	22908
882.378	22831
882.505	22839
882.631	22618
882.757	22573
882.883	22531
883.01	22554
883.136	22516
883.262	22306
883.388	22363
883.514	22500
883.64	22474
883.766	22421
883.892	22226
884.018	22348
884.143	22394
884.269	22481
884.395	22215
884.52	22040
884.646	22143
884.772	22105
884.897	21941
885.023	22048
885.148	22166
885.274	22310
885.399	22173
885.524	22116
885.65	22112
885.775	22150
885.9	22135
886.025	22128
886.15	22276
886.275	22063
886.4	22025
886.525	22078
886.65	22010
886.775	21941
886.9	22246
887.025	22337
887.149	22173
887.274	21979
887.399	21945
887.523	21785
887.648	21854
887.773	21713
887.897	21960
888.021	21759
888.146	21880
888.27	22070
888.395	21960
888.519	21922
888.643	21911
888.767	22040
888.891	21800
889.015	21724
889.139	21743
889.263	21701
889.387	21739
889.511	21945
889.635	21778
889.759	21652
889.883	21591
890.006	21682
890.13	21762
890.254	21568
890.377	21690
890.501	21469
890.624	21355
890.748	21389
890.871	21310
890.995	21203
891.118	21157
891.241	21192
891.364	21195
891.488	21431
891.611	21256
891.734	21116
891.857	21298
891.98	21233
892.103	21332
892.226	21245
892.349	21146
892.471	21028
892.594	21055
892.717	21142
892.839	21150
892.962	21096
893.085	21245
893.207	21066
893.33	21070
893.452	20994
893.575	20986
893.697	21058
893.819	21233
893.941	21302
894.064	21131
894.186	20933
894.308	21013
894.43	21222
894.552	21188
894.674	21157
894.796	20944
894.918	21043
895.04	20956
895.161	21214
895.283	21237
895.405	21043
895.526	21112
895.648	21032
895.769	21142
895.891	21112
896.012	21199
896.134	21051
896.255	21077
896.376	20986
896.498	21089
896.619	21081
896.74	21051
896.861	21176
896.982	21355
897.103	21538
897.224	21252
897.345	21302
897.466	21279
897.587	21321
897.708	21378
897.828	21272
897.949	21154
898.07	21077
898.19	21291
898.311	21283
898.431	21256
898.552	21260
898.672	21466
898.792	21321
898.913	21256
899.033	21165
899.153	21252
899.273	21036
899.393	21051
899.513	21123
899.633	21112
899.753	20998
899.873	21093
899.993	20914
900.113	20883
900.232	20914
900.352	20941
900.472	20868
900.591	20769
900.711	20750
900.83	20834
900.95	20861
901.069	20830
901.189	20659
901.308	20377
901.427	20381
901.546	20389
901.665	20324
901.784	20347
901.904	20218
902.023	20111
902.141	19811
902.26	19849
902.379	19906
902.498	19803
902.617	19784
902.735	19852
902.854	19826
902.973	19738
903.091	19434
903.21	19510
903.328	19563
903.446	19472
903.565	19377
903.683	19362
903.801	19183
903.919	19187
904.038	19255
904.156	19187
904.274	19141
904.392	18985
904.51	19046
904.627	19023
904.745	19042
904.863	19129
904.981	18871
905.098	18817
905.216	18837
905.334	18795
905.451	18726
905.569	18700
905.686	18810
905.803	18711
905.921	18555
906.038	18650
906.155	18658
906.272	18467
906.389	18525
906.506	18315
906.623	18247
906.74	18129
906.857	18194
906.974	18197
907.091	18224
907.208	18311
907.324	18239
907.441	18174
907.557	17980
907.674	17893
907.79	17824
907.907	17821
908.023	18007
908.139	17996
908.256	17843
908.372	17817
908.488	17847
908.604	17710
908.72	17668
908.836	17718
908.952	17585
909.068	17653
909.184	17851
909.3	17623
909.415	17714
909.531	17729
909.647	17376
909.762	17398
909.878	17330
909.993	17353
910.108	17284
910.224	17288
910.339	17345
910.454	17349
910.57	17155
910.685	17102
910.8	17280
910.915	17258
911.03	17193
911.145	17060
911.259	16968
911.374	16987
911.489	16915
911.604	16843
911.718	16713
911.833	16725
911.947	16516
912.062	16470
912.176	16710
912.291	16679
912.405	16748
912.519	16816
912.633	16911
912.748	16721
912.862	16725
912.976	16512
913.09	16390
913.204	16485
913.318	16443
913.431	16599
913.545	16660
913.659	16519
913.772	16447
913.886	16314
914	16299
914.113	16375
914.226	16329
914.34	16348
914.453	16192
914.566	16344
914.68	16173
914.793	16143
914.906	15930
915.019	15781
915.132	15800
915.245	15823
915.358	15804
915.47	15759
915.583	15869
915.696	15956
915.809	15949
915.921	15975
916.034	15861
916.146	15831
916.259	15785
916.371	15869
916.483	15778
916.595	15603
916.708	15660
916.82	15660
916.932	15610
917.044	15675
917.156	15576
917.268	15469
917.38	15614
917.491	15526
917.603	15458
917.715	15610
917.826	15519
917.938	15382
918.049	15363
918.161	15492
918.272	15526
918.384	15542
918.495	15378
918.606	15249
918.717	15146
918.828	15283
918.939	15241
919.05	15100
919.161	15211
919.272	15017
919.383	15161
919.494	15241
919.604	15462
919.715	15237
919.826	15093
919.936	15237
920.047	15268
920.157	15169
920.267	15298
920.378	15192
920.488	15169
920.598	15374
920.708	15424
920.818	15401
920.928	15310
921.038	15443
921.148	15382
921.258	15150
921.368	14979
921.477	14952
921.587	14948
921.697	15001
921.806	14914
921.916	14701
922.025	14648
922.134	14575
922.244	14545
922.353	14606
922.462	14461
922.571	14377
922.68	14252
922.789	14126
922.898	14248
923.007	14092
923.116	14263
923.224	14221
923.333	14180
923.442	14111
923.55	14024
923.659	14005
923.767	14065
923.876	13932
923.984	14050
924.092	13852
924.201	13887
924.309	13947
924.417	13959
924.525	13864
924.633	13890
924.741	14632
924.849	13704
924.956	13898
925.064	13658
925.172	13521
925.279	13582
925.387	13571
925.494	13586
925.602	13677
925.709	13636
925.816	13518
925.924	13514
926.031	13674
926.138	13453
926.245	13537
926.352	13400
926.459	13586
926.566	13552
926.673	13419
926.779	13312
926.886	13335
926.993	13156
927.099	13129
927.206	13137
927.312	13110
927.419	13217
927.525	13122
927.631	13156
927.737	13046
927.843	12973
927.95	12939
928.056	12989
928.162	12909
928.267	12993
928.373	13597
928.479	13023
928.585	12760
928.69	12939
928.796	12932
928.901	12772
929.007	12662
929.112	12764
929.218	12821
929.323	12673
929.428	12654
929.533	12791
929.638	12525
929.743	12566
929.848	12658
929.953	12642
930.058	12475
930.163	12315
930.267	12327
930.372	12460
930.477	12296
930.581	12559
930.685	12376
930.79	12224
930.894	12270
930.998	12239
931.103	12296
931.207	11958
931.311	11935
931.415	11665
931.519	11604
931.623	11585
