Data from test_V78500241_2413.txt Node
Date: Fri Mar 25 15:58:30 CST 2022
User: usil
Spectrometer: V785-0024
Trigger mode: 0
Integration Time (sec): 4.000000E-1
Scans to average: 1
Nonlinearity correction enabled: false
Boxcar width: 0
Storing dark spectrum: false
XAxis mode: Wavelengths
Number of Pixels in Spectrum: 1024
>>>>>Begin Spectral Data<<<<<
801.071	28508
801.214	28386
801.356	28348
801.499	28234
801.641	28150
801.783	28109
801.926	28169
802.068	28086
802.211	28021
802.353	27991
802.496	27648
802.638	27846
802.78	27838
802.923	27667
803.065	27682
803.208	27682
803.35	27903
803.492	27972
803.635	27873
803.777	27880
803.919	28090
804.061	28424
804.204	28131
804.346	27911
804.488	28040
804.63	27998
804.773	27926
804.915	28059
805.057	28143
805.199	28032
805.341	28120
805.483	28040
805.626	28097
805.768	28006
805.91	28249
806.052	28287
806.194	28192
806.336	28337
806.478	28025
806.62	28200
806.762	28280
806.904	28542
807.046	28656
807.188	28694
807.33	28554
807.472	28744
807.614	28588
807.756	28599
807.898	28462
808.04	28504
808.182	28314
808.324	28398
808.465	28470
808.607	28592
808.749	28835
808.891	28972
809.033	28991
809.174	28938
809.316	28976
809.458	28786
809.6	28847
809.741	28858
809.883	29014
810.025	29048
810.166	29056
810.308	29197
810.45	29094
810.591	29075
810.733	28850
810.875	28847
811.016	28763
811.158	28683
811.299	29022
811.441	29197
811.582	29090
811.724	28828
811.865	28809
812.007	28805
812.148	28904
812.29	28820
812.431	29048
812.573	29197
812.714	29269
812.855	29326
812.997	29448
813.138	29539
813.279	29391
813.421	29474
813.562	29303
813.703	29208
813.845	29056
813.986	28828
814.127	28653
814.268	28611
814.41	28561
814.551	28478
814.692	28664
814.833	28561
814.974	28478
815.115	28569
815.256	28337
815.397	28527
815.539	28341
815.68	28318
815.821	28299
815.962	28440
816.103	28303
816.244	28341
816.385	28265
816.526	28128
816.666	27972
816.807	27854
816.948	28002
817.089	27922
817.23	27934
817.371	27956
817.512	27979
817.653	27907
817.793	27747
817.934	27819
818.075	27827
818.216	27907
818.356	27880
818.497	27709
818.638	27644
818.778	27583
818.919	27736
819.06	27743
819.2	27766
819.341	27895
819.481	27850
819.622	27956
819.762	28124
819.903	28105
820.043	28074
820.184	28135
820.324	28040
820.465	27865
820.605	28051
820.746	27960
820.886	27846
821.026	28021
821.167	27926
821.307	28002
821.447	27983
821.588	27774
821.728	27576
821.868	27466
822.008	27504
822.149	27260
822.289	27416
822.429	27169
822.569	26971
822.709	27074
822.849	26895
822.99	26952
823.13	26826
823.27	26842
823.41	26667
823.55	26594
823.69	26788
823.83	26708
823.97	26655
824.11	26469
824.25	26446
824.389	26453
824.529	26590
824.669	26480
824.809	26575
824.949	26674
825.089	26644
825.228	26579
825.368	26355
825.508	26377
825.648	26324
825.787	26336
825.927	26442
826.067	26446
826.206	26324
826.346	26377
826.485	26385
826.625	26355
826.765	26583
826.904	26408
827.044	26077
827.183	26111
827.323	26012
827.462	26142
827.601	26122
827.741	26069
827.88	26191
828.02	25913
828.159	25959
828.298	26180
828.437	26145
828.577	25902
828.716	26240
828.855	25982
828.994	25795
829.134	25712
829.273	25875
829.412	25685
829.551	25807
829.69	25765
829.829	25753
829.968	25826
830.107	25772
830.246	25791
830.385	25719
830.524	25719
830.663	25582
830.802	25540
830.941	25377
831.08	25434
831.219	25483
831.357	25381
831.496	25609
831.635	25335
831.774	25358
831.913	25289
832.051	25209
832.19	25141
832.329	25156
832.467	24970
832.606	25031
832.744	25050
832.883	25072
833.022	25046
833.16	25053
833.299	25156
833.437	25042
833.576	25194
833.714	25240
833.852	25293
833.991	25168
834.129	25266
834.267	25221
834.406	25145
834.544	25080
834.682	25221
834.821	25080
834.959	25228
835.097	25107
835.235	25152
835.373	25088
835.511	25015
835.65	25088
835.788	24905
835.926	24856
836.064	24779
836.202	24909
836.34	24894
836.478	25160
836.615	25095
836.753	24764
836.891	25069
837.029	24962
837.167	24848
837.305	24753
837.443	24878
837.58	24817
837.718	24962
837.856	24973
837.993	24726
838.131	24776
838.269	24738
838.406	24654
838.544	24608
838.681	24426
838.819	24391
838.956	24228
839.094	24251
839.231	24338
839.369	24448
839.506	24509
839.643	24372
839.781	24285
839.918	24330
840.055	24197
840.193	24262
840.33	23927
840.467	24159
840.604	24121
840.742	24361
840.879	23984
841.016	23977
841.153	24011
841.29	24228
841.427	24102
841.564	24308
841.701	24117
841.838	23923
841.975	24049
842.112	24064
842.249	24030
842.385	23961
842.522	24091
842.659	23965
842.796	23832
842.933	23851
843.069	23889
843.206	23897
843.343	23897
843.479	23992
843.616	23843
843.752	23672
843.889	23646
844.025	23828
844.162	23634
844.298	23649
844.435	23634
844.571	23726
844.708	23767
844.844	23859
844.98	23821
845.117	23840
845.253	23733
845.389	23547
845.525	23474
845.661	23463
845.798	23497
845.934	23524
846.07	23288
846.206	23368
846.342	23528
846.478	23391
846.614	23315
846.75	22980
846.886	23143
847.022	23181
847.158	23064
847.294	23159
847.429	23204
847.565	23189
847.701	23311
847.837	22968
847.972	22919
848.108	22854
848.244	22911
848.379	22957
848.515	22717
848.65	22725
848.786	22653
848.921	22835
849.057	22862
849.192	22828
849.328	22740
849.463	22805
849.598	22641
849.734	22584
849.869	22611
850.004	22428
850.14	22588
850.275	22508
850.41	22428
850.545	22523
850.68	22504
850.815	22436
850.95	22466
851.085	22622
851.22	22557
851.355	22504
851.49	22519
851.625	22432
851.76	22504
851.895	22512
852.03	22443
852.165	22531
852.299	22557
852.434	22584
852.569	22569
852.703	22584
852.838	22542
852.973	22596
853.107	22428
853.242	22398
853.376	22379
853.511	22204
853.645	22284
853.78	22402
853.914	22344
854.048	22409
854.183	22215
854.317	22424
854.451	22523
854.585	22337
854.72	22322
854.854	22451
854.988	22253
855.122	22261
855.256	22215
855.39	22299
855.524	22367
855.658	22481
855.792	22280
855.926	22265
856.06	22398
856.194	22280
856.327	22257
856.461	22177
856.595	22257
856.729	22303
856.862	22371
856.996	22257
857.13	22341
857.263	22443
857.397	22333
857.53	22238
857.664	22478
857.797	22398
857.931	22508
858.064	22318
858.197	22287
858.331	22223
858.464	22303
858.597	22234
858.731	22299
858.864	22272
858.997	22166
859.13	22306
859.263	22299
859.396	22337
859.529	22352
859.662	22246
859.795	22230
859.928	22188
860.061	22417
860.194	22550
860.327	22299
860.46	22352
860.592	22462
860.725	22489
860.858	22413
860.99	22219
861.123	22188
861.256	22249
861.388	22356
861.521	22953
861.653	22265
861.786	22128
861.918	22204
862.05	22044
862.183	22196
862.315	22173
862.447	22318
862.58	22284
862.712	22067
862.844	21998
862.976	22048
863.108	22215
863.24	22531
863.372	21953
863.504	21949
863.636	21998
863.768	22139
863.9	22166
864.032	22006
864.164	21960
864.296	22086
864.428	22067
864.559	22082
864.691	22162
864.823	21979
864.954	22021
865.086	21907
865.217	21956
865.349	21778
865.48	21850
865.612	21911
865.743	22010
865.875	21865
866.006	21918
866.137	21857
866.269	21823
866.4	22013
866.531	21751
866.662	21831
866.793	21884
866.924	21732
867.055	21842
867.186	21774
867.317	21800
867.448	21736
867.579	21850
867.71	21717
867.841	21793
867.972	21717
868.103	21873
868.233	21736
868.364	21884
868.495	21903
868.625	22029
868.756	22295
868.886	21953
869.017	22093
869.147	22166
869.278	22219
869.408	22105
869.539	22021
869.669	22272
869.799	22109
869.929	22109
870.06	22219
870.19	22367
870.32	22417
870.45	22417
870.58	22493
870.71	22493
870.84	22421
870.97	22379
871.1	22493
871.23	22592
871.36	22599
871.489	22599
871.619	22607
871.749	22653
871.879	22706
872.008	22797
872.138	22584
872.267	22691
872.397	22504
872.526	22546
872.656	22500
872.785	22497
872.915	22725
873.044	22660
873.173	22637
873.303	22717
873.432	22706
873.561	22889
873.69	22641
873.819	22733
873.948	22710
874.077	22656
874.206	22561
874.335	22706
874.464	22801
874.593	22885
874.722	22892
874.851	22980
874.979	22858
875.108	22927
875.237	22858
875.365	22889
875.494	22869
875.623	22953
875.751	22881
875.88	22927
876.008	23056
876.136	23083
876.265	23318
876.393	23410
876.521	23326
876.65	23410
876.778	23277
876.906	23353
877.034	23174
877.162	23261
877.29	23288
877.418	23239
877.546	23174
877.674	23109
877.802	23227
877.93	23326
878.058	23353
878.185	23117
878.313	23204
878.441	23022
878.568	23041
878.696	23345
878.824	23280
878.951	23296
879.079	23372
879.206	23581
879.333	23452
879.461	23284
879.588	23318
879.715	23387
879.842	23433
879.97	23353
880.097	23132
880.224	23006
880.351	23151
880.478	23204
880.605	23147
880.732	23174
880.859	23315
880.986	23166
881.112	23117
881.239	22889
881.366	22896
881.493	22790
881.619	22706
881.746	22668
881.872	22596
881.999	22630
882.125	22470
882.252	22588
882.378	22641
882.505	22702
882.631	22580
882.757	22443
882.883	22470
883.01	22440
883.136	22268
883.262	22306
883.388	22234
883.514	22306
883.64	22329
883.766	22211
883.892	21979
884.018	22242
884.143	22223
884.269	22325
884.395	22032
884.52	21945
884.646	21907
884.772	21869
884.897	21854
885.023	21911
885.148	22063
885.274	22154
885.399	22150
885.524	21819
885.65	22017
885.775	22059
885.9	21934
886.025	21987
886.15	22059
886.275	21975
886.4	21964
886.525	22029
886.65	21880
886.775	21789
886.9	22013
887.025	22166
887.149	21926
887.274	21724
887.399	21728
887.523	21770
887.648	21698
887.773	21648
887.897	21808
888.021	21724
888.146	21614
888.27	21892
888.395	21850
888.519	21709
888.643	21751
888.767	21663
888.891	21526
889.015	21511
889.139	21530
889.263	21515
889.387	21599
889.511	21671
889.635	21622
889.759	21504
889.883	21538
890.006	21538
890.13	21542
890.254	21523
890.377	21511
890.501	21294
890.624	21226
890.748	21344
890.871	21157
890.995	20979
891.118	20994
891.241	20956
891.364	21036
891.488	21275
891.611	21051
891.734	21138
891.857	21066
891.98	21173
892.103	21157
892.226	21036
892.349	21119
892.471	20864
892.594	20845
892.717	20944
892.839	20990
892.962	20967
893.085	21081
893.207	20971
893.33	20792
893.452	20891
893.575	21039
893.697	21001
893.819	21017
893.941	21093
894.064	21058
894.186	20929
894.308	20925
894.43	21074
894.552	21077
894.674	21005
894.796	20712
894.918	20902
895.04	20887
895.161	21066
895.283	21036
895.405	20785
895.526	20849
895.648	20895
895.769	21032
895.891	20872
896.012	21039
896.134	20864
896.255	21020
896.376	20986
896.498	20914
896.619	20975
896.74	20845
896.861	20929
896.982	21355
897.103	21351
897.224	21169
897.345	21123
897.466	20986
897.587	21138
897.708	21199
897.828	21108
897.949	21157
898.07	20899
898.19	21028
898.311	21135
898.431	21127
898.552	21070
898.672	21294
898.792	21199
898.913	21218
899.033	21131
899.153	20891
899.273	20788
899.393	20872
899.513	20906
899.633	20929
899.753	20849
899.873	20834
899.993	20826
900.113	20895
900.232	20796
900.352	20792
900.472	20705
900.591	20655
900.711	20670
900.83	20617
900.95	20743
901.069	20758
901.189	20530
901.308	20332
901.427	20172
901.546	20301
901.665	20374
901.784	20233
901.904	20161
902.023	19993
902.141	19974
902.26	19727
902.379	19849
902.498	19761
902.617	19772
902.735	19799
902.854	19871
902.973	19575
903.091	19441
903.21	19411
903.328	19468
903.446	19228
903.565	19145
903.683	19190
903.801	19118
903.919	19175
904.038	19084
904.156	19050
904.274	19069
904.392	18943
904.51	18852
904.627	18935
904.745	18966
904.863	19129
904.981	18639
905.098	18684
905.216	18684
905.334	18601
905.451	18684
905.569	18593
905.686	18570
905.803	18623
905.921	18426
906.038	18486
906.155	18380
906.272	18357
906.389	18300
906.506	18117
906.623	18178
906.74	18110
906.857	18003
906.974	18076
907.091	18174
907.208	18308
907.324	18125
907.441	17920
907.557	17927
907.674	17920
907.79	17885
907.907	17786
908.023	17931
908.139	17828
908.256	17851
908.372	17714
908.488	17798
908.604	17581
908.72	17524
908.836	17520
908.952	17543
909.068	17627
909.184	17646
909.3	17581
909.415	17497
909.531	17528
909.647	17402
909.762	17174
909.878	17132
909.993	17189
910.108	17204
910.224	17098
910.339	17185
910.454	17178
910.57	17060
910.685	17048
910.8	17265
910.915	17220
911.03	17136
911.145	16881
911.259	16801
911.374	16873
911.489	16812
911.604	16683
911.718	16596
911.833	16653
911.947	16455
912.062	16398
912.176	16622
912.291	16535
912.405	16493
912.519	16828
912.633	16721
912.748	16668
912.862	16554
912.976	16443
913.09	16219
913.204	16417
913.318	16325
913.431	16432
913.545	16402
913.659	16596
913.772	16234
913.886	16265
914	16272
914.113	16158
914.226	16299
914.34	16150
914.453	16074
914.566	16303
914.68	16124
914.793	15979
914.906	15880
915.019	15789
915.132	15831
915.245	15831
915.358	15747
915.47	15747
915.583	15751
915.696	15861
915.809	15876
915.921	15838
916.034	15724
916.146	15610
916.259	15652
916.371	15739
916.483	15644
916.595	15534
916.708	15641
916.82	15663
916.932	15488
917.044	15557
917.156	15466
917.268	15511
917.38	15412
917.491	15344
917.603	15386
917.715	15393
917.826	15473
917.938	15393
918.049	15275
918.161	15431
918.272	15450
918.384	15382
918.495	15321
918.606	15233
918.717	15150
918.828	15135
918.939	15161
919.05	15039
919.161	15135
919.272	14967
919.383	14952
919.494	15116
919.604	15420
919.715	15184
919.826	15039
919.936	15157
920.047	15169
920.157	15116
920.267	15260
920.378	15047
920.488	15161
920.598	15359
920.708	15382
920.818	15214
920.928	15260
921.038	15443
921.148	15313
921.258	15009
921.368	15047
921.477	14804
921.587	14758
921.697	14697
921.806	14876
921.916	14648
922.025	14560
922.134	14469
922.244	14415
922.353	14575
922.462	14317
922.571	14164
922.68	14164
922.789	14115
922.898	14088
923.007	14065
923.116	14073
923.224	14062
923.333	14050
923.442	13944
923.55	13883
923.659	13868
923.767	13947
923.876	13849
923.984	13890
924.092	13849
924.201	13830
924.309	13784
924.417	13807
924.525	13700
924.633	13750
924.741	14537
924.849	13590
924.956	13681
925.064	13468
925.172	13392
925.279	13544
925.387	13441
925.494	13514
925.602	13548
925.709	13449
925.816	13289
925.924	13483
926.031	13556
926.138	13392
926.245	13381
926.352	13358
926.459	13426
926.566	13392
926.673	13278
926.779	13304
926.886	13335
926.993	13095
927.099	12985
927.206	13042
927.312	12951
927.419	13034
927.525	13046
927.631	12993
927.737	12890
927.843	12886
927.95	12779
928.056	12802
928.162	12905
928.267	12981
928.373	13460
928.479	12897
928.585	12665
928.69	12810
928.796	12696
928.901	12669
929.007	12490
929.112	12719
929.218	12635
929.323	12547
929.428	12547
929.533	12707
929.638	12509
929.743	12540
929.848	12509
929.953	12464
930.058	12361
930.163	12163
930.267	12350
930.372	12311
930.477	12194
930.581	12464
930.685	12292
930.79	12057
930.894	12140
930.998	12026
931.103	12209
931.207	11874
931.311	11767
931.415	11741
931.519	11421
931.623	11433
