Data from test_V78500241_2506.txt Node
Date: Fri Mar 25 15:59:09 CST 2022
User: usil
Spectrometer: V785-0024
Trigger mode: 0
Integration Time (sec): 4.000000E-1
Scans to average: 1
Nonlinearity correction enabled: false
Boxcar width: 0
Storing dark spectrum: false
XAxis mode: Wavelengths
Number of Pixels in Spectrum: 1024
>>>>>Begin Spectral Data<<<<<
801.071	28531
801.214	28538
801.356	28333
801.499	28284
801.641	28131
801.783	28128
801.926	28196
802.068	28211
802.211	27949
802.353	28002
802.496	27873
802.638	27854
802.78	27873
802.923	27857
803.065	27774
803.208	27838
803.35	27793
803.492	28112
803.635	28040
803.777	27956
803.919	28051
804.061	28481
804.204	28036
804.346	28040
804.488	27918
804.63	28025
804.773	28017
804.915	28093
805.057	28150
805.199	27964
805.341	28128
805.483	28204
805.626	28276
805.768	28234
805.91	28287
806.052	28246
806.194	28097
806.336	28409
806.478	28177
806.62	28204
806.762	28375
806.904	28436
807.046	28896
807.188	28790
807.33	28710
807.472	28805
807.614	28725
807.756	28664
807.898	28618
808.04	28546
808.182	28462
808.324	28497
808.465	28733
808.607	28831
808.749	28866
808.891	29044
809.033	29014
809.174	29056
809.316	28835
809.458	28965
809.6	28976
809.741	28972
809.883	29170
810.025	29368
810.166	29261
810.308	29071
810.45	29170
810.591	29151
810.733	28949
810.875	28900
811.016	28877
811.158	28987
811.299	28984
811.441	29041
811.582	29033
811.724	28949
811.865	28858
812.007	28919
812.148	28968
812.29	28888
812.431	29052
812.573	29200
812.714	29265
812.855	29414
812.997	29528
813.138	29604
813.279	29501
813.421	29455
813.562	29379
813.703	29269
813.845	29246
813.986	28961
814.127	28847
814.268	28607
814.41	28782
814.551	28672
814.692	28626
814.833	28653
814.974	28542
815.115	28710
815.256	28390
815.397	28584
815.539	28546
815.68	28413
815.821	28459
815.962	28462
816.103	28500
816.244	28363
816.385	28188
816.526	28185
816.666	27994
816.807	27835
816.948	27998
817.089	28025
817.23	27987
817.371	27892
817.512	27911
817.653	27926
817.793	27930
817.934	27907
818.075	28059
818.216	27869
818.356	27785
818.497	27823
818.638	27675
818.778	27743
818.919	27720
819.06	27736
819.2	27914
819.341	27789
819.481	27854
819.622	28166
819.762	28234
819.903	28166
820.043	27987
820.184	28032
820.324	28238
820.465	28177
820.605	27975
820.746	28051
820.886	27975
821.026	28192
821.167	27983
821.307	28181
821.447	27937
821.588	27884
821.728	27713
821.868	27557
822.008	27439
822.149	27473
822.289	27447
822.429	27161
822.569	27135
822.709	27211
822.849	26876
822.99	26838
823.13	26811
823.27	26921
823.41	26845
823.55	26739
823.69	26754
823.83	26705
823.97	26693
824.11	26518
824.25	26396
824.389	26434
824.529	26800
824.669	26564
824.809	26629
824.949	26659
825.089	26769
825.228	26545
825.368	26423
825.508	26465
825.648	26427
825.787	26476
825.927	26503
826.067	26488
826.206	26381
826.346	26541
826.485	26484
826.625	26450
826.765	26533
826.904	26358
827.044	26176
827.183	26317
827.323	26157
827.462	26183
827.601	26210
827.741	26054
827.88	26309
828.02	26020
828.159	26062
828.298	26103
828.437	26237
828.577	26138
828.716	26259
828.855	25947
828.994	25807
829.134	25822
829.273	25868
829.412	25860
829.551	25879
829.69	25799
829.829	25868
829.968	26073
830.107	25989
830.246	25909
830.385	25894
830.524	25788
830.663	25742
830.802	25548
830.941	25537
831.08	25457
831.219	25464
831.357	25449
831.496	25670
831.635	25381
831.774	25468
831.913	25407
832.051	25358
832.19	25217
832.329	25316
832.467	25057
832.606	25114
832.744	25061
832.883	25137
833.022	25046
833.16	25164
833.299	25175
833.437	25126
833.576	25301
833.714	25274
833.852	25324
833.991	25263
834.129	25316
834.267	25221
834.406	25244
834.544	25187
834.682	25225
834.821	25156
834.959	25301
835.097	25232
835.235	25381
835.373	25285
835.511	25148
835.65	25160
835.788	24970
835.926	24859
836.064	24958
836.202	24897
836.34	24954
836.478	25042
836.615	24981
836.753	24951
836.891	25110
837.029	24920
837.167	24989
837.305	24920
837.443	24966
837.58	24821
837.718	25008
837.856	24878
837.993	24722
838.131	24875
838.269	24726
838.406	24783
838.544	24658
838.681	24403
838.819	24498
838.956	24262
839.094	24334
839.231	24418
839.369	24563
839.506	24719
839.643	24505
839.781	24216
839.918	24251
840.055	24243
840.193	24133
840.33	24117
840.467	24133
840.604	24194
840.742	24407
840.879	23958
841.016	24011
841.153	24186
841.29	24262
841.427	24174
841.564	24300
841.701	24296
841.838	24133
841.975	24034
842.112	24152
842.249	24136
842.385	23954
842.522	24190
842.659	24072
842.796	23882
842.933	23946
843.069	23904
843.206	23984
843.343	23965
843.479	23984
843.616	23961
843.752	23760
843.889	23707
844.025	23878
844.162	23710
844.298	23802
844.435	23726
844.571	23608
844.708	23729
844.844	23939
844.98	23783
845.117	23779
845.253	23657
845.389	23672
845.525	23649
845.661	23471
845.798	23486
845.934	23611
846.07	23627
846.206	23570
846.342	23566
846.478	23459
846.614	23246
846.75	23128
846.886	23181
847.022	23326
847.158	23067
847.294	23261
847.429	23204
847.565	23014
847.701	23303
847.837	22991
847.972	22949
848.108	23018
848.244	22987
848.379	22839
848.515	22820
848.65	22812
848.786	22877
848.921	22710
849.057	22820
849.192	22881
849.328	22820
849.463	22774
849.598	22820
849.734	22645
849.869	22592
850.004	22550
850.14	22588
850.275	22561
850.41	22451
850.545	22546
850.68	22409
850.815	22557
850.95	22451
851.085	22824
851.22	22668
851.355	22565
851.49	22497
851.625	22470
851.76	22588
851.895	22504
852.03	22363
852.165	22622
852.299	22634
852.434	22588
852.569	22569
852.703	22538
852.838	22569
852.973	22683
853.107	22584
853.242	22497
853.376	22398
853.511	22348
853.645	22314
853.78	22519
853.914	22455
854.048	22341
854.183	22360
854.317	22409
854.451	22478
854.585	22295
854.72	22322
854.854	22390
854.988	22329
855.122	22287
855.256	22287
855.39	22390
855.524	22417
855.658	22348
855.792	22390
855.926	22371
856.06	22459
856.194	22405
856.327	22386
856.461	22375
856.595	22253
856.729	22367
856.862	22485
856.996	22367
857.13	22447
857.263	22493
857.397	22554
857.53	22413
857.664	22303
857.797	22405
857.931	22417
858.064	22478
858.197	22394
858.331	22470
858.464	22265
858.597	22249
858.731	22265
858.864	22291
858.997	22257
859.13	22462
859.263	22375
859.396	22421
859.529	22402
859.662	22322
859.795	22242
859.928	22295
860.061	22565
860.194	22550
860.327	22512
860.46	22314
860.592	22455
860.725	22481
860.858	22508
860.99	22375
861.123	22253
861.256	22341
861.388	22367
861.521	23090
861.653	22223
861.786	22162
861.918	22356
862.05	22299
862.183	22200
862.315	22360
862.447	22413
862.58	22367
862.712	22017
862.844	22078
862.976	22246
863.108	22120
863.24	22462
863.372	21949
863.504	22074
863.636	22109
863.768	22070
863.9	22021
864.032	22040
864.164	22093
864.296	22070
864.428	22242
864.559	22051
864.691	22188
864.823	22143
864.954	22006
865.086	22078
865.217	21956
865.349	21797
865.48	21903
865.612	21884
865.743	22101
865.875	21918
866.006	22044
866.137	21941
866.269	21972
866.4	21831
866.531	21880
866.662	21888
866.793	21979
866.924	21911
867.055	21892
867.186	21937
867.317	21895
867.448	21812
867.579	21797
867.71	21755
867.841	21956
867.972	21846
868.103	21789
868.233	21823
868.364	22059
868.495	22070
868.625	21994
868.756	22268
868.886	22078
869.017	22090
869.147	22253
869.278	22207
869.408	22192
869.539	22188
869.669	22166
869.799	22158
869.929	22112
870.06	22238
870.19	22481
870.32	22257
870.45	22466
870.58	22588
870.71	22664
870.84	22683
870.97	22497
871.1	22584
871.23	22774
871.36	22687
871.489	22675
871.619	22694
871.749	22649
871.879	22858
872.008	22866
872.138	22634
872.267	22736
872.397	22531
872.526	22584
872.656	22626
872.785	22478
872.915	22831
873.044	22843
873.173	22748
873.303	22889
873.432	22809
873.561	22843
873.69	22778
873.819	22733
873.948	22816
874.077	22778
874.206	22805
874.335	22694
874.464	22915
874.593	22862
874.722	22968
874.851	23136
874.979	23022
875.108	23003
875.237	22847
875.365	22896
875.494	22946
875.623	23121
875.751	22923
875.88	23029
876.008	23022
876.136	23178
876.265	23364
876.393	23558
876.521	23425
876.65	23429
876.778	23395
876.906	23303
877.034	23303
877.162	23299
877.29	23318
877.418	23383
877.546	23311
877.674	23235
877.802	23258
877.93	23200
878.058	23121
878.185	23204
878.313	23170
878.441	23349
878.568	23041
878.696	23185
878.824	23296
878.951	23440
879.079	23452
879.206	23619
879.333	23486
879.461	23345
879.588	23288
879.715	23417
879.842	23589
879.97	23398
880.097	23151
880.224	23121
880.351	23094
880.478	23223
880.605	23033
880.732	23265
880.859	23402
880.986	23143
881.112	23044
881.239	23037
881.366	22869
881.493	22828
881.619	22653
881.746	22733
881.872	22641
881.999	22694
882.125	22618
882.252	22603
882.378	22443
882.505	22672
882.631	22546
882.757	22352
882.883	22462
883.01	22341
883.136	22325
883.262	22200
883.388	22181
883.514	22371
883.64	22371
883.766	22287
883.892	22207
884.018	22063
884.143	22329
884.269	22329
884.395	22086
884.52	21918
884.646	21895
884.772	22036
884.897	21934
885.023	22044
885.148	22109
885.274	22139
885.399	22006
885.524	21987
885.65	21899
885.775	22025
885.9	21975
886.025	22048
886.15	21934
886.275	21953
886.4	21899
886.525	21865
886.65	21895
886.775	21945
886.9	22093
887.025	22181
887.149	22116
887.274	21880
887.399	21698
887.523	21667
887.648	21682
887.773	21629
887.897	21918
888.021	21861
888.146	21660
888.27	21918
888.395	21747
888.519	21785
888.643	21603
888.767	21743
888.891	21652
889.015	21485
889.139	21622
889.263	21583
889.387	21675
889.511	21808
889.635	21713
889.759	21538
889.883	21606
890.006	21557
890.13	21629
890.254	21454
890.377	21496
890.501	21447
890.624	21230
890.748	21367
890.871	21150
890.995	21066
891.118	21028
891.241	21131
891.364	21108
891.488	21081
891.611	21108
891.734	21001
891.857	21169
891.98	21032
892.103	21028
892.226	21104
892.349	21036
892.471	20815
892.594	20967
892.717	21070
892.839	20948
892.962	20956
893.085	21047
893.207	21032
893.33	20933
893.452	20929
893.575	21039
893.697	20872
893.819	21138
893.941	21207
894.064	21089
894.186	20880
894.308	20906
894.43	21081
894.552	21165
894.674	21013
894.796	20834
894.918	20876
895.04	21001
895.161	21077
895.283	21013
895.405	20788
895.526	21013
895.648	20960
895.769	21028
895.891	21085
896.012	21100
896.134	21100
896.255	20990
896.376	20872
896.498	20975
896.619	20990
896.74	20830
896.861	21142
896.982	21199
897.103	21439
897.224	21211
897.345	21123
897.466	21176
897.587	21195
897.708	21256
897.828	21214
897.949	21154
898.07	20963
898.19	21146
898.311	21256
898.431	21112
898.552	21135
898.672	21294
898.792	21260
898.913	21104
899.033	21055
899.153	21043
899.273	20845
899.393	20948
899.513	20944
899.633	21024
899.753	20986
899.873	20834
899.993	20933
900.113	20891
900.232	20918
900.352	20830
900.472	20674
900.591	20640
900.711	20697
900.83	20609
900.95	20781
901.069	20792
901.189	20579
901.308	20381
901.427	20248
901.546	20240
901.665	20286
901.784	20218
901.904	20069
902.023	20016
902.141	19845
902.26	19734
902.379	19753
902.498	19750
902.617	19708
902.735	19818
902.854	19791
902.973	19708
903.091	19502
903.21	19464
903.328	19476
903.446	19350
903.565	19225
903.683	19168
903.801	19160
903.919	19202
904.038	19107
904.156	18875
904.274	19050
904.392	18913
904.51	18977
904.627	19015
904.745	18954
904.863	19080
904.981	18715
905.098	18707
905.216	18631
905.334	18741
905.451	18646
905.569	18726
905.686	18684
905.803	18730
905.921	18528
906.038	18597
906.155	18429
906.272	18445
906.389	18289
906.506	18232
906.623	18152
906.74	18239
906.857	18003
906.974	17916
907.091	18228
907.208	18399
907.324	18220
907.441	18045
907.557	17942
907.674	17885
907.79	17783
907.907	17931
908.023	17889
908.139	17813
908.256	18045
908.372	17802
908.488	17824
908.604	17646
908.72	17539
908.836	17630
908.952	17634
909.068	17646
909.184	17752
909.3	17646
909.415	17478
909.531	17570
909.647	17318
909.762	17330
909.878	17303
909.993	17303
910.108	17326
910.224	17250
910.339	17223
910.454	17181
910.57	17041
910.685	17018
910.8	17444
910.915	17136
911.03	17083
911.145	16923
911.259	16904
911.374	16919
911.489	16710
911.604	16752
911.718	16656
911.833	16592
911.947	16588
912.062	16500
912.176	16653
912.291	16645
912.405	16569
912.519	16824
912.633	16797
912.748	16611
912.862	16550
912.976	16447
913.09	16405
913.204	16470
913.318	16466
913.431	16512
913.545	16485
913.659	16558
913.772	16409
913.886	16322
914	16154
914.113	16303
914.226	16344
914.34	16272
914.453	16200
914.566	16287
914.68	16082
914.793	16036
914.906	15960
915.019	15854
915.132	15762
915.245	15850
915.358	15892
915.47	15857
915.583	15869
915.696	15755
915.809	15949
915.921	15975
916.034	15739
916.146	15690
916.259	15682
916.371	15720
916.483	15705
916.595	15694
916.708	15504
916.82	15694
916.932	15648
917.044	15526
917.156	15511
917.268	15496
917.38	15462
917.491	15454
917.603	15389
917.715	15439
917.826	15523
917.938	15450
918.049	15306
918.161	15367
918.272	15618
918.384	15492
918.495	15408
918.606	15237
918.717	15237
918.828	15222
918.939	15211
919.05	15119
919.161	15169
919.272	14914
919.383	14986
919.494	15245
919.604	15279
919.715	15074
919.826	15058
919.936	14990
920.047	15142
920.157	15161
920.267	15321
920.378	15142
920.488	15051
920.598	15287
920.708	15462
920.818	15306
920.928	15237
921.038	15420
921.148	15420
921.258	15093
921.368	14979
921.477	14830
921.587	14838
921.697	14705
921.806	14861
921.916	14598
922.025	14450
922.134	14617
922.244	14434
922.353	14526
922.462	14362
922.571	14221
922.68	14187
922.789	14161
922.898	14077
923.007	14039
923.116	14115
923.224	14126
923.333	14126
923.442	13963
923.55	13925
923.659	13989
923.767	13940
923.876	13982
923.984	13982
924.092	13940
924.201	13890
924.309	13757
924.417	13818
924.525	13761
924.633	13788
924.741	14469
924.849	13559
924.956	13693
925.064	13521
925.172	13468
925.279	13533
925.387	13556
925.494	13499
925.602	13662
925.709	13601
925.816	13339
925.924	13411
926.031	13548
926.138	13460
926.245	13495
926.352	13381
926.459	13521
926.566	13510
926.673	13335
926.779	13190
926.886	13251
926.993	12989
927.099	13088
927.206	12962
927.312	12928
927.419	13122
927.525	13015
927.631	13015
927.737	12916
927.843	12943
927.95	12829
928.056	12924
928.162	12958
928.267	12947
928.373	13540
928.479	12989
928.585	12707
928.69	12848
928.796	12688
928.901	12684
929.007	12593
929.112	12684
929.218	12707
929.323	12631
929.428	12650
929.533	12741
929.638	12559
929.743	12506
929.848	12582
929.953	12528
930.058	12426
930.163	12300
930.267	12220
930.372	12452
930.477	12209
930.581	12517
930.685	12285
930.79	12194
930.894	12140
930.998	12144
931.103	12224
931.207	11954
931.311	11802
931.415	11649
931.519	11528
931.623	11566
