Data from test_V78500241_2866.txt Node
Date: Fri Mar 25 16:01:39 CST 2022
User: usil
Spectrometer: V785-0024
Trigger mode: 0
Integration Time (sec): 4.000000E-1
Scans to average: 1
Nonlinearity correction enabled: false
Boxcar width: 0
Storing dark spectrum: false
XAxis mode: Wavelengths
Number of Pixels in Spectrum: 1024
>>>>>Begin Spectral Data<<<<<
801.071	29025
801.214	28995
801.356	28820
801.499	28710
801.641	28497
801.783	28592
801.926	28790
802.068	28569
802.211	28538
802.353	28424
802.496	28367
802.638	28344
802.78	28318
802.923	28295
803.065	28257
803.208	28314
803.35	28405
803.492	28542
803.635	28603
803.777	28470
803.919	28580
804.061	28900
804.204	28569
804.346	28512
804.488	28611
804.63	28611
804.773	28546
804.915	28607
805.057	28672
805.199	28637
805.341	28683
805.483	28740
805.626	28835
805.768	28607
805.91	28706
806.052	28786
806.194	28717
806.336	28862
806.478	28820
806.62	28881
806.762	29018
806.904	29029
807.046	29166
807.188	29090
807.33	29090
807.472	29250
807.614	29204
807.756	29166
807.898	28999
808.04	29044
808.182	28965
808.324	28938
808.465	29193
808.607	29345
808.749	29467
808.891	29486
809.033	29714
809.174	29547
809.316	29311
809.458	29436
809.6	29311
809.741	29615
809.883	29520
810.025	29707
810.166	29729
810.308	29604
810.45	29661
810.591	29672
810.733	29512
810.875	29452
811.016	29269
811.158	29315
811.299	29623
811.441	29653
811.582	29585
811.724	29520
811.865	29452
812.007	29543
812.148	29501
812.29	29592
812.431	29509
812.573	29893
812.714	29775
812.855	30076
812.997	30095
813.138	30190
813.279	30106
813.421	29969
813.562	30057
813.703	29878
813.845	29741
813.986	29482
814.127	29334
814.268	29231
814.41	29212
814.551	29147
814.692	29208
814.833	29147
814.974	29189
815.115	29121
815.256	29090
815.397	28900
815.539	29010
815.68	28885
815.821	29010
815.962	29094
816.103	29075
816.244	28801
816.385	28649
816.526	28653
816.666	28584
816.807	28421
816.948	28478
817.089	28660
817.23	28470
817.371	28474
817.512	28550
817.653	28546
817.793	28462
817.934	28390
818.075	28504
818.216	28478
818.356	28390
818.497	28428
818.638	28265
818.778	28295
818.919	28405
819.06	28284
819.2	28398
819.341	28588
819.481	28508
819.622	28702
819.762	28900
819.903	28843
820.043	28694
820.184	28656
820.324	28584
820.465	28683
820.605	28706
820.746	28668
820.886	28554
821.026	28611
821.167	28645
821.307	28691
821.447	28702
821.588	28523
821.728	28341
821.868	28219
822.008	28082
822.149	28013
822.289	27907
822.429	27648
822.569	27755
822.709	27595
822.849	27458
822.99	27526
823.13	27450
823.27	27473
823.41	27469
823.55	27169
823.69	27336
823.83	27310
823.97	27310
824.11	27135
824.25	26982
824.389	27176
824.529	27222
824.669	27192
824.809	27268
824.949	27230
825.089	27332
825.228	27146
825.368	27123
825.508	26902
825.648	27150
825.787	27192
825.927	27161
826.067	27062
826.206	27051
826.346	27146
826.485	27165
826.625	27036
826.765	27283
826.904	27074
827.044	26925
827.183	26853
827.323	26838
827.462	26944
827.601	26750
827.741	26697
827.88	26705
828.02	26746
828.159	26720
828.298	26785
828.437	26842
828.577	26625
828.716	26815
828.855	26587
828.994	26473
829.134	26446
829.273	26343
829.412	26492
829.551	26465
829.69	26385
829.829	26549
829.968	26453
830.107	26537
830.246	26431
830.385	26423
830.524	26355
830.663	26267
830.802	26027
830.941	26069
831.08	26069
831.219	26168
831.357	26122
831.496	26138
831.635	25898
831.774	26065
831.913	26058
832.051	25784
832.19	25791
832.329	25917
832.467	25879
832.606	25601
832.744	25704
832.883	25655
833.022	25677
833.16	25670
833.299	25658
833.437	25715
833.576	25875
833.714	25852
833.852	25909
833.991	25875
834.129	25879
834.267	25894
834.406	25780
834.544	25830
834.682	25788
834.821	25830
834.959	26046
835.097	25620
835.235	25799
835.373	25601
835.511	25693
835.65	25662
835.788	25537
835.926	25540
836.064	25445
836.202	25601
836.34	25643
836.478	25613
836.615	25628
836.753	25715
836.891	25620
837.029	25655
837.167	25430
837.305	25582
837.443	25590
837.58	25381
837.718	25567
837.856	25506
837.993	25369
838.131	25343
838.269	25343
838.406	25278
838.544	25327
838.681	25088
838.819	24935
838.956	24897
839.094	24928
839.231	25004
839.369	25118
839.506	25282
839.643	25160
839.781	25012
839.918	24814
840.055	24867
840.193	24821
840.33	24859
840.467	24783
840.604	24848
840.742	25061
840.879	24642
841.016	24665
841.153	24730
841.29	24886
841.427	24817
841.564	24703
841.701	24848
841.838	24757
841.975	24570
842.112	24703
842.249	24700
842.385	24540
842.522	24658
842.659	24642
842.796	24631
842.933	24490
843.069	24559
843.206	24540
843.343	24544
843.479	24646
843.616	24547
843.752	24342
843.889	24399
844.025	24464
844.162	24209
844.298	24422
844.435	24304
844.571	24232
844.708	24334
844.844	24544
844.98	24627
845.117	24346
845.253	24327
845.389	24148
845.525	24243
845.661	24167
845.798	24072
845.934	24133
846.07	24106
846.206	24038
846.342	24311
846.478	24083
846.614	23779
846.75	23794
846.886	23756
847.022	23866
847.158	23863
847.294	23863
847.429	23901
847.565	23828
847.701	24125
847.837	23490
847.972	23349
848.108	23585
848.244	23585
848.379	23383
848.515	23379
848.65	23391
848.786	23455
848.921	23471
849.057	23467
849.192	23414
849.328	23474
849.463	23417
849.598	23341
849.734	23235
849.869	23307
850.004	23056
850.14	23174
850.275	23265
850.41	23109
850.545	23162
850.68	23083
850.815	23242
850.95	23254
851.085	23284
851.22	23280
851.355	23102
851.49	23170
851.625	23014
851.76	23014
851.895	23086
852.03	23056
852.165	23136
852.299	23147
852.434	23269
852.569	23174
852.703	23128
852.838	23311
852.973	23299
853.107	23204
853.242	23109
853.376	23098
853.511	22812
853.645	22908
853.78	23083
853.914	22968
854.048	22923
854.183	22953
854.317	23025
854.451	23124
854.585	22972
854.72	22976
854.854	22961
854.988	22866
855.122	23003
855.256	22778
855.39	22995
855.524	22980
855.658	23090
855.792	22980
855.926	23003
856.06	22942
856.194	22957
856.327	22908
856.461	22869
856.595	22923
856.729	22965
856.862	23117
856.996	22873
857.13	23090
857.263	22980
857.397	23090
857.53	22854
857.664	22968
857.797	23060
857.931	22980
858.064	22885
858.197	23064
858.331	22957
858.464	22843
858.597	22889
858.731	22786
858.864	22862
858.997	22930
859.13	22980
859.263	22915
859.396	23037
859.529	23010
859.662	22835
859.795	22938
859.928	22957
860.061	23098
860.194	23143
860.327	23018
860.46	22980
860.592	23060
860.725	23075
860.858	23105
860.99	22908
861.123	22885
861.256	22850
861.388	22984
861.521	23630
861.653	22812
861.786	22653
861.918	22900
862.05	22801
862.183	22862
862.315	22972
862.447	22820
862.58	22774
862.712	22519
862.844	22611
862.976	22736
863.108	22672
863.24	23064
863.372	22607
863.504	22649
863.636	22641
863.768	22736
863.9	22710
864.032	22615
864.164	22618
864.296	22588
864.428	22767
864.559	22683
864.691	22637
864.823	22459
864.954	22615
865.086	22618
865.217	22538
865.349	22489
865.48	22584
865.612	22569
865.743	22740
865.875	22497
866.006	22557
866.137	22577
866.269	22607
866.4	22462
866.531	22466
866.662	22363
866.793	22409
866.924	22584
867.055	22379
867.186	22557
867.317	22478
867.448	22356
867.579	22375
867.71	22306
867.841	22367
867.972	22409
868.103	22447
868.233	22443
868.364	22428
868.495	22569
868.625	22645
868.756	22778
868.886	22615
869.017	22736
869.147	22915
869.278	22949
869.408	22767
869.539	22740
869.669	22885
869.799	22839
869.929	22877
870.06	22797
870.19	23143
870.32	22968
870.45	23014
870.58	23109
870.71	23185
870.84	23265
870.97	23181
871.1	23003
871.23	23200
871.36	23277
871.489	23231
871.619	23345
871.749	23151
871.879	23269
872.008	23493
872.138	23376
872.267	23258
872.397	23280
872.526	23052
872.656	23071
872.785	23090
872.915	23334
873.044	23334
873.173	23345
873.303	23250
873.432	23387
873.561	23414
873.69	23288
873.819	23299
873.948	23303
874.077	23193
874.206	23254
874.335	23250
874.464	23330
874.593	23417
874.722	23493
874.851	23554
874.979	23661
875.108	23459
875.237	23410
875.365	23383
875.494	23509
875.623	23493
875.751	23478
875.88	23417
876.008	23665
876.136	23710
876.265	23912
876.393	23973
876.521	24030
876.65	23969
876.778	23882
876.906	23916
877.034	23775
877.162	23813
877.29	23741
877.418	23817
877.546	23737
877.674	23775
877.802	23855
877.93	23714
878.058	23718
878.185	23589
878.313	23840
878.441	23805
878.568	23661
878.696	23893
878.824	23836
878.951	23893
879.079	23996
879.206	24201
879.333	24053
879.461	23840
879.588	24087
879.715	23984
879.842	24262
879.97	23977
880.097	23832
880.224	23718
880.351	23779
880.478	23661
880.605	23680
880.732	23634
880.859	23870
880.986	23707
881.112	23630
881.239	23459
881.366	23368
881.493	23349
881.619	23288
881.746	23242
881.872	23265
881.999	23277
882.125	23128
882.252	23174
882.378	23185
882.505	23292
882.631	23208
882.757	23014
882.883	22968
883.01	22934
883.136	22889
883.262	22854
883.388	22786
883.514	22976
883.64	22968
883.766	22812
883.892	22664
884.018	22713
884.143	22809
884.269	22877
884.395	22538
884.52	22341
884.646	22618
884.772	22497
884.897	22424
885.023	22481
885.148	22573
885.274	22668
885.399	22565
885.524	22497
885.65	22550
885.775	22535
885.9	22451
886.025	22569
886.15	22565
886.275	22512
886.4	22538
886.525	22451
886.65	22348
886.775	22527
886.9	22706
887.025	22721
887.149	22455
887.274	22394
887.399	22291
887.523	22268
887.648	22261
887.773	22029
887.897	22443
888.021	22325
888.146	22246
888.27	22375
888.395	22242
888.519	22291
888.643	22318
888.767	22223
888.891	22230
889.015	22063
889.139	22116
889.263	22025
889.387	22291
889.511	22169
889.635	22246
889.759	21983
889.883	22158
890.006	22013
890.13	22223
890.254	21979
890.377	21926
890.501	21842
890.624	21736
890.748	21888
890.871	21671
890.995	21526
891.118	21561
891.241	21644
891.364	21523
891.488	21724
891.611	21549
891.734	21720
891.857	21625
891.98	21671
892.103	21713
892.226	21614
892.349	21530
892.471	21401
892.594	21393
892.717	21523
892.839	21481
892.962	21500
893.085	21614
893.207	21424
893.33	21374
893.452	21283
893.575	21557
893.697	21416
893.819	21671
893.941	21720
894.064	21450
894.186	21454
894.308	21523
894.43	21580
894.552	21667
894.674	21542
894.796	21450
894.918	21397
895.04	21382
895.161	21534
895.283	21500
895.405	21340
895.526	21435
895.648	21378
895.769	21538
895.891	21431
896.012	21458
896.134	21595
896.255	21458
896.376	21214
896.498	21530
896.619	21553
896.74	21424
896.861	21583
896.982	21774
897.103	21941
897.224	21728
897.345	21633
897.466	21572
897.587	21614
897.708	21895
897.828	21641
897.949	21519
898.07	21583
898.19	21564
898.311	21705
898.431	21618
898.552	21622
898.672	21732
898.792	21663
898.913	21701
899.033	21595
899.153	21583
899.273	21256
899.393	21428
899.513	21545
899.633	21393
899.753	21443
899.873	21351
899.993	21397
900.113	21199
900.232	21431
900.352	21332
900.472	21150
900.591	21100
900.711	21142
900.83	21081
900.95	21237
901.069	21142
901.189	21032
901.308	20826
901.427	20777
901.546	20655
901.665	20716
901.784	20693
901.904	20629
902.023	20484
902.141	20142
902.26	20324
902.379	20320
902.498	20134
902.617	20172
902.735	20164
902.854	20202
902.973	20161
903.091	19883
903.21	19811
903.328	19753
903.446	19658
903.565	19689
903.683	19613
903.801	19502
903.919	19658
904.038	19556
904.156	19419
904.274	19468
904.392	19251
904.51	19415
904.627	19400
904.745	19422
904.863	19354
904.981	19168
905.098	19091
905.216	19145
905.334	19118
905.451	19034
905.569	19050
905.686	19160
905.803	19164
905.921	18954
906.038	18890
906.155	18897
906.272	18760
906.389	18833
906.506	18589
906.623	18642
906.74	18620
906.857	18433
906.974	18521
907.091	18650
907.208	18646
907.324	18612
907.441	18521
907.557	18346
907.674	18342
907.79	18311
907.907	18277
908.023	18319
908.139	18384
908.256	18273
908.372	18068
908.488	18186
908.604	17969
908.72	17992
908.836	17950
908.952	17958
909.068	18019
909.184	18106
909.3	17961
909.415	18003
909.531	17931
909.647	17634
909.762	17657
909.878	17771
909.993	17661
910.108	17676
910.224	17589
910.339	17672
910.454	17615
910.57	17547
910.685	17410
910.8	17684
910.915	17672
911.03	17402
911.145	17383
911.259	17265
911.374	17227
911.489	17159
911.604	17147
911.718	16961
911.833	17098
911.947	16953
912.062	16915
912.176	16957
912.291	17071
912.405	16961
912.519	17216
912.633	17212
912.748	17022
912.862	16968
912.976	16896
913.09	16778
913.204	16820
913.318	16805
913.431	16999
913.545	16896
913.659	16942
913.772	16778
913.886	16596
914	16542
914.113	16687
914.226	16618
914.34	16649
914.453	16565
914.566	16675
914.68	16394
914.793	16394
914.906	16325
915.019	16246
915.132	16131
915.245	16200
915.358	16242
915.47	16131
915.583	16097
915.696	16177
915.809	16253
915.921	16238
916.034	16181
916.146	16044
916.259	16063
916.371	16078
916.483	16101
916.595	16025
916.708	15945
916.82	15922
916.932	16006
917.044	15880
917.156	15918
917.268	15770
917.38	15793
917.491	15774
917.603	15728
917.715	15865
917.826	15915
917.938	15755
918.049	15622
918.161	15682
918.272	15854
918.384	15865
918.495	15686
918.606	15549
918.717	15428
918.828	15568
918.939	15481
919.05	15507
919.161	15523
919.272	15230
919.383	15241
919.494	15557
919.604	15667
919.715	15481
919.826	15332
919.936	15310
920.047	15549
920.157	15428
920.267	15641
920.378	15420
920.488	15454
920.598	15545
920.708	15778
920.818	15648
920.928	15656
921.038	15679
921.148	15690
921.258	15481
921.368	15298
921.477	15165
921.587	15218
921.697	14967
921.806	15176
921.916	14982
922.025	14811
922.134	14800
922.244	14872
922.353	14883
922.462	14731
922.571	14644
922.68	14518
922.789	14431
922.898	14469
923.007	14400
923.116	14385
923.224	14503
923.333	14446
923.442	14298
923.55	14305
923.659	14282
923.767	14343
923.876	14244
923.984	14248
924.092	14180
924.201	14164
924.309	14142
924.417	14081
924.525	14103
924.633	14069
924.741	15005
924.849	13826
924.956	14081
925.064	13940
925.172	13746
925.279	13830
925.387	13909
925.494	13750
925.602	13841
925.709	13830
925.816	13723
925.924	13689
926.031	13860
926.138	13746
926.245	13689
926.352	13609
926.459	13757
926.566	13765
926.673	13696
926.779	13616
926.886	13502
926.993	13426
927.099	13259
927.206	13266
927.312	13343
927.419	13339
927.525	13278
927.631	13312
927.737	13297
927.843	13221
927.95	12981
928.056	13050
928.162	13118
928.267	13206
928.373	13864
928.479	13202
928.585	12951
928.69	13110
928.796	13084
928.901	13019
929.007	12817
929.112	13034
929.218	12958
929.323	12825
929.428	12840
929.533	12897
929.638	12848
929.743	12871
929.848	12840
929.953	12901
930.058	12642
930.163	12475
930.267	12563
930.372	12684
930.477	12544
930.581	12662
930.685	12582
930.79	12334
930.894	12330
930.998	12369
931.103	12426
931.207	12106
931.311	12034
931.415	11980
931.519	11752
931.623	11752
