Data from test_V78500241_3386.txt Node
Date: Fri Mar 25 16:05:15 CST 2022
User: usil
Spectrometer: V785-0024
Trigger mode: 0
Integration Time (sec): 4.000000E-1
Scans to average: 1
Nonlinearity correction enabled: false
Boxcar width: 0
Storing dark spectrum: false
XAxis mode: Wavelengths
Number of Pixels in Spectrum: 1024
>>>>>Begin Spectral Data<<<<<
801.071	28500
801.214	28447
801.356	28341
801.499	28211
801.641	28124
801.783	28173
801.926	28200
802.068	28131
802.211	28109
802.353	27918
802.496	27747
802.638	27819
802.78	27732
802.923	27755
803.065	27603
803.208	27682
803.35	27907
803.492	27949
803.635	28006
803.777	27850
803.919	27983
804.061	28405
804.204	28097
804.346	27960
804.488	27899
804.63	28048
804.773	28063
804.915	27979
805.057	27994
805.199	28090
805.341	28010
805.483	28158
805.626	28143
805.768	28135
805.91	28150
806.052	28280
806.194	28150
806.336	28497
806.478	28284
806.62	28314
806.762	28318
806.904	28519
807.046	28713
807.188	28656
807.33	28500
807.472	28748
807.614	28580
807.756	28679
807.898	28565
808.04	28569
808.182	28417
808.324	28546
808.465	28527
808.607	28752
808.749	28873
808.891	29033
809.033	29041
809.174	28881
809.316	28767
809.458	28869
809.6	28930
809.741	28987
809.883	29025
810.025	29113
810.166	29254
810.308	29102
810.45	29083
810.591	28984
810.733	28877
810.875	28888
811.016	28858
811.158	28869
811.299	29022
811.441	29064
811.582	29079
811.724	28862
811.865	28786
812.007	28919
812.148	28923
812.29	28984
812.431	29128
812.573	29280
812.714	29318
812.855	29334
812.997	29592
813.138	29634
813.279	29452
813.421	29326
813.562	29178
813.703	29239
813.845	29071
813.986	28812
814.127	28630
814.268	28656
814.41	28641
814.551	28527
814.692	28668
814.833	28440
814.974	28470
815.115	28656
815.256	28382
815.397	28523
815.539	28485
815.68	28466
815.821	28360
815.962	28462
816.103	28398
816.244	28363
816.385	28196
816.526	28253
816.666	28013
816.807	27850
816.948	28070
817.089	27987
817.23	27899
817.371	27831
817.512	27846
817.653	27911
817.793	27797
817.934	27857
818.075	27873
818.216	27941
818.356	27816
818.497	27827
818.638	27781
818.778	27622
818.919	27679
819.06	27766
819.2	27770
819.341	28013
819.481	27964
819.622	28109
819.762	28261
819.903	28234
820.043	28268
820.184	28090
820.324	27949
820.465	28173
820.605	28032
820.746	27979
820.886	27819
821.026	28078
821.167	27785
821.307	28029
821.447	28055
821.588	27907
821.728	27682
821.868	27488
822.008	27329
822.149	27439
822.289	27389
822.429	27222
822.569	27169
822.709	27119
822.849	26929
822.99	27028
823.13	26891
823.27	26933
823.41	26762
823.55	26621
823.69	26762
823.83	26762
823.97	26720
824.11	26632
824.25	26465
824.389	26530
824.529	26636
824.669	26415
824.809	26682
824.949	26590
825.089	26507
825.228	26442
825.368	26453
825.508	26355
825.648	26571
825.787	26503
825.927	26488
826.067	26495
826.206	26324
826.346	26385
826.485	26427
826.625	26381
826.765	26514
826.904	26423
827.044	26180
827.183	26256
827.323	26149
827.462	26320
827.601	26206
827.741	26043
827.88	26138
828.02	26081
828.159	26081
828.298	26119
828.437	26176
828.577	26119
828.716	26218
828.855	26027
828.994	25978
829.134	25845
829.273	25917
829.412	25814
829.551	25795
829.69	25814
829.829	25856
829.968	25845
830.107	25966
830.246	25727
830.385	25647
830.524	25761
830.663	25571
830.802	25586
830.941	25529
831.08	25373
831.219	25331
831.357	25556
831.496	25746
831.635	25483
831.774	25491
831.913	25377
832.051	25160
832.19	25209
832.329	25293
832.467	25152
832.606	25122
832.744	25008
832.883	25019
833.022	25057
833.16	25114
833.299	25065
833.437	25156
833.576	25171
833.714	25145
833.852	25152
833.991	25339
834.129	25293
834.267	25293
834.406	25259
834.544	25240
834.682	25187
834.821	25080
834.959	25278
835.097	25175
835.235	25133
835.373	25099
835.511	25057
835.65	25038
835.788	24989
835.926	24996
836.064	24901
836.202	24738
836.34	25145
836.478	25065
836.615	24890
836.753	24871
836.891	25091
837.029	25061
837.167	24924
837.305	24848
837.443	24840
837.58	24863
837.718	24985
837.856	24897
837.993	24730
838.131	24760
838.269	24711
838.406	24703
838.544	24574
838.681	24456
838.819	24479
838.956	24319
839.094	24380
839.231	24338
839.369	24429
839.506	24658
839.643	24464
839.781	24460
839.918	24155
840.055	24330
840.193	24190
840.33	24300
840.467	24205
840.604	24334
840.742	24452
840.879	24167
841.016	24239
841.153	24140
841.29	24372
841.427	24213
841.564	24266
841.701	24133
841.838	24178
841.975	24129
842.112	24197
842.249	24045
842.385	23980
842.522	24117
842.659	24076
842.796	23969
842.933	23980
843.069	23931
843.206	23935
843.343	23942
843.479	24003
843.616	24095
843.752	23786
843.889	23745
844.025	24015
844.162	23733
844.298	23931
844.435	23882
844.571	23809
844.708	23710
844.844	24003
844.98	23863
845.117	23885
845.253	23615
845.389	23570
845.525	23531
845.661	23539
845.798	23436
845.934	23581
846.07	23448
846.206	23512
846.342	23646
846.478	23486
846.614	23337
846.75	23193
846.886	23269
847.022	23334
847.158	23162
847.294	23341
847.429	23231
847.565	23044
847.701	23471
847.837	23003
847.972	22946
848.108	23094
848.244	22999
848.379	22850
848.515	22736
848.65	22733
848.786	22828
848.921	22767
849.057	22946
849.192	22889
849.328	22835
849.463	22831
849.598	22668
849.734	22634
849.869	22615
850.004	22584
850.14	22577
850.275	22535
850.41	22485
850.545	22466
850.68	22527
850.815	22485
850.95	22580
851.085	22664
851.22	22569
851.355	22573
851.49	22535
851.625	22569
851.76	22516
851.895	22535
852.03	22493
852.165	22459
852.299	22630
852.434	22725
852.569	22721
852.703	22485
852.838	22531
852.973	22660
853.107	22710
853.242	22455
853.376	22508
853.511	22200
853.645	22428
853.78	22459
853.914	22398
854.048	22382
854.183	22424
854.317	22428
854.451	22432
854.585	22329
854.72	22379
854.854	22523
854.988	22310
855.122	22333
855.256	22181
855.39	22341
855.524	22481
855.658	22421
855.792	22421
855.926	22409
856.06	22459
856.194	22489
856.327	22462
856.461	22299
856.595	22226
856.729	22447
856.862	22455
856.996	22219
857.13	22451
857.263	22462
857.397	22485
857.53	22489
857.664	22432
857.797	22405
857.931	22459
858.064	22322
858.197	22596
858.331	22314
858.464	22272
858.597	22405
858.731	22390
858.864	22440
858.997	22375
859.13	22291
859.263	22497
859.396	22523
859.529	22314
859.662	22169
859.795	22295
859.928	22428
860.061	22516
860.194	22626
860.327	22337
860.46	22398
860.592	22497
860.725	22531
860.858	22554
860.99	22512
861.123	22257
861.256	22226
861.388	22363
861.521	23128
861.653	22131
861.786	22192
861.918	22120
862.05	22257
862.183	22268
862.315	22344
862.447	22421
862.58	22223
862.712	22021
862.844	22006
862.976	22143
863.108	22067
863.24	22596
863.372	22032
863.504	22078
863.636	22196
863.768	22139
863.9	22185
864.032	21960
864.164	22044
864.296	22116
864.428	22200
864.559	22196
864.691	22169
864.823	22006
864.954	22067
865.086	22055
865.217	21994
865.349	21816
865.48	22010
865.612	21888
865.743	22185
865.875	21926
866.006	22006
866.137	21972
866.269	21987
866.4	21945
866.531	21915
866.662	21880
866.793	21975
866.924	21823
867.055	21911
867.186	21854
867.317	21926
867.448	21766
867.579	21774
867.71	21774
867.841	21892
867.972	21937
868.103	21968
868.233	21865
868.364	21854
868.495	22029
868.625	22139
868.756	22188
868.886	22147
869.017	22116
869.147	22169
869.278	22131
869.408	22173
869.539	22086
869.669	22154
869.799	22166
869.929	22295
870.06	22207
870.19	22516
870.32	22485
870.45	22440
870.58	22519
870.71	22569
870.84	22584
870.97	22470
871.1	22519
871.23	22679
871.36	22694
871.489	22626
871.619	22622
871.749	22805
871.879	22835
872.008	22805
872.138	22626
872.267	22752
872.397	22462
872.526	22535
872.656	22615
872.785	22557
872.915	22847
873.044	22854
873.173	22675
873.303	22828
873.432	22900
873.561	22892
873.69	22740
873.819	22733
873.948	22858
874.077	22801
874.206	22706
874.335	22843
874.464	22809
874.593	23052
874.722	22900
874.851	22972
874.979	22930
875.108	23048
875.237	22938
875.365	22881
875.494	22961
875.623	23044
875.751	22892
875.88	22976
876.008	23178
876.136	23189
876.265	23288
876.393	23551
876.521	23444
876.65	23551
876.778	23284
876.906	23181
877.034	23368
877.162	23330
877.29	23212
877.418	23356
877.546	23330
877.674	23398
877.802	23341
877.93	23239
878.058	23170
878.185	23113
878.313	23288
878.441	23227
878.568	23094
878.696	23220
878.824	23235
878.951	23478
879.079	23539
879.206	23581
879.333	23512
879.461	23379
879.588	23360
879.715	23512
879.842	23604
879.97	23436
880.097	23071
880.224	23083
880.351	23181
880.478	23216
880.605	23048
880.732	23060
880.859	23448
880.986	23193
881.112	23170
881.239	22953
881.366	22824
881.493	22733
881.619	22531
881.746	22641
881.872	22611
881.999	22634
882.125	22645
882.252	22790
882.378	22626
882.505	22889
882.631	22485
882.757	22390
882.883	22360
883.01	22402
883.136	22424
883.262	22177
883.388	22272
883.514	22409
883.64	22371
883.766	22242
883.892	22173
884.018	22185
884.143	22424
884.269	22333
884.395	22112
884.52	22074
884.646	22116
884.772	21960
884.897	21850
885.023	22017
885.148	22051
885.274	22173
885.399	22139
885.524	22074
885.65	22067
885.775	22044
885.9	21937
886.025	22112
886.15	21987
886.275	21972
886.4	21899
886.525	21991
886.65	21956
886.775	21945
886.9	22048
887.025	22238
887.149	21907
887.274	21819
887.399	21797
887.523	21762
887.648	21641
887.773	21629
887.897	21800
888.021	21778
888.146	21648
888.27	21861
888.395	21949
888.519	21667
888.643	21762
888.767	21812
888.891	21698
889.015	21549
889.139	21644
889.263	21549
889.387	21641
889.511	21701
889.635	21606
889.759	21591
889.883	21515
890.006	21701
890.13	21656
890.254	21519
890.377	21386
890.501	21355
890.624	21302
890.748	21272
890.871	21336
890.995	21218
891.118	21058
891.241	21176
891.364	21199
891.488	21340
891.611	21039
891.734	21184
891.857	21207
891.98	21165
892.103	21089
892.226	21169
892.349	21017
892.471	20956
892.594	20986
892.717	21119
892.839	20952
892.962	20937
893.085	20982
893.207	20963
893.33	20830
893.452	20929
893.575	21062
893.697	20990
893.819	21024
893.941	21302
894.064	21123
894.186	20921
894.308	21032
894.43	21150
894.552	21142
894.674	21150
894.796	20823
894.918	21039
895.04	20895
895.161	21039
895.283	20994
895.405	20773
895.526	20994
895.648	21009
895.769	20952
895.891	20944
896.012	21043
896.134	20914
896.255	20948
896.376	20883
896.498	21013
896.619	20956
896.74	20948
896.861	20960
896.982	21230
897.103	21348
897.224	21138
897.345	21180
897.466	21176
897.587	21157
897.708	21439
897.828	21222
897.949	21188
898.07	20979
898.19	21074
898.311	21306
898.431	20967
898.552	21256
898.672	21249
898.792	21260
898.913	21195
899.033	21047
899.153	21039
899.273	20792
899.393	20826
899.513	20944
899.633	20899
899.753	20963
899.873	20777
899.993	20910
900.113	20899
900.232	20838
900.352	20838
900.472	20804
900.591	20708
900.711	20800
900.83	20617
900.95	20785
901.069	20781
901.189	20492
901.308	20294
901.427	20161
901.546	20301
901.665	20202
901.784	20237
901.904	20130
902.023	19959
902.141	19887
902.26	19613
902.379	19902
902.498	19639
902.617	19742
902.735	19685
902.854	19723
902.973	19643
903.091	19518
903.21	19415
903.328	19449
903.446	19365
903.565	19240
903.683	19232
903.801	19160
903.919	19183
904.038	19183
904.156	19015
904.274	19053
904.392	18947
904.51	18890
904.627	18977
904.745	18981
904.863	18958
904.981	18730
905.098	18669
905.216	18700
905.334	18719
905.451	18681
905.569	18574
905.686	18741
905.803	18635
905.921	18391
906.038	18593
906.155	18456
906.272	18254
906.389	18258
906.506	18148
906.623	18182
906.74	18072
906.857	18022
906.974	17984
907.091	18216
907.208	18296
907.324	18273
907.441	18076
907.557	17863
907.674	17756
907.79	17779
907.907	17935
908.023	17836
908.139	17859
908.256	17786
908.372	17828
908.488	17722
908.604	17630
908.72	17444
908.836	17596
908.952	17417
909.068	17551
909.184	17741
909.3	17532
909.415	17619
909.531	17630
909.647	17326
909.762	17372
909.878	17376
909.993	17356
910.108	17223
910.224	17258
910.339	17185
910.454	17117
910.57	17155
910.685	17018
910.8	17356
910.915	17227
911.03	17090
911.145	16919
911.259	16869
911.374	16915
911.489	16755
911.604	16797
911.718	16634
911.833	16500
911.947	16409
912.062	16569
912.176	16656
912.291	16554
912.405	16618
912.519	16908
912.633	16706
912.748	16717
912.862	16531
912.976	16440
913.09	16325
913.204	16409
913.318	16489
913.431	16462
913.545	16542
913.659	16554
913.772	16432
913.886	16333
914	16226
914.113	16402
914.226	16348
914.34	16348
914.453	16158
914.566	16246
914.68	16025
914.793	16002
914.906	15876
915.019	15781
915.132	15823
915.245	15850
915.358	15865
915.47	15869
915.583	15873
915.696	15854
915.809	15953
915.921	15915
916.034	15747
916.146	15774
916.259	15724
916.371	15865
916.483	15728
916.595	15728
916.708	15648
916.82	15599
916.932	15690
917.044	15576
917.156	15580
917.268	15424
917.38	15542
917.491	15481
917.603	15458
917.715	15599
917.826	15580
917.938	15302
918.049	15317
918.161	15355
918.272	15519
918.384	15515
918.495	15374
918.606	15268
918.717	15199
918.828	15279
918.939	15211
919.05	15089
919.161	15154
919.272	14963
919.383	15104
919.494	15252
919.604	15386
919.715	15268
919.826	15017
919.936	15055
920.047	15146
920.157	15203
920.267	15344
920.378	15184
920.488	15123
920.598	15355
920.708	15401
920.818	15237
920.928	15169
921.038	15393
921.148	15329
921.258	15161
921.368	15135
921.477	14941
921.587	14895
921.697	14758
921.806	14891
921.916	14769
922.025	14507
922.134	14568
922.244	14583
922.353	14590
922.462	14370
922.571	14309
922.68	14252
922.789	14126
922.898	14191
923.007	14020
923.116	14199
923.224	14145
923.333	14218
923.442	14103
923.55	13978
923.659	13989
923.767	14084
923.876	13925
923.984	14039
924.092	13811
924.201	13932
924.309	13928
924.417	13959
924.525	13841
924.633	13837
924.741	14678
924.849	13677
924.956	13708
925.064	13605
925.172	13624
925.279	13578
925.387	13563
925.494	13548
925.602	13666
925.709	13647
925.816	13438
925.924	13483
926.031	13575
926.138	13358
926.245	13483
926.352	13403
926.459	13472
926.566	13601
926.673	13430
926.779	13301
926.886	13316
926.993	13057
927.099	13114
927.206	13008
927.312	13042
927.419	13129
927.525	13129
927.631	13099
927.737	12943
927.843	12932
927.95	12753
928.056	12810
928.162	12954
928.267	12882
928.373	13377
928.479	12951
928.585	12719
928.69	12875
928.796	12913
928.901	12722
929.007	12578
929.112	12757
929.218	12738
929.323	12620
929.428	12627
929.533	12734
929.638	12509
929.743	12498
929.848	12544
929.953	12540
930.058	12422
930.163	12296
930.267	12243
930.372	12437
930.477	12338
930.581	12433
930.685	12315
930.79	12232
930.894	12117
930.998	12148
931.103	12239
931.207	11935
931.311	11786
931.415	11737
931.519	11604
931.623	11501
