Data from test_V78500241_1806.txt Node
Date: Fri Mar 25 15:54:18 CST 2022
User: usil
Spectrometer: V785-0024
Trigger mode: 0
Integration Time (sec): 4.000000E-1
Scans to average: 1
Nonlinearity correction enabled: false
Boxcar width: 0
Storing dark spectrum: false
XAxis mode: Wavelengths
Number of Pixels in Spectrum: 1024
>>>>>Begin Spectral Data<<<<<
801.071	28733
801.214	28584
801.356	28375
801.499	28306
801.641	28200
801.783	28322
801.926	28398
802.068	28272
802.211	28219
802.353	28158
802.496	28059
802.638	27964
802.78	27869
802.923	27797
803.065	27724
803.208	28059
803.35	27994
803.492	28166
803.635	28158
803.777	28082
803.919	28219
804.061	28531
804.204	28093
804.346	28265
804.488	28036
804.63	28246
804.773	28135
804.915	28337
805.057	28337
805.199	28188
805.341	28424
805.483	28314
805.626	28504
805.768	28287
805.91	28287
806.052	28367
806.194	28379
806.336	28599
806.478	28466
806.62	28394
806.762	28546
806.904	28721
807.046	28908
807.188	28923
807.33	28877
807.472	28942
807.614	28759
807.756	28702
807.898	28752
808.04	28698
808.182	28611
808.324	28717
808.465	28599
808.607	28881
808.749	29048
808.891	29025
809.033	29189
809.174	29200
809.316	29102
809.458	29056
809.6	29037
809.741	28980
809.883	29117
810.025	29292
810.166	29539
810.308	29433
810.45	29227
810.591	29334
810.733	29025
810.875	29094
811.016	28927
811.158	29033
811.299	29197
811.441	29105
811.582	29273
811.724	29132
811.865	29025
812.007	29079
812.148	29041
812.29	29200
812.431	29113
812.573	29417
812.714	29634
812.855	29680
812.997	29676
813.138	29794
813.279	29691
813.421	29592
813.562	29630
813.703	29349
813.845	29181
813.986	29071
814.127	28904
814.268	28672
814.41	28831
814.551	28637
814.692	28923
814.833	28774
814.974	28744
815.115	28774
815.256	28592
815.397	28710
815.539	28828
815.68	28656
815.821	28470
815.962	28557
816.103	28664
816.244	28531
816.385	28459
816.526	28341
816.666	28223
816.807	27937
816.948	28029
817.089	28051
817.23	28147
817.371	28074
817.512	28017
817.653	27953
817.793	28048
817.934	28143
818.075	28055
818.216	28048
818.356	28051
818.497	27892
818.638	27827
818.778	27983
818.919	27888
819.06	27964
819.2	27972
819.341	28017
819.481	28051
819.622	28162
819.762	28531
819.903	28363
820.043	28291
820.184	28280
820.324	28166
820.465	28215
820.605	28246
820.746	28173
820.886	28048
821.026	28128
821.167	28097
821.307	28295
821.447	28097
821.588	27873
821.728	27857
821.868	27781
822.008	27557
822.149	27488
822.289	27488
822.429	27359
822.569	27272
822.709	27192
822.849	26979
822.99	27154
823.13	27066
823.27	27081
823.41	26880
823.55	26811
823.69	27051
823.83	26819
823.97	26883
824.11	26697
824.25	26663
824.389	26674
824.529	26781
824.669	26746
824.809	26804
824.949	26895
825.089	26792
825.228	26720
825.368	26522
825.508	26686
825.648	26640
825.787	26651
825.927	26583
826.067	26579
826.206	26594
826.346	26575
826.485	26598
826.625	26564
826.765	26575
826.904	26590
827.044	26347
827.183	26301
827.323	26427
827.462	26412
827.601	26408
827.741	26332
827.88	26423
828.02	26267
828.159	26244
828.298	26415
828.437	26362
828.577	26225
828.716	26465
828.855	26259
828.994	25989
829.134	26020
829.273	26084
829.412	25879
829.551	26050
829.69	25940
829.829	26077
829.968	26077
830.107	26043
830.246	25909
830.385	25963
830.524	25955
830.663	25868
830.802	25765
830.941	25590
831.08	25658
831.219	25723
831.357	25563
831.496	25833
831.635	25624
831.774	25411
831.913	25514
832.051	25457
832.19	25301
832.329	25449
832.467	25339
832.606	25179
832.744	25255
832.883	25251
833.022	25240
833.16	25217
833.299	25259
833.437	25194
833.576	25362
833.714	25362
833.852	25343
833.991	25384
834.129	25453
834.267	25441
834.406	25251
834.544	25289
834.682	25350
834.821	25225
834.959	25487
835.097	25179
835.235	25445
835.373	25236
835.511	25285
835.65	25225
835.788	25156
835.926	25099
836.064	24894
836.202	25137
836.34	25179
836.478	25225
836.615	25050
836.753	25213
836.891	25198
837.029	25175
837.167	25133
837.305	24924
837.443	24920
837.58	24894
837.718	25027
837.856	24970
837.993	24939
838.131	24882
838.269	24966
838.406	24875
838.544	24749
838.681	24692
838.819	24601
838.956	24342
839.094	24391
839.231	24467
839.369	24669
839.506	24833
839.643	24711
839.781	24479
839.918	24452
840.055	24623
840.193	24410
840.33	24350
840.467	24429
840.604	24475
840.742	24623
840.879	24224
841.016	24159
841.153	24167
841.29	24414
841.427	24224
841.564	24376
841.701	24445
841.838	24296
841.975	24266
842.112	24285
842.249	24163
842.385	24163
842.522	24323
842.659	24144
842.796	24163
842.933	24003
843.069	24030
843.206	24091
843.343	24106
843.479	24167
843.616	23977
843.752	23855
843.889	23904
844.025	24034
844.162	23832
844.298	23901
844.435	23969
844.571	23942
844.708	23901
844.844	24015
844.98	23950
845.117	23885
845.253	23836
845.389	23779
845.525	23756
845.661	23581
845.798	23596
845.934	23509
846.07	23577
846.206	23592
846.342	23691
846.478	23570
846.614	23493
846.75	23288
846.886	23269
847.022	23398
847.158	23364
847.294	23303
847.429	23360
847.565	23372
847.701	23535
847.837	22991
847.972	23014
848.108	23071
848.244	23136
848.379	22957
848.515	22809
848.65	22961
848.786	22961
848.921	22949
849.057	22957
849.192	23010
849.328	22915
849.463	22839
849.598	22759
849.734	22828
849.869	22748
850.004	22649
850.14	22683
850.275	22538
850.41	22713
850.545	22611
850.68	22569
850.815	22771
850.95	22733
851.085	22850
851.22	22744
851.355	22626
851.49	22725
851.625	22683
851.76	22577
851.895	22645
852.03	22653
852.165	22634
852.299	22675
852.434	22782
852.569	22672
852.703	22702
852.838	22835
852.973	22790
853.107	22843
853.242	22596
853.376	22535
853.511	22421
853.645	22447
853.78	22672
853.914	22519
854.048	22440
854.183	22451
854.317	22428
854.451	22637
854.585	22508
854.72	22485
854.854	22550
854.988	22333
855.122	22489
855.256	22413
855.39	22428
855.524	22516
855.658	22546
855.792	22577
855.926	22424
856.06	22489
856.194	22603
856.327	22375
856.461	22363
856.595	22440
856.729	22478
856.862	22504
856.996	22504
857.13	22500
857.263	22626
857.397	22626
857.53	22485
857.664	22478
857.797	22580
857.931	22615
858.064	22489
858.197	22497
858.331	22451
858.464	22493
858.597	22470
858.731	22432
858.864	22409
858.997	22478
859.13	22424
859.263	22527
859.396	22523
859.529	22481
859.662	22451
859.795	22440
859.928	22363
860.061	22523
860.194	22664
860.327	22588
860.46	22493
860.592	22542
860.725	22637
860.858	22580
860.99	22527
861.123	22394
861.256	22470
861.388	22637
861.521	23159
861.653	22337
861.786	22246
861.918	22428
862.05	22379
862.183	22333
862.315	22386
862.447	22402
862.58	22367
862.712	22105
862.844	22090
862.976	22238
863.108	22204
863.24	22698
863.372	22063
863.504	22124
863.636	22120
863.768	22223
863.9	22257
864.032	22173
864.164	22086
864.296	22158
864.428	22352
864.559	22306
864.691	22314
864.823	22276
864.954	22139
865.086	22181
865.217	22097
865.349	21949
865.48	22196
865.612	22158
865.743	22158
865.875	22074
866.006	21994
866.137	22147
866.269	22112
866.4	22032
866.531	22025
866.662	22032
866.793	22006
866.924	22017
867.055	22086
867.186	22006
867.317	22032
867.448	21960
867.579	21991
867.71	21804
867.841	21983
867.972	21979
868.103	21838
868.233	21991
868.364	21991
868.495	22181
868.625	22230
868.756	22409
868.886	22173
869.017	22059
869.147	22223
869.278	22306
869.408	22223
869.539	22261
869.669	22291
869.799	22192
869.929	22329
870.06	22344
870.19	22470
870.32	22531
870.45	22641
870.58	22573
870.71	22717
870.84	22816
870.97	22622
871.1	22740
871.23	22816
871.36	22889
871.489	22706
871.619	22816
871.749	22774
871.879	22797
872.008	22961
872.138	22790
872.267	22885
872.397	22683
872.526	22679
872.656	22679
872.785	22622
872.915	22812
873.044	22900
873.173	22980
873.303	22889
873.432	22976
873.561	22942
873.69	22889
873.819	22896
873.948	22900
874.077	22877
874.206	22812
874.335	22843
874.464	22965
874.593	23132
874.722	23136
874.851	23067
874.979	23102
875.108	23086
875.237	23067
875.365	22923
875.494	22984
875.623	23128
875.751	22957
875.88	22961
876.008	23242
876.136	23200
876.265	23459
876.393	23535
876.521	23535
876.65	23547
876.778	23429
876.906	23391
877.034	23414
877.162	23402
877.29	23239
877.418	23395
877.546	23505
877.674	23482
877.802	23258
877.93	23387
878.058	23318
878.185	23284
878.313	23395
878.441	23364
878.568	23364
878.696	23208
878.824	23467
878.951	23387
879.079	23653
879.206	23760
879.333	23634
879.461	23429
879.588	23543
879.715	23676
879.842	23657
879.97	23440
880.097	23166
880.224	23239
880.351	23353
880.478	23193
880.605	23174
880.732	23235
880.859	23273
880.986	23273
881.112	23212
881.239	23037
881.366	22976
881.493	22949
881.619	22847
881.746	22763
881.872	22797
881.999	22793
882.125	22664
882.252	22885
882.378	22835
882.505	22900
882.631	22645
882.757	22516
882.883	22519
883.01	22474
883.136	22356
883.262	22284
883.388	22314
883.514	22428
883.64	22478
883.766	22226
883.892	22116
884.018	22234
884.143	22474
884.269	22379
884.395	22196
884.52	21911
884.646	22303
884.772	22139
884.897	21991
885.023	22082
885.148	22128
885.274	22249
885.399	22265
885.524	22044
885.65	22074
885.775	22082
885.9	22013
886.025	22207
886.15	22223
886.275	22105
886.4	21991
886.525	22101
886.65	22013
886.775	21975
886.9	22177
887.025	22261
887.149	21960
887.274	21903
887.399	21857
887.523	21994
887.648	21926
887.773	21816
887.897	21983
888.021	21937
888.146	21800
888.27	22021
888.395	21998
888.519	21861
888.643	21922
888.767	21751
888.891	21751
889.015	21709
889.139	21739
889.263	21583
889.387	21713
889.511	21838
889.635	21857
889.759	21629
889.883	21599
890.006	21743
890.13	21705
890.254	21629
890.377	21641
890.501	21321
890.624	21408
890.748	21511
890.871	21192
890.995	21226
891.118	21161
891.241	21226
891.364	21214
891.488	21355
891.611	21165
891.734	21127
891.857	21336
891.98	21169
892.103	21157
892.226	21176
892.349	21070
892.471	20986
892.594	21207
892.717	21222
892.839	21036
892.962	21062
893.085	21096
893.207	21135
893.33	20979
893.452	20948
893.575	21051
893.697	21047
893.819	21116
893.941	21298
894.064	21207
894.186	21005
894.308	20967
894.43	21222
894.552	21199
894.674	21203
894.796	20914
894.918	20960
895.04	21058
895.161	21123
895.283	21089
895.405	21047
895.526	21017
895.648	21112
895.769	21146
895.891	21157
896.012	21135
896.134	21138
896.255	21055
896.376	20941
896.498	21131
896.619	21142
896.74	21089
896.861	21157
896.982	21382
897.103	21526
897.224	21466
897.345	21233
897.466	21218
897.587	21233
897.708	21363
897.828	21237
897.949	21249
898.07	21070
898.19	21154
898.311	21408
898.431	21256
898.552	21287
898.672	21344
898.792	21355
898.913	21222
899.033	21081
899.153	21081
899.273	20971
899.393	20937
899.513	21093
899.633	20918
899.753	20975
899.873	20914
899.993	21074
900.113	20982
900.232	21024
900.352	20872
900.472	20861
900.591	20735
900.711	20876
900.83	20727
900.95	20880
901.069	20811
901.189	20708
901.308	20419
901.427	20271
901.546	20290
901.665	20381
901.784	20347
901.904	20195
902.023	20172
902.141	19879
902.26	19879
902.379	19822
902.498	19719
902.617	19750
902.735	19841
902.854	19807
902.973	19693
903.091	19533
903.21	19457
903.328	19578
903.446	19499
903.565	19240
903.683	19362
903.801	19137
903.919	19107
904.038	19339
904.156	19152
904.274	19031
904.392	19088
904.51	19076
904.627	18993
904.745	19034
904.863	19118
904.981	18958
905.098	18703
905.216	18741
905.334	18658
905.451	18734
905.569	18696
905.686	18783
905.803	18684
905.921	18540
906.038	18544
906.155	18563
906.272	18388
906.389	18410
906.506	18273
906.623	18232
906.74	18140
906.857	18262
906.974	18239
907.091	18300
907.208	18220
907.324	18213
907.441	18159
907.557	18015
907.674	17939
907.79	17840
907.907	17885
908.023	17939
908.139	18026
908.256	17863
908.372	17809
908.488	17764
908.604	17714
908.72	17642
908.836	17707
908.952	17638
909.068	17604
909.184	17805
909.3	17699
909.415	17699
909.531	17691
909.647	17383
909.762	17452
909.878	17376
909.993	17429
910.108	17299
910.224	17296
910.339	17368
910.454	17288
910.57	17079
910.685	17105
910.8	17292
910.915	17330
911.03	17136
911.145	16953
911.259	16919
911.374	17048
911.489	16881
911.604	16866
911.718	16713
911.833	16717
911.947	16748
912.062	16489
912.176	16675
912.291	16668
912.405	16675
912.519	16843
912.633	16961
912.748	16660
912.862	16569
912.976	16516
913.09	16375
913.204	16417
913.318	16512
913.431	16542
913.545	16504
913.659	16500
913.772	16344
913.886	16284
914	16306
914.113	16337
914.226	16363
914.34	16215
914.453	16200
914.566	16379
914.68	16226
914.793	16093
914.906	15907
915.019	15835
915.132	15804
915.245	15770
915.358	15888
915.47	15808
915.583	15842
915.696	15835
915.809	15926
915.921	15975
916.034	15774
916.146	15759
916.259	15667
916.371	15827
916.483	15781
916.595	15759
916.708	15690
916.82	15690
916.932	15679
917.044	15633
917.156	15553
917.268	15443
917.38	15576
917.491	15359
917.603	15504
917.715	15561
917.826	15557
917.938	15408
918.049	15336
918.161	15443
918.272	15557
918.384	15507
918.495	15488
918.606	15302
918.717	15264
918.828	15138
918.939	15367
919.05	15135
919.161	15180
919.272	15032
919.383	15039
919.494	15264
919.604	15370
919.715	15154
919.826	15108
919.936	15154
920.047	15313
920.157	15154
920.267	15313
920.378	15268
920.488	15100
920.598	15359
920.708	15447
920.818	15317
920.928	15233
921.038	15485
921.148	15443
921.258	15119
921.368	15093
921.477	14899
921.587	14963
921.697	14762
921.806	14933
921.916	14762
922.025	14625
922.134	14560
922.244	14423
922.353	14613
922.462	14385
922.571	14324
922.68	14233
922.789	14161
922.898	14153
923.007	14115
923.116	14248
923.224	14130
923.333	14199
923.442	14050
923.55	13959
923.659	14024
923.767	13982
923.876	13947
923.984	13902
924.092	13944
924.201	13849
924.309	13890
924.417	13887
924.525	13734
924.633	13830
924.741	14602
924.849	13605
924.956	13742
925.064	13575
925.172	13529
925.279	13460
925.387	13521
925.494	13575
925.602	13525
925.709	13567
925.816	13449
925.924	13468
926.031	13514
926.138	13491
926.245	13487
926.352	13373
926.459	13540
926.566	13567
926.673	13426
926.779	13232
926.886	13293
926.993	13084
927.099	13149
927.206	13034
927.312	13031
927.419	13149
927.525	12966
927.631	13057
927.737	13012
927.843	12867
927.95	12829
928.056	12837
928.162	12916
928.267	12920
928.373	13544
928.479	13084
928.585	12738
928.69	12772
928.796	12867
928.901	12795
929.007	12616
929.112	12795
929.218	12776
929.323	12639
929.428	12620
929.533	12677
929.638	12570
929.743	12623
929.848	12582
929.953	12551
930.058	12464
930.163	12338
930.267	12258
930.372	12410
930.477	12186
930.581	12460
930.685	12308
930.79	12095
930.894	12262
930.998	12102
931.103	12209
931.207	11859
931.311	11847
931.415	11756
931.519	11551
931.623	11520
