Data from test_V78500241_3615.txt Node
Date: Fri Mar 25 16:06:50 CST 2022
User: usil
Spectrometer: V785-0024
Trigger mode: 0
Integration Time (sec): 4.000000E-1
Scans to average: 1
Nonlinearity correction enabled: false
Boxcar width: 0
Storing dark spectrum: false
XAxis mode: Wavelengths
Number of Pixels in Spectrum: 1024
>>>>>Begin Spectral Data<<<<<
801.071	28736
801.214	28752
801.356	28398
801.499	28428
801.641	28287
801.783	28314
801.926	28466
802.068	28436
802.211	28284
802.353	28310
802.496	28219
802.638	27975
802.78	28090
802.923	27819
803.065	27819
803.208	27895
803.35	28055
803.492	28166
803.635	28173
803.777	28135
803.919	28219
804.061	28535
804.204	28432
804.346	28124
804.488	28120
804.63	28352
804.773	28131
804.915	28356
805.057	28424
805.199	28329
805.341	28284
805.483	28535
805.626	28584
805.768	28401
805.91	28447
806.052	28424
806.194	28428
806.336	28538
806.478	28470
806.62	28569
806.762	28535
806.904	28782
807.046	29071
807.188	29006
807.33	28858
807.472	28942
807.614	28862
807.756	28755
807.898	28755
808.04	28717
808.182	28664
808.324	28729
808.465	28782
808.607	29090
808.749	29117
808.891	29231
809.033	29303
809.174	29212
809.316	29143
809.458	29170
809.6	29113
809.741	29094
809.883	29277
810.025	29448
810.166	29258
810.308	29265
810.45	29391
810.591	29433
810.733	29102
810.875	29105
811.016	29140
811.158	29204
811.299	29075
811.441	29254
811.582	29261
811.724	29075
811.865	29155
812.007	29220
812.148	29227
812.29	29216
812.431	29375
812.573	29452
812.714	29672
812.855	29520
812.997	29802
813.138	29859
813.279	29680
813.421	29646
813.562	29627
813.703	29387
813.845	29486
813.986	29071
814.127	28946
814.268	28904
814.41	28946
814.551	28850
814.692	28923
814.833	28816
814.974	28850
815.115	29014
815.256	28725
815.397	28767
815.539	28725
815.68	28618
815.821	28592
815.962	28835
816.103	28702
816.244	28531
816.385	28455
816.526	28424
816.666	28200
816.807	28093
816.948	28226
817.089	28341
817.23	28158
817.371	28219
817.512	28150
817.653	28128
817.793	28109
817.934	28143
818.075	28188
818.216	28249
818.356	28124
818.497	27987
818.638	27838
818.778	27880
818.919	28010
819.06	27987
819.2	28029
819.341	28215
819.481	28162
819.622	28394
819.762	28645
819.903	28512
820.043	28394
820.184	28272
820.324	28382
820.465	28436
820.605	28382
820.746	28325
820.886	28154
821.026	28223
821.167	28284
821.307	28200
821.447	28310
821.588	27979
821.728	28044
821.868	27888
822.008	27629
822.149	27622
822.289	27648
822.429	27401
822.569	27230
822.709	27351
822.849	27089
822.99	27157
823.13	27157
823.27	27214
823.41	27028
823.55	26929
823.69	27127
823.83	26963
823.97	26906
824.11	26746
824.25	26777
824.389	26777
824.529	26933
824.669	26693
824.809	26853
824.949	26876
825.089	26956
825.228	26708
825.368	26552
825.508	26857
825.648	26819
825.787	26788
825.927	26743
826.067	26678
826.206	26659
826.346	26819
826.485	26697
826.625	26735
826.765	26849
826.904	26750
827.044	26495
827.183	26575
827.323	26419
827.462	26461
827.601	26461
827.741	26492
827.88	26423
828.02	26427
828.159	26408
828.298	26320
828.437	26438
828.577	26499
828.716	26533
828.855	26328
828.994	26092
829.134	26161
829.273	26240
829.412	26126
829.551	25978
829.69	26027
829.829	26134
829.968	26149
830.107	26062
830.246	26259
830.385	26122
830.524	25970
830.663	25875
830.802	25944
830.941	25658
831.08	25655
831.219	25841
831.357	25727
831.496	25909
831.635	25708
831.774	25639
831.913	25483
832.051	25495
832.19	25495
832.329	25540
832.467	25476
832.606	25373
832.744	25331
832.883	25384
833.022	25362
833.16	25438
833.299	25381
833.437	25396
833.576	25510
833.714	25403
833.852	25556
833.991	25620
834.129	25719
834.267	25529
834.406	25415
834.544	25472
834.682	25449
834.821	25308
834.959	25544
835.097	25479
835.235	25434
835.373	25392
835.511	25468
835.65	25293
835.788	25304
835.926	25232
836.064	25126
836.202	25061
836.34	25293
836.478	25343
836.615	25278
836.753	25259
836.891	25381
837.029	25381
837.167	25183
837.305	25217
837.443	25183
837.58	25152
837.718	25164
837.856	25221
837.993	25091
838.131	25072
838.269	24947
838.406	25004
838.544	24916
838.681	24719
838.819	24745
838.956	24555
839.094	24574
839.231	24627
839.369	24924
839.506	24749
839.643	24726
839.781	24589
839.918	24407
840.055	24547
840.193	24399
840.33	24563
840.467	24388
840.604	24673
840.742	24665
840.879	24426
841.016	24395
841.153	24460
841.29	24566
841.427	24448
841.564	24452
841.701	24441
841.838	24429
841.975	24315
842.112	24456
842.249	24323
842.385	24281
842.522	24452
842.659	24273
842.796	24262
842.933	24148
843.069	24106
843.206	24205
843.343	24262
843.479	24205
843.616	24258
843.752	24060
843.889	23996
844.025	24034
844.162	23939
844.298	24133
844.435	23870
844.571	23969
844.708	24110
844.844	24251
844.98	24148
845.117	23980
845.253	23901
845.389	23843
845.525	23961
845.661	23805
845.798	23707
845.934	23802
846.07	23843
846.206	23813
846.342	23889
846.478	23699
846.614	23429
846.75	23455
846.886	23368
847.022	23421
847.158	23570
847.294	23421
847.429	23528
847.565	23452
847.701	23722
847.837	23212
847.972	23212
848.108	23235
848.244	23349
848.379	23037
848.515	23105
848.65	22927
848.786	23105
848.921	23029
849.057	23113
849.192	23216
849.328	23079
849.463	23022
849.598	22984
849.734	22900
849.869	22908
850.004	22915
850.14	22938
850.275	22866
850.41	22694
850.545	22809
850.68	22854
850.815	22793
850.95	22763
851.085	22927
851.22	22942
851.355	22850
851.49	22778
851.625	22793
851.76	22660
851.895	22615
852.03	22725
852.165	22809
852.299	22831
852.434	22858
852.569	22869
852.703	22927
852.838	22869
852.973	22866
853.107	22911
853.242	22691
853.376	22615
853.511	22497
853.645	22611
853.78	22748
853.914	22653
854.048	22569
854.183	22546
854.317	22653
854.451	22854
854.585	22637
854.72	22717
854.854	22755
854.988	22557
855.122	22634
855.256	22455
855.39	22615
855.524	22752
855.658	22611
855.792	22694
855.926	22637
856.06	22740
856.194	22672
856.327	22584
856.461	22531
856.595	22588
856.729	22519
856.862	22637
856.996	22637
857.13	22687
857.263	22668
857.397	22744
857.53	22592
857.664	22668
857.797	22679
857.931	22710
858.064	22683
858.197	22702
858.331	22516
858.464	22489
858.597	22542
858.731	22706
858.864	22565
858.997	22493
859.13	22607
859.263	22592
859.396	22752
859.529	22561
859.662	22596
859.795	22641
859.928	22713
860.061	22615
860.194	22801
860.327	22668
860.46	22774
860.592	22717
860.725	22702
860.858	22729
860.99	22607
861.123	22508
861.256	22596
861.388	22584
861.521	23242
861.653	22535
861.786	22356
861.918	22546
862.05	22573
862.183	22535
862.315	22485
862.447	22611
862.58	22519
862.712	22379
862.844	22284
862.976	22546
863.108	22386
863.24	22869
863.372	22299
863.504	22375
863.636	22421
863.768	22333
863.9	22188
864.032	22268
864.164	22265
864.296	22314
864.428	22436
864.559	22398
864.691	22394
864.823	22215
864.954	22280
865.086	22261
865.217	22257
865.349	22150
865.48	22276
865.612	22192
865.743	22310
865.875	22226
866.006	22265
866.137	22177
866.269	22215
866.4	22257
866.531	22101
866.662	22204
866.793	22070
866.924	22265
867.055	22051
867.186	22082
867.317	22112
867.448	22070
867.579	22093
867.71	22048
867.841	21941
867.972	22188
868.103	22166
868.233	22090
868.364	22109
868.495	22318
868.625	22333
868.756	22443
868.886	22344
869.017	22413
869.147	22440
869.278	22527
869.408	22466
869.539	22436
869.669	22413
869.799	22367
869.929	22428
870.06	22466
870.19	22713
870.32	22580
870.45	22683
870.58	22759
870.71	22828
870.84	22892
870.97	22759
871.1	22767
871.23	22923
871.36	22904
871.489	22930
871.619	23029
871.749	22915
871.879	22980
872.008	23121
872.138	22957
872.267	23029
872.397	22733
872.526	22839
872.656	22763
872.785	22953
872.915	22980
873.044	23117
873.173	22904
873.303	22961
873.432	23132
873.561	22957
873.69	23044
873.819	22938
873.948	23044
874.077	22953
874.206	23022
874.335	23117
874.464	23014
874.593	23246
874.722	23174
874.851	23208
874.979	23231
875.108	23273
875.237	23140
875.365	23124
875.494	23197
875.623	23288
875.751	23162
875.88	23246
876.008	23376
876.136	23330
876.265	23592
876.393	23657
876.521	23619
876.65	23577
876.778	23554
876.906	23623
877.034	23547
877.162	23604
877.29	23471
877.418	23547
877.546	23649
877.674	23562
877.802	23501
877.93	23528
878.058	23414
878.185	23520
878.313	23516
878.441	23543
878.568	23376
878.696	23463
878.824	23570
878.951	23600
879.079	23745
879.206	23863
879.333	23752
879.461	23623
879.588	23638
879.715	23866
879.842	23718
879.97	23653
880.097	23436
880.224	23326
880.351	23395
880.478	23440
880.605	23098
880.732	23337
880.859	23726
880.986	23402
881.112	23341
881.239	23254
881.366	23041
881.493	22984
881.619	22923
881.746	22866
881.872	22930
881.999	22858
882.125	22858
882.252	22927
882.378	22854
882.505	23033
882.631	22763
882.757	22641
882.883	22683
883.01	22573
883.136	22588
883.262	22516
883.388	22565
883.514	22664
883.64	22573
883.766	22493
883.892	22371
884.018	22379
884.143	22535
884.269	22626
884.395	22276
884.52	22181
884.646	22162
884.772	22090
884.897	22169
885.023	22143
885.148	22276
885.274	22230
885.399	22242
885.524	22181
885.65	22253
885.775	22272
885.9	22181
886.025	22341
886.15	22215
886.275	22166
886.4	22196
886.525	22135
886.65	22169
886.775	22177
886.9	22341
887.025	22424
887.149	22211
887.274	22124
887.399	21964
887.523	21953
887.648	22006
887.773	21838
887.897	21991
888.021	21899
888.146	21949
888.27	22074
888.395	21964
888.519	21991
888.643	21899
888.767	22097
888.891	21854
889.015	21759
889.139	21759
889.263	21793
889.387	21800
889.511	21998
889.635	21960
889.759	21686
889.883	21793
890.006	21819
890.13	21751
890.254	21781
890.377	21614
890.501	21568
890.624	21458
890.748	21557
890.871	21424
890.995	21199
891.118	21313
891.241	21249
891.364	21252
891.488	21386
891.611	21291
891.734	21397
891.857	21260
891.98	21329
892.103	21389
892.226	21260
892.349	21268
892.471	21005
892.594	21176
892.717	21230
892.839	21218
892.962	21329
893.085	21283
893.207	21199
893.33	21161
893.452	21096
893.575	21233
893.697	21138
893.819	21310
893.941	21397
894.064	21306
894.186	21093
894.308	21142
894.43	21176
894.552	21302
894.674	21184
894.796	21131
894.918	21279
895.04	21138
895.161	21207
895.283	21230
895.405	21169
895.526	21146
895.648	21161
895.769	21302
895.891	21241
896.012	21188
896.134	21146
896.255	21211
896.376	21104
896.498	21161
896.619	21287
896.74	21211
896.861	21252
896.982	21466
897.103	21591
897.224	21564
897.345	21378
897.466	21348
897.587	21317
897.708	21538
897.828	21397
897.949	21370
898.07	21161
898.19	21336
898.311	21458
898.431	21378
898.552	21389
898.672	21530
898.792	21405
898.913	21450
899.033	21138
899.153	21218
899.273	21093
899.393	21089
899.513	21058
899.633	21104
899.753	21146
899.873	21032
899.993	21104
900.113	21062
900.232	21009
900.352	21009
900.472	20982
900.591	20807
900.711	21055
900.83	20876
900.95	21058
901.069	20876
901.189	20651
901.308	20511
901.427	20427
901.546	20454
901.665	20404
901.784	20480
901.904	20355
902.023	20233
902.141	20187
902.26	19936
902.379	20035
902.498	20001
902.617	19875
902.735	20005
902.854	19947
902.973	19894
903.091	19632
903.21	19578
903.328	19658
903.446	19472
903.565	19502
903.683	19320
903.801	19285
903.919	19331
904.038	19419
904.156	19213
904.274	19164
904.392	19183
904.51	19122
904.627	19255
904.745	19266
904.863	19251
904.981	18928
905.098	18779
905.216	18791
905.334	18920
905.451	18810
905.569	18909
905.686	18871
905.803	18905
905.921	18646
906.038	18726
906.155	18585
906.272	18597
906.389	18498
906.506	18315
906.623	18464
906.74	18407
906.857	18258
906.974	18201
907.091	18399
907.208	18471
907.324	18342
907.441	18220
907.557	18053
907.674	18136
907.79	18003
907.907	18015
908.023	18015
908.139	18072
908.256	17961
908.372	18045
908.488	17950
908.604	17794
908.72	17737
908.836	17714
908.952	17775
909.068	17737
909.184	17828
909.3	17855
909.415	17882
909.531	17695
909.647	17509
909.762	17414
909.878	17463
909.993	17440
910.108	17410
910.224	17452
910.339	17440
910.454	17292
910.57	17356
910.685	17162
910.8	17509
910.915	17486
911.03	17242
911.145	16991
911.259	17003
911.374	17090
911.489	16911
911.604	16915
911.718	16805
911.833	16896
911.947	16656
912.062	16683
912.176	16744
912.291	16733
912.405	16828
912.519	16900
912.633	16961
912.748	16774
912.862	16729
912.976	16660
913.09	16660
913.204	16588
913.318	16698
913.431	16744
913.545	16538
913.659	16607
913.772	16535
913.886	16386
914	16352
914.113	16428
914.226	16405
914.34	16542
914.453	16291
914.566	16333
914.68	16162
914.793	16249
914.906	16010
915.019	15949
915.132	15846
915.245	15892
915.358	16025
915.47	15949
915.583	15994
915.696	15953
915.809	16051
915.921	16055
916.034	15842
916.146	15903
916.259	15804
916.371	15975
916.483	15956
916.595	15694
916.708	15713
916.82	15789
916.932	15838
917.044	15701
917.156	15705
917.268	15576
917.38	15644
917.491	15511
917.603	15606
917.715	15545
917.826	15660
917.938	15469
918.049	15405
918.161	15591
918.272	15629
918.384	15656
918.495	15458
918.606	15435
918.717	15332
918.828	15359
918.939	15435
919.05	15241
919.161	15222
919.272	15089
919.383	15173
919.494	15382
919.604	15466
919.715	15412
919.826	15131
919.936	15207
920.047	15302
920.157	15287
920.267	15306
920.378	15283
920.488	15138
920.598	15401
920.708	15606
920.818	15382
920.928	15355
921.038	15561
921.148	15492
921.258	15279
921.368	15104
921.477	15024
921.587	14975
921.697	14979
921.806	14952
921.916	14765
922.025	14788
922.134	14606
922.244	14522
922.353	14606
922.462	14495
922.571	14427
922.68	14301
922.789	14168
922.898	14313
923.007	14301
923.116	14286
923.224	14252
923.333	14233
923.442	14050
923.55	14107
923.659	14020
923.767	14115
923.876	13982
923.984	14027
924.092	14043
924.201	13986
924.309	13928
924.417	13967
924.525	13871
924.633	13932
924.741	14785
924.849	13719
924.956	13772
925.064	13624
925.172	13514
925.279	13636
925.387	13662
925.494	13582
925.602	13712
925.709	13769
925.816	13597
925.924	13620
926.031	13651
926.138	13586
926.245	13681
926.352	13529
926.459	13590
926.566	13727
926.673	13533
926.779	13335
926.886	13419
926.993	13274
927.099	13187
927.206	13168
927.312	13110
927.419	13198
927.525	13175
927.631	13232
927.737	12962
927.843	13042
927.95	12886
928.056	12890
928.162	13076
928.267	13038
928.373	13674
928.479	12985
928.585	12791
928.69	12932
928.796	13072
928.901	12856
929.007	12650
929.112	12749
929.218	12837
929.323	12696
929.428	12684
929.533	12776
929.638	12646
929.743	12563
929.848	12741
929.953	12509
930.058	12517
930.163	12285
930.267	12391
930.372	12502
930.477	12334
930.581	12532
930.685	12357
930.79	12262
930.894	12235
930.998	12281
931.103	12304
931.207	12019
931.311	11920
931.415	11840
931.519	11585
931.623	11649
