Data from test_V78500241_335.txt Node
Date: Fri Mar 25 15:44:07 CST 2022
User: usil
Spectrometer: V785-0024
Trigger mode: 0
Integration Time (sec): 4.000000E-1
Scans to average: 1
Nonlinearity correction enabled: false
Boxcar width: 0
Storing dark spectrum: false
XAxis mode: Wavelengths
Number of Pixels in Spectrum: 1024
>>>>>Begin Spectral Data<<<<<
801.071	29756
801.214	29760
801.356	29627
801.499	29467
801.641	29387
801.783	29368
801.926	29471
802.068	29318
802.211	29159
802.353	29132
802.496	29223
802.638	29064
802.78	29117
802.923	28866
803.065	28896
803.208	29056
803.35	28995
803.492	29147
803.635	29132
803.777	29121
803.919	29151
804.061	29375
804.204	29280
804.346	29071
804.488	29140
804.63	29216
804.773	29185
804.915	29155
805.057	29368
805.199	29246
805.341	29288
805.483	29375
805.626	29197
805.768	29299
805.91	29379
806.052	29436
806.194	29296
806.336	29497
806.478	29356
806.62	29330
806.762	29455
806.904	29516
807.046	29893
807.188	29809
807.33	29760
807.472	29828
807.614	29672
807.756	29729
807.898	29463
808.04	29570
808.182	29630
808.324	29558
808.465	29638
808.607	29737
808.749	29840
808.891	29984
809.033	30220
809.174	30041
809.316	29824
809.458	30152
809.6	29916
809.741	30106
809.883	30178
810.025	30205
810.166	30334
810.308	30174
810.45	30311
810.591	30140
810.733	29904
810.875	30110
811.016	29786
811.158	29874
811.299	30038
811.441	30167
811.582	30194
811.724	30018
811.865	29851
812.007	29999
812.148	29973
812.29	29958
812.431	30045
812.573	30216
812.714	30369
812.855	30483
812.997	30597
813.138	30726
813.279	30601
813.421	30502
813.562	30441
813.703	30334
813.845	30251
813.986	29813
814.127	29748
814.268	29596
814.41	29691
814.551	29596
814.692	29798
814.833	29604
814.974	29634
815.115	29608
815.256	29505
815.397	29444
815.539	29600
815.68	29379
815.821	29433
815.962	29524
816.103	29512
816.244	29296
816.385	29064
816.526	29178
816.666	29037
816.807	28949
816.948	29018
817.089	29052
817.23	29006
817.371	29018
817.512	28953
817.653	28930
817.793	28843
817.934	28942
818.075	29029
818.216	28949
818.356	28869
818.497	28748
818.638	28561
818.778	28580
818.919	28622
819.06	28725
819.2	28637
819.341	28972
819.481	28972
819.622	29025
819.762	29292
819.903	28991
820.043	28942
820.184	29109
820.324	29113
820.465	29044
820.605	29037
820.746	28946
820.886	28927
821.026	28968
821.167	28881
821.307	28987
821.447	28934
821.588	28778
821.728	28577
821.868	28409
822.008	28348
822.149	28253
822.289	28253
822.429	28086
822.569	28063
822.709	27838
822.849	27857
822.99	27698
823.13	27641
823.27	27789
823.41	27549
823.55	27511
823.69	27622
823.83	27561
823.97	27370
824.11	27252
824.25	27504
824.389	27386
824.529	27386
824.669	27340
824.809	27545
824.949	27488
825.089	27466
825.228	27351
825.368	27298
825.508	27195
825.648	27351
825.787	27146
825.927	27260
826.067	27302
826.206	27127
826.346	27355
826.485	27363
826.625	27306
826.765	27332
826.904	27252
827.044	26921
827.183	26929
827.323	26880
827.462	26921
827.601	26849
827.741	26826
827.88	26940
828.02	26777
828.159	26956
828.298	26887
828.437	26906
828.577	26800
828.716	26952
828.855	26929
828.994	26617
829.134	26629
829.273	26686
829.412	26530
829.551	26503
829.69	26514
829.829	26609
829.968	26712
830.107	26598
830.246	26602
830.385	26583
830.524	26370
830.663	26412
830.802	26282
830.941	26229
831.08	26195
831.219	26233
831.357	26263
831.496	26377
831.635	26187
831.774	26092
831.913	26020
832.051	25799
832.19	25997
832.329	25894
832.467	25685
832.606	25788
832.744	25727
832.883	25974
833.022	25811
833.16	25837
833.299	25940
833.437	25856
833.576	25913
833.714	25811
833.852	25845
833.991	25841
834.129	25951
834.267	25906
834.406	25944
834.544	25936
834.682	25830
834.821	25890
834.959	26012
835.097	25780
835.235	25856
835.373	25925
835.511	25719
835.65	25746
835.788	25693
835.926	25540
836.064	25449
836.202	25537
836.34	25647
836.478	25674
836.615	25578
836.753	25544
836.891	25822
837.029	25750
837.167	25620
837.305	25674
837.443	25628
837.58	25597
837.718	25468
837.856	25407
837.993	25377
838.131	25483
838.269	25426
838.406	25358
838.544	25312
838.681	25103
838.819	25004
838.956	24992
839.094	25012
839.231	24916
839.369	25198
839.506	25282
839.643	25019
839.781	24837
839.918	24802
840.055	24897
840.193	24776
840.33	24776
840.467	24844
840.604	24764
840.742	25072
840.879	24772
841.016	24863
841.153	24700
841.29	24875
841.427	24791
841.564	24825
841.701	24669
841.838	24730
841.975	24658
842.112	24608
842.249	24479
842.385	24498
842.522	24616
842.659	24715
842.796	24544
842.933	24517
843.069	24498
843.206	24448
843.343	24555
843.479	24346
843.616	24467
843.752	24228
843.889	24239
844.025	24513
844.162	24334
844.298	24224
844.435	24285
844.571	24167
844.708	24163
844.844	24437
844.98	24361
845.117	24174
845.253	24053
845.389	23984
845.525	24011
845.661	24057
845.798	23973
845.934	24045
846.07	23904
846.206	23908
846.342	24007
846.478	23828
846.614	23646
846.75	23752
846.886	23570
847.022	23638
847.158	23802
847.294	23619
847.429	23638
847.565	23562
847.701	23847
847.837	23349
847.972	23258
848.108	23600
848.244	23505
848.379	23334
848.515	23242
848.65	23090
848.786	23208
848.921	23288
849.057	23239
849.192	23311
849.328	23204
849.463	23086
849.598	23189
849.734	23067
849.869	22984
850.004	23018
850.14	22869
850.275	23075
850.41	22873
850.545	22965
850.68	23010
850.815	22930
850.95	23113
851.085	23003
851.22	22972
851.355	22991
851.49	22877
851.625	22900
851.76	22987
851.895	22771
852.03	22881
852.165	22938
852.299	23003
852.434	23060
852.569	22900
852.703	22866
852.838	23037
852.973	23159
853.107	23029
853.242	22774
853.376	22679
853.511	22599
853.645	22683
853.78	22854
853.914	22755
854.048	22698
854.183	22771
854.317	22782
854.451	23041
854.585	22641
854.72	22649
854.854	22873
854.988	22736
855.122	22797
855.256	22546
855.39	22755
855.524	22733
855.658	22740
855.792	22660
855.926	22599
856.06	22869
856.194	22717
856.327	22691
856.461	22752
856.595	22584
856.729	22683
856.862	22843
856.996	22637
857.13	22915
857.263	22790
857.397	22801
857.53	22675
857.664	22759
857.797	22828
857.931	22812
858.064	22767
858.197	22736
858.331	22653
858.464	22596
858.597	22626
858.731	22675
858.864	22573
858.997	22577
859.13	22683
859.263	22557
859.396	22793
859.529	22683
859.662	22717
859.795	22611
859.928	22706
860.061	22694
860.194	23060
860.327	22713
860.46	22698
860.592	22831
860.725	22812
860.858	22755
860.99	22748
861.123	22725
861.256	22626
861.388	22615
861.521	23417
861.653	22611
861.786	22577
861.918	22538
862.05	22618
862.183	22713
862.315	22683
862.447	22786
862.58	22691
862.712	22375
862.844	22291
862.976	22360
863.108	22451
863.24	22828
863.372	22386
863.504	22432
863.636	22390
863.768	22497
863.9	22318
864.032	22246
864.164	22223
864.296	22337
864.428	22440
864.559	22459
864.691	22428
864.823	22390
864.954	22306
865.086	22268
865.217	22181
865.349	22284
865.48	22325
865.612	22276
865.743	22344
865.875	22192
866.006	22257
866.137	22276
866.269	22078
866.4	22238
866.531	22169
866.662	22185
866.793	22109
866.924	22211
867.055	22215
867.186	22158
867.317	22185
867.448	22086
867.579	22162
867.71	22078
867.841	22143
867.972	22223
868.103	22177
868.233	22154
868.364	22112
868.495	22272
868.625	22382
868.756	22565
868.886	22291
869.017	22379
869.147	22531
869.278	22493
869.408	22375
869.539	22329
869.669	22478
869.799	22462
869.929	22459
870.06	22455
870.19	22664
870.32	22599
870.45	22771
870.58	22679
870.71	22858
870.84	22816
870.97	22611
871.1	22725
871.23	23086
871.36	22919
871.489	22797
871.619	22892
871.749	23010
871.879	22911
872.008	22942
872.138	22976
872.267	22904
872.397	22877
872.526	22850
872.656	22831
872.785	22725
872.915	22991
873.044	23094
873.173	23060
873.303	23162
873.432	23064
873.561	22938
873.69	23006
873.819	23075
873.948	23041
874.077	23006
874.206	23010
874.335	22949
874.464	23022
874.593	23239
874.722	23231
874.851	23174
874.979	23189
875.108	23239
875.237	23231
875.365	23124
875.494	23235
875.623	23292
875.751	23193
875.88	23197
876.008	23311
876.136	23261
876.265	23630
876.393	23748
876.521	23596
876.65	23703
876.778	23646
876.906	23379
877.034	23657
877.162	23535
877.29	23539
877.418	23615
877.546	23425
877.674	23551
877.802	23444
877.93	23383
878.058	23478
878.185	23486
878.313	23410
878.441	23554
878.568	23379
878.696	23509
878.824	23585
878.951	23619
879.079	23672
879.206	23805
879.333	23741
879.461	23539
879.588	23630
879.715	23798
879.842	23863
879.97	23627
880.097	23265
880.224	23402
880.351	23414
880.478	23406
880.605	23372
880.732	23395
880.859	23611
880.986	23356
881.112	23395
881.239	23322
881.366	23003
881.493	23159
881.619	22835
881.746	23079
881.872	22858
881.999	22908
882.125	22767
882.252	22949
882.378	22915
882.505	23025
882.631	22889
882.757	22630
882.883	22622
883.01	22618
883.136	22538
883.262	22523
883.388	22382
883.514	22713
883.64	22565
883.766	22504
883.892	22348
884.018	22394
884.143	22504
884.269	22592
884.395	22322
884.52	22276
884.646	22166
884.772	22310
884.897	22055
885.023	22257
885.148	22261
885.274	22432
885.399	22428
885.524	22299
885.65	22333
885.775	22211
885.9	22158
886.025	22341
886.15	22306
886.275	22238
886.4	22223
886.525	22246
886.65	22188
886.775	22196
886.9	22390
887.025	22405
887.149	22223
887.274	22112
887.399	21994
887.523	22040
887.648	21899
887.773	21968
887.897	21983
888.021	22040
888.146	21873
888.27	21998
888.395	22029
888.519	22055
888.643	21873
888.767	22013
888.891	21918
889.015	21892
889.139	21846
889.263	21835
889.387	21895
889.511	21945
889.635	21880
889.759	21747
889.883	21686
890.006	21679
890.13	21869
890.254	21671
890.377	21717
890.501	21523
890.624	21405
890.748	21618
890.871	21359
890.995	21291
891.118	21203
891.241	21192
891.364	21313
891.488	21488
891.611	21245
891.734	21310
891.857	21397
891.98	21336
892.103	21336
892.226	21370
892.349	21310
892.471	20994
892.594	21237
892.717	21161
892.839	21116
892.962	21279
893.085	21306
893.207	21154
893.33	21203
893.452	21104
893.575	21199
893.697	21211
893.819	21325
893.941	21462
894.064	21405
894.186	21077
894.308	20971
894.43	21287
894.552	21485
894.674	21207
894.796	21173
894.918	21268
895.04	21104
895.161	21237
895.283	21180
895.405	21085
895.526	21169
895.648	21104
895.769	21222
895.891	21279
896.012	21370
896.134	21188
896.255	21287
896.376	21154
896.498	21161
896.619	21226
896.74	21127
896.861	21226
896.982	21454
897.103	21587
897.224	21420
897.345	21450
897.466	21401
897.587	21488
897.708	21473
897.828	21233
897.949	21256
898.07	21199
898.19	21272
898.311	21355
898.431	21332
898.552	21386
898.672	21401
898.792	21359
898.913	21363
899.033	21142
899.153	21218
899.273	21017
899.393	20994
899.513	21195
899.633	21161
899.753	21165
899.873	21157
899.993	21180
900.113	20963
900.232	21081
900.352	20941
900.472	20941
900.591	20876
900.711	20842
900.83	20758
900.95	20845
901.069	20807
901.189	20773
901.308	20446
901.427	20423
901.546	20408
901.665	20454
901.784	20400
901.904	20256
902.023	20240
902.141	19871
902.26	19978
902.379	20027
902.498	19944
902.617	19845
902.735	19917
902.854	19803
902.973	19799
903.091	19460
903.21	19563
903.328	19537
903.446	19518
903.565	19419
903.683	19396
903.801	19308
903.919	19259
904.038	19282
904.156	19152
904.274	19152
904.392	19107
904.51	19088
904.627	19175
904.745	19152
904.863	19168
904.981	18905
905.098	18722
905.216	18817
905.334	18825
905.451	18798
905.569	18768
905.686	18738
905.803	18787
905.921	18570
906.038	18688
906.155	18593
906.272	18559
906.389	18486
906.506	18327
906.623	18418
906.74	18346
906.857	18285
906.974	18243
907.091	18273
907.208	18456
907.324	18357
907.441	18266
907.557	17874
907.674	18053
907.79	17977
907.907	17961
908.023	18019
908.139	17999
908.256	18064
908.372	17920
908.488	17878
908.604	17699
908.72	17661
908.836	17726
908.952	17638
909.068	17691
909.184	17657
909.3	17707
909.415	17771
909.531	17600
909.647	17433
909.762	17303
909.878	17345
909.993	17341
910.108	17509
910.224	17349
910.339	17391
910.454	17212
910.57	17220
910.685	17109
910.8	17326
910.915	17292
911.03	17185
911.145	17056
911.259	16991
911.374	16938
911.489	16885
911.604	16831
911.718	16569
911.833	16675
911.947	16672
912.062	16512
912.176	16790
912.291	16626
912.405	16645
912.519	16801
912.633	16908
912.748	16771
912.862	16637
912.976	16550
913.09	16230
913.204	16424
913.318	16390
913.431	16500
913.545	16622
913.659	16558
913.772	16508
913.886	16284
914	16284
914.113	16352
914.226	16500
914.34	16333
914.453	16093
914.566	16314
914.68	16185
914.793	16078
914.906	15991
915.019	15892
915.132	15918
915.245	15835
915.358	15945
915.47	15911
915.583	15827
915.696	15945
915.809	15903
915.921	15991
916.034	15838
916.146	15846
916.259	15732
916.371	15797
916.483	15762
916.595	15656
916.708	15580
916.82	15690
916.932	15618
917.044	15580
917.156	15610
917.268	15492
917.38	15542
917.491	15504
917.603	15481
917.715	15511
917.826	15519
917.938	15397
918.049	15249
918.161	15367
918.272	15542
918.384	15557
918.495	15424
918.606	15256
918.717	15207
918.828	15294
918.939	15237
919.05	15165
919.161	15203
919.272	15051
919.383	14963
919.494	15340
919.604	15416
919.715	15165
919.826	15119
919.936	15192
920.047	15203
920.157	15218
920.267	15386
920.378	15230
920.488	15176
920.598	15188
920.708	15500
920.818	15222
920.928	15313
921.038	15401
921.148	15374
921.258	15123
921.368	14933
921.477	14880
921.587	14788
921.697	14785
921.806	14842
921.916	14796
922.025	14541
922.134	14465
922.244	14522
922.353	14469
922.462	14351
922.571	14351
922.68	14172
922.789	14126
922.898	14126
923.007	14153
923.116	14107
923.224	14054
923.333	13993
923.442	13898
923.55	13887
923.659	13989
923.767	13913
923.876	13871
923.984	13921
924.092	13780
924.201	13871
924.309	13864
924.417	13894
924.525	13712
924.633	13761
924.741	14545
924.849	13582
924.956	13723
925.064	13548
925.172	13502
925.279	13540
925.387	13464
925.494	13499
925.602	13597
925.709	13552
925.816	13487
925.924	13460
926.031	13480
926.138	13464
926.245	13453
926.352	13316
926.459	13544
926.566	13506
926.673	13369
926.779	13198
926.886	13187
926.993	13164
927.099	13008
927.206	13038
927.312	12935
927.419	13050
927.525	12966
927.631	13061
927.737	12985
927.843	12814
927.95	12814
928.056	12776
928.162	12867
928.267	12848
928.373	13464
928.479	12909
928.585	12677
928.69	12806
928.796	12741
928.901	12681
929.007	12608
929.112	12779
929.218	12646
929.323	12566
929.428	12585
929.533	12730
929.638	12452
929.743	12490
929.848	12532
929.953	12540
930.058	12494
930.163	12201
930.267	12209
930.372	12395
930.477	12201
930.581	12456
930.685	12319
930.79	12095
930.894	12190
930.998	12064
931.103	12247
931.207	11847
931.311	11779
931.415	11634
931.519	11497
931.623	11471
