Data from test_V78500241_2533.txt Node
Date: Fri Mar 25 15:59:20 CST 2022
User: usil
Spectrometer: V785-0024
Trigger mode: 0
Integration Time (sec): 4.000000E-1
Scans to average: 1
Nonlinearity correction enabled: false
Boxcar width: 0
Storing dark spectrum: false
XAxis mode: Wavelengths
Number of Pixels in Spectrum: 1024
>>>>>Begin Spectral Data<<<<<
801.071	28154
801.214	28147
801.356	27934
801.499	27732
801.641	27705
801.783	27545
801.926	27496
802.068	27553
802.211	27561
802.353	27473
802.496	27222
802.638	27192
802.78	27283
802.923	27222
803.065	27100
803.208	27283
803.35	27241
803.492	27427
803.635	27526
803.777	27287
803.919	27481
804.061	27861
804.204	27568
804.346	27389
804.488	27336
804.63	27447
804.773	27401
804.915	27553
805.057	27637
805.199	27511
805.341	27618
805.483	27633
805.626	27572
805.768	27648
805.91	27629
806.052	27701
806.194	27458
806.336	27736
806.478	27686
806.62	27603
806.762	27724
806.904	27854
807.046	28070
807.188	27934
807.33	28010
807.472	27892
807.614	27903
807.756	27953
807.898	27846
808.04	27884
808.182	27846
808.324	27926
808.465	27994
808.607	28036
808.749	28211
808.891	28394
809.033	28462
809.174	28325
809.316	28188
809.458	28390
809.6	28105
809.741	28295
809.883	28459
810.025	28565
810.166	28634
810.308	28580
810.45	28554
810.591	28523
810.733	28310
810.875	28329
811.016	28150
811.158	28246
811.299	28287
811.441	28466
811.582	28272
811.724	28226
811.865	28352
812.007	28169
812.148	28238
812.29	28303
812.431	28398
812.573	28462
812.714	28660
812.855	28805
812.997	28820
813.138	28942
813.279	28888
813.421	28774
813.562	28706
813.703	28637
813.845	28538
813.986	28352
814.127	27975
814.268	27953
814.41	27941
814.551	27975
814.692	27964
814.833	27949
814.974	27869
815.115	27888
815.256	27816
815.397	27850
815.539	27709
815.68	27690
815.821	27728
815.962	27770
816.103	27682
816.244	27679
816.385	27679
816.526	27454
816.666	27321
816.807	27157
816.948	27329
817.089	27321
817.23	27382
817.371	27176
817.512	27256
817.653	27252
817.793	27051
817.934	27127
818.075	27294
818.216	27138
818.356	27207
818.497	27096
818.638	27081
818.778	26899
818.919	27001
819.06	26963
819.2	27192
819.341	27165
819.481	27203
819.622	27370
819.762	27500
819.903	27458
820.043	27431
820.184	27317
820.324	27306
820.465	27416
820.605	27458
820.746	27363
820.886	27043
821.026	27218
821.167	27207
821.307	27431
821.447	27275
821.588	27157
821.728	27089
821.868	26861
822.008	26823
822.149	26659
822.289	26583
822.429	26461
822.569	26347
822.709	26495
822.849	26317
822.99	26294
823.13	26180
823.27	25997
823.41	26065
823.55	25913
823.69	25936
823.83	26084
823.97	26069
824.11	25788
824.25	25811
824.389	25852
824.529	25852
824.669	25753
824.809	25959
824.949	25925
825.089	26005
825.228	25894
825.368	25708
825.508	25616
825.648	25693
825.787	25849
825.927	25841
826.067	25727
826.206	25635
826.346	25799
826.485	25807
826.625	25750
826.765	25875
826.904	25674
827.044	25460
827.183	25521
827.323	25362
827.462	25548
827.601	25285
827.741	25384
827.88	25438
828.02	25312
828.159	25324
828.298	25457
828.437	25521
828.577	25373
828.716	25426
828.855	25369
828.994	25069
829.134	25168
829.273	25175
829.412	25164
829.551	25034
829.69	25023
829.829	25076
829.968	25221
830.107	25251
830.246	25046
830.385	25031
830.524	25012
830.663	25004
830.802	24886
830.941	24745
831.08	24658
831.219	24677
831.357	24749
831.496	24958
831.635	24707
831.774	24673
831.913	24612
832.051	24505
832.19	24578
832.329	24486
832.467	24391
832.606	24342
832.744	24414
832.883	24445
833.022	24365
833.16	24353
833.299	24429
833.437	24372
833.576	24505
833.714	24517
833.852	24471
833.991	24464
834.129	24471
834.267	24426
834.406	24509
834.544	24505
834.682	24490
834.821	24369
834.959	24738
835.097	24369
835.235	24346
835.373	24384
835.511	24296
835.65	24388
835.788	24270
835.926	24174
836.064	24133
836.202	24068
836.34	24224
836.478	24327
836.615	24121
836.753	24201
836.891	24220
837.029	24216
837.167	24224
837.305	24117
837.443	24243
837.58	24148
837.718	24247
837.856	24114
837.993	24133
838.131	24083
838.269	24041
838.406	24220
838.544	23969
838.681	23691
838.819	23649
838.956	23493
839.094	23634
839.231	23592
839.369	23726
839.506	23950
839.643	23824
839.781	23577
839.918	23444
840.055	23512
840.193	23467
840.33	23528
840.467	23497
840.604	23512
840.742	23703
840.879	23486
841.016	23330
841.153	23391
841.29	23512
841.427	23509
841.564	23608
841.701	23398
841.838	23353
841.975	23436
842.112	23334
842.249	23330
842.385	23334
842.522	23547
842.659	23372
842.796	23197
842.933	23250
843.069	23288
843.206	23174
843.343	23227
843.479	23292
843.616	23185
843.752	23143
843.889	23056
844.025	23223
844.162	22995
844.298	23132
844.435	23056
844.571	22972
844.708	23018
844.844	23113
844.98	23235
845.117	23162
845.253	22942
845.389	22877
845.525	22873
845.661	22900
845.798	22809
845.934	22869
846.07	22736
846.206	22767
846.342	22854
846.478	22725
846.614	22504
846.75	22405
846.886	22542
847.022	22607
847.158	22531
847.294	22443
847.429	22538
847.565	22455
847.701	22637
847.837	22230
847.972	22169
848.108	22242
848.244	22234
848.379	22097
848.515	22177
848.65	21998
848.786	22162
848.921	22063
849.057	22131
849.192	22158
849.328	22131
849.463	22063
849.598	21972
849.734	22040
849.869	21983
850.004	21774
850.14	21907
850.275	21865
850.41	21854
850.545	21774
850.68	21701
850.815	21884
850.95	21793
851.085	22101
851.22	22032
851.355	21755
851.49	21812
851.625	21656
851.76	21766
851.895	21766
852.03	21743
852.165	21945
852.299	21873
852.434	21804
852.569	21770
852.703	21762
852.838	21953
852.973	21949
853.107	21998
853.242	21903
853.376	21652
853.511	21534
853.645	21568
853.78	21739
853.914	21732
854.048	21591
854.183	21774
854.317	21694
854.451	21865
854.585	21637
854.72	21701
854.854	21774
854.988	21663
855.122	21656
855.256	21496
855.39	21732
855.524	21778
855.658	21736
855.792	21656
855.926	21629
856.06	21572
856.194	21739
856.327	21679
856.461	21675
856.595	21644
856.729	21728
856.862	21736
856.996	21698
857.13	21774
857.263	21873
857.397	21610
857.53	21686
857.664	21812
857.797	21800
857.931	21694
858.064	21663
858.197	21751
858.331	21671
858.464	21481
858.597	21553
858.731	21542
858.864	21675
858.997	21504
859.13	21679
859.263	21713
859.396	21709
859.529	21595
859.662	21660
859.795	21572
859.928	21603
860.061	21778
860.194	21766
860.327	21865
860.46	21709
860.592	21770
860.725	21759
860.858	21789
860.99	21660
861.123	21606
861.256	21663
861.388	21652
861.521	22447
861.653	21542
861.786	21485
861.918	21504
862.05	21648
862.183	21705
862.315	21568
862.447	21576
862.58	21583
862.712	21317
862.844	21374
862.976	21424
863.108	21469
863.24	21679
863.372	21401
863.504	21332
863.636	21359
863.768	21405
863.9	21397
864.032	21348
864.164	21355
864.296	21363
864.428	21443
864.559	21500
864.691	21348
864.823	21363
864.954	21351
865.086	21355
865.217	21226
865.349	21089
865.48	21252
865.612	21317
865.743	21279
865.875	21283
866.006	21272
866.137	21249
866.269	21291
866.4	21214
866.531	21245
866.662	21119
866.793	21173
866.924	21203
867.055	21279
867.186	21127
867.317	21165
867.448	21135
867.579	21169
867.71	21165
867.841	21150
867.972	21256
868.103	21081
868.233	21241
868.364	21211
868.495	21233
868.625	21344
868.756	21519
868.886	21359
869.017	21405
869.147	21492
869.278	21542
869.408	21481
869.539	21401
869.669	21542
869.799	21523
869.929	21435
870.06	21595
870.19	21679
870.32	21800
870.45	21804
870.58	21755
870.71	21926
870.84	21930
870.97	21854
871.1	21793
871.23	22021
871.36	22029
871.489	21774
871.619	21960
871.749	21968
871.879	22067
872.008	22078
872.138	22101
872.267	22082
872.397	21922
872.526	21888
872.656	21880
872.785	21930
872.915	22090
873.044	22135
873.173	22162
873.303	22055
873.432	22196
873.561	22147
873.69	22093
873.819	22067
873.948	22109
874.077	22086
874.206	22010
874.335	22010
874.464	22124
874.593	22398
874.722	22257
874.851	22268
874.979	22333
875.108	22230
875.237	22348
875.365	22120
875.494	22154
875.623	22333
875.751	22322
875.88	22261
876.008	22417
876.136	22474
876.265	22744
876.393	22679
876.521	22805
876.65	22729
876.778	22717
876.906	22675
877.034	22691
877.162	22557
877.29	22550
877.418	22626
877.546	22702
877.674	22641
877.802	22577
877.93	22713
878.058	22577
878.185	22485
878.313	22512
878.441	22615
878.568	22531
878.696	22573
878.824	22672
878.951	22752
879.079	22717
879.206	22968
879.333	22961
879.461	22634
879.588	22786
879.715	22790
879.842	22896
879.97	22649
880.097	22573
880.224	22478
880.351	22550
880.478	22497
880.605	22500
880.732	22584
880.859	22656
880.986	22561
881.112	22489
881.239	22344
881.366	22169
881.493	22135
881.619	22021
881.746	22010
881.872	22059
881.999	21907
882.125	21907
882.252	22063
882.378	22036
882.505	22078
882.631	21945
882.757	21709
882.883	21804
883.01	21823
883.136	21629
883.262	21633
883.388	21538
883.514	21709
883.64	21762
883.766	21682
883.892	21492
884.018	21477
884.143	21690
884.269	21842
884.395	21439
884.52	21382
884.646	21447
884.772	21294
884.897	21291
885.023	21287
885.148	21416
885.274	21435
885.399	21549
885.524	21393
885.65	21359
885.775	21412
885.9	21374
886.025	21431
886.15	21386
886.275	21332
886.4	21226
886.525	21272
886.65	21310
886.775	21283
886.9	21557
887.025	21511
887.149	21340
887.274	21085
887.399	21123
887.523	21199
887.648	21096
887.773	21020
887.897	21230
888.021	21085
888.146	21055
888.27	21093
888.395	21226
888.519	21154
888.643	21123
888.767	21188
888.891	21036
889.015	20895
889.139	21062
889.263	20807
889.387	20963
889.511	21165
889.635	21036
889.759	20929
889.883	20979
890.006	20906
890.13	21020
890.254	20876
890.377	20872
890.501	20800
890.624	20708
890.748	20712
890.871	20609
890.995	20473
891.118	20419
891.241	20374
891.364	20530
891.488	20659
891.611	20484
891.734	20446
891.857	20522
891.98	20336
892.103	20492
892.226	20564
892.349	20385
892.471	20324
892.594	20351
892.717	20301
892.839	20385
892.962	20465
893.085	20514
893.207	20286
893.33	20347
893.452	20233
893.575	20571
893.697	20476
893.819	20465
893.941	20579
894.064	20629
894.186	20214
894.308	20294
894.43	20389
894.552	20579
894.674	20419
894.796	20267
894.918	20366
895.04	20267
895.161	20446
895.283	20473
895.405	20324
895.526	20362
895.648	20259
895.769	20450
895.891	20454
896.012	20476
896.134	20503
896.255	20450
896.376	20415
896.498	20362
896.619	20305
896.74	20408
896.861	20412
896.982	20693
897.103	20788
897.224	20708
897.345	20522
897.466	20511
897.587	20712
897.708	20781
897.828	20609
897.949	20575
898.07	20564
898.19	20583
898.311	20667
898.431	20602
898.552	20678
898.672	20625
898.792	20720
898.913	20564
899.033	20518
899.153	20427
899.273	20259
899.393	20362
899.513	20343
899.633	20309
899.753	20328
899.873	20313
899.993	20385
900.113	20389
900.232	20370
900.352	20259
900.472	20263
900.591	20111
900.711	20240
900.83	20111
900.95	20119
901.069	20263
901.189	19978
901.308	19757
901.427	19750
901.546	19662
901.665	19746
901.784	19898
901.904	19468
902.023	19483
902.141	19316
902.26	19187
902.379	19282
902.498	19304
902.617	19042
902.735	19202
902.854	19175
902.973	19088
903.091	18932
903.21	18913
903.328	18989
903.446	18787
903.565	18692
903.683	18772
903.801	18528
903.919	18639
904.038	18639
904.156	18437
904.274	18483
904.392	18395
904.51	18460
904.627	18414
904.745	18437
904.863	18566
904.981	18262
905.098	18152
905.216	18140
905.334	18114
905.451	18194
905.569	18098
905.686	18102
905.803	18117
905.921	18022
906.038	17977
906.155	17885
906.272	17775
906.389	17805
906.506	17657
906.623	17707
906.74	17600
906.857	17532
906.974	17562
907.091	17615
907.208	17836
907.324	17657
907.441	17478
907.557	17398
907.674	17383
907.79	17341
907.907	17353
908.023	17318
908.139	17436
908.256	17330
908.372	17250
908.488	17200
908.604	17083
908.72	17037
908.836	17098
908.952	17033
909.068	17189
909.184	17178
909.3	17014
909.415	17147
909.531	17117
909.647	16850
909.762	16702
909.878	16736
909.993	16752
910.108	16725
910.224	16721
910.339	16740
910.454	16599
910.57	16573
910.685	16588
910.8	16805
910.915	16687
911.03	16542
911.145	16405
911.259	16398
911.374	16295
911.489	16318
911.604	16295
911.718	16082
911.833	16135
911.947	15956
912.062	15949
912.176	16173
912.291	16200
912.405	16120
912.519	16238
912.633	16287
912.748	16192
912.862	16029
912.976	15915
913.09	15873
913.204	15983
913.318	16010
913.431	16010
913.545	16029
913.659	15991
913.772	15857
913.886	15690
914	15743
914.113	15759
914.226	15762
914.34	15709
914.453	15660
914.566	15709
914.68	15568
914.793	15717
914.906	15325
915.019	15374
915.132	15199
915.245	15313
915.358	15291
915.47	15218
915.583	15348
915.696	15340
915.809	15389
915.921	15428
916.034	15287
916.146	15188
916.259	15173
916.371	15294
916.483	15230
916.595	15123
916.708	15165
916.82	15176
916.932	15081
917.044	15207
917.156	15051
917.268	14979
917.38	14933
917.491	14986
917.603	15005
917.715	14963
917.826	15173
917.938	14914
918.049	14815
918.161	14872
918.272	15093
918.384	15032
918.495	14914
918.606	14792
918.717	14686
918.828	14701
918.939	14792
919.05	14705
919.161	14735
919.272	14549
919.383	14613
919.494	14712
919.604	14956
919.715	14765
919.826	14651
919.936	14606
920.047	14762
920.157	14651
920.267	14895
920.378	14621
920.488	14621
920.598	14834
920.708	14960
920.818	14823
920.928	14864
921.038	14925
921.148	14925
921.258	14701
921.368	14533
921.477	14522
921.587	14415
921.697	14233
921.806	14446
921.916	14252
922.025	14142
922.134	14153
922.244	14084
922.353	14043
922.462	13951
922.571	13940
922.68	13837
922.789	13708
922.898	13723
923.007	13704
923.116	13837
923.224	13731
923.333	13738
923.442	13613
923.55	13559
923.659	13616
923.767	13628
923.876	13472
923.984	13616
924.092	13449
924.201	13567
924.309	13578
924.417	13468
924.525	13415
924.633	13407
924.741	14199
924.849	13247
924.956	13358
925.064	13126
925.172	13190
925.279	13076
925.387	13129
925.494	13179
925.602	13202
925.709	13175
925.816	13061
925.924	13023
926.031	13270
926.138	13122
926.245	13050
926.352	13050
926.459	13095
926.566	13175
926.673	13103
926.779	12798
926.886	12867
926.993	12707
927.099	12772
927.206	12608
927.312	12623
927.419	12722
927.525	12745
927.631	12616
927.737	12620
927.843	12563
927.95	12410
928.056	12448
928.162	12536
928.267	12597
928.373	13240
928.479	12646
928.585	12338
928.69	12410
928.796	12555
928.901	12388
929.007	12216
929.112	12384
929.218	12342
929.323	12243
929.428	12182
929.533	12372
929.638	12144
929.743	12232
929.848	12251
929.953	12247
930.058	12155
930.163	11889
930.267	11946
930.372	12083
930.477	11946
930.581	12167
930.685	11916
930.79	11828
930.894	11874
930.998	11817
931.103	11969
931.207	11589
931.311	11543
931.415	11398
931.519	11212
931.623	11083
