Data from test_V78500241_1751.txt Node
Date: Fri Mar 25 15:53:55 CST 2022
User: usil
Spectrometer: V785-0024
Trigger mode: 0
Integration Time (sec): 4.000000E-1
Scans to average: 1
Nonlinearity correction enabled: false
Boxcar width: 0
Storing dark spectrum: false
XAxis mode: Wavelengths
Number of Pixels in Spectrum: 1024
>>>>>Begin Spectral Data<<<<<
801.071	28592
801.214	28554
801.356	28478
801.499	28344
801.641	28162
801.783	28234
801.926	28261
802.068	28124
802.211	28086
802.353	28124
802.496	27945
802.638	28101
802.78	27747
802.923	27759
803.065	27709
803.208	27808
803.35	27869
803.492	28162
803.635	28116
803.777	27956
803.919	28154
804.061	28413
804.204	28169
804.346	28006
804.488	27987
804.63	28105
804.773	28143
804.915	28158
805.057	28238
805.199	28063
805.341	28242
805.483	28333
805.626	28280
805.768	28242
805.91	28226
806.052	28192
806.194	28265
806.336	28348
806.478	28287
806.62	28398
806.762	28413
806.904	28394
807.046	28782
807.188	28546
807.33	28710
807.472	28824
807.614	28630
807.756	28721
807.898	28573
808.04	28481
808.182	28451
808.324	28546
808.465	28653
808.607	28843
808.749	28987
808.891	29094
809.033	29067
809.174	28991
809.316	28904
809.458	28927
809.6	28866
809.741	28984
809.883	28930
810.025	29208
810.166	29288
810.308	29212
810.45	29117
810.591	29227
810.733	28984
810.875	28972
811.016	28767
811.158	28938
811.299	29018
811.441	29136
811.582	28984
811.724	28961
811.865	28873
812.007	28934
812.148	29037
812.29	29052
812.431	29064
812.573	29170
812.714	29444
812.855	29463
812.997	29566
813.138	29642
813.279	29680
813.421	29436
813.562	29364
813.703	29307
813.845	29303
813.986	28885
814.127	28843
814.268	28717
814.41	28672
814.551	28656
814.692	28778
814.833	28683
814.974	28634
815.115	28782
815.256	28527
815.397	28596
815.539	28622
815.68	28493
815.821	28398
815.962	28497
816.103	28348
816.244	28421
816.385	28291
816.526	28169
816.666	28032
816.807	27983
816.948	28055
817.089	27911
817.23	27983
817.371	27899
817.512	28036
817.653	28128
817.793	27907
817.934	28063
818.075	27975
818.216	27994
818.356	27953
818.497	27804
818.638	27629
818.778	27789
818.919	27857
819.06	27793
819.2	27884
819.341	27998
819.481	27979
819.622	28200
819.762	28249
819.903	28246
820.043	28169
820.184	28093
820.324	28177
820.465	28124
820.605	28090
820.746	28074
820.886	27956
821.026	28200
821.167	28010
821.307	28177
821.447	28082
821.588	27781
821.728	27732
821.868	27599
822.008	27439
822.149	27500
822.289	27378
822.429	27142
822.569	27169
822.709	27142
822.849	26952
822.99	26887
823.13	27066
823.27	26895
823.41	26804
823.55	26648
823.69	26785
823.83	26811
823.97	26769
824.11	26697
824.25	26583
824.389	26518
824.529	26727
824.669	26526
824.809	26758
824.949	26644
825.089	26716
825.228	26697
825.368	26495
825.508	26385
825.648	26533
825.787	26511
825.927	26541
826.067	26366
826.206	26366
826.346	26541
826.485	26537
826.625	26469
826.765	26537
826.904	26492
827.044	26377
827.183	26168
827.323	26126
827.462	26180
827.601	26233
827.741	26183
827.88	26195
828.02	26168
828.159	26119
828.298	26157
828.437	26252
828.577	26191
828.716	26339
828.855	26115
828.994	25780
829.134	25917
829.273	25830
829.412	25902
829.551	25837
829.69	25868
829.829	25936
829.968	25913
830.107	25879
830.246	25917
830.385	25925
830.524	25723
830.663	25666
830.802	25609
830.941	25441
831.08	25518
831.219	25464
831.357	25468
831.496	25784
831.635	25491
831.774	25495
831.913	25521
832.051	25266
832.19	25422
832.329	25297
832.467	25270
832.606	25266
832.744	25187
832.883	25255
833.022	24992
833.16	25038
833.299	25320
833.437	25175
833.576	25297
833.714	25126
833.852	25251
833.991	25400
834.129	25396
834.267	25255
834.406	25278
834.544	25362
834.682	25217
834.821	25358
834.959	25400
835.097	25152
835.235	25266
835.373	25297
835.511	25148
835.65	25194
835.788	25198
835.926	24909
836.064	24916
836.202	24825
836.34	25091
836.478	25168
836.615	24996
836.753	25027
836.891	25126
837.029	25038
837.167	24970
837.305	24992
837.443	25000
837.58	25000
837.718	24863
837.856	24924
837.993	24867
838.131	24825
838.269	24722
838.406	24783
838.544	24650
838.681	24585
838.819	24448
838.956	24338
839.094	24395
839.231	24407
839.369	24681
839.506	24764
839.643	24601
839.781	24330
839.918	24311
840.055	24460
840.193	24194
840.33	24353
840.467	24235
840.604	24266
840.742	24517
840.879	23988
841.016	24076
841.153	24171
841.29	24300
841.427	24171
841.564	24224
841.701	24140
841.838	24178
841.975	24095
842.112	24205
842.249	24083
842.385	23889
842.522	24121
842.659	24060
842.796	23980
842.933	23912
843.069	23832
843.206	23912
843.343	23980
843.479	23927
843.616	24003
843.752	23707
843.889	23923
844.025	23882
844.162	23790
844.298	23920
844.435	23840
844.571	23653
844.708	23786
844.844	23954
844.98	23958
845.117	23897
845.253	23764
845.389	23646
845.525	23638
845.661	23604
845.798	23356
845.934	23646
846.07	23467
846.206	23547
846.342	23505
846.478	23398
846.614	23299
846.75	23143
846.886	23197
847.022	23280
847.158	23254
847.294	23208
847.429	23254
847.565	23121
847.701	23425
847.837	22934
847.972	22927
848.108	22984
848.244	22991
848.379	22866
848.515	22767
848.65	22797
848.786	22839
848.921	22835
849.057	23010
849.192	22892
849.328	22748
849.463	22656
849.598	22675
849.734	22771
849.869	22653
850.004	22580
850.14	22611
850.275	22569
850.41	22462
850.545	22466
850.68	22584
850.815	22557
850.95	22504
851.085	22767
851.22	22752
851.355	22599
851.49	22538
851.625	22409
851.76	22535
851.895	22481
852.03	22561
852.165	22493
852.299	22588
852.434	22641
852.569	22481
852.703	22580
852.838	22573
852.973	22603
853.107	22683
853.242	22550
853.376	22371
853.511	22314
853.645	22394
853.78	22470
853.914	22443
854.048	22447
854.183	22451
854.317	22489
854.451	22569
854.585	22356
854.72	22318
854.854	22440
854.988	22341
855.122	22402
855.256	22352
855.39	22371
855.524	22424
855.658	22405
855.792	22318
855.926	22287
856.06	22375
856.194	22497
856.327	22386
856.461	22447
856.595	22314
856.729	22436
856.862	22466
856.996	22299
857.13	22493
857.263	22527
857.397	22428
857.53	22287
857.664	22481
857.797	22363
857.931	22481
858.064	22386
858.197	22508
858.331	22348
858.464	22405
858.597	22314
858.731	22390
858.864	22413
858.997	22310
859.13	22428
859.263	22386
859.396	22508
859.529	22413
859.662	22333
859.795	22405
859.928	22352
860.061	22478
860.194	22641
860.327	22459
860.46	22379
860.592	22402
860.725	22569
860.858	22500
860.99	22382
861.123	22280
861.256	22398
861.388	22424
861.521	23117
861.653	22306
861.786	22219
861.918	22139
862.05	22310
862.183	22284
862.315	22394
862.447	22329
862.58	22154
862.712	22135
862.844	22025
862.976	22185
863.108	22211
863.24	22504
863.372	22147
863.504	21937
863.636	22090
863.768	22090
863.9	22131
864.032	22044
864.164	22082
864.296	22124
864.428	22147
864.559	22097
864.691	22135
864.823	22150
864.954	22029
865.086	22025
865.217	21972
865.349	21937
865.48	21880
865.612	21987
865.743	22158
865.875	21865
866.006	21998
866.137	21895
866.269	21960
866.4	21907
866.531	21850
866.662	21880
866.793	21884
866.924	21850
867.055	21922
867.186	21823
867.317	21861
867.448	21766
867.579	21838
867.71	21770
867.841	21846
867.972	21987
868.103	21766
868.233	21804
868.364	21899
868.495	22025
868.625	22063
868.756	22295
868.886	22040
869.017	22135
869.147	22200
869.278	22318
869.408	22226
869.539	22162
869.669	22112
869.799	22261
869.929	22124
870.06	22249
870.19	22470
870.32	22447
870.45	22371
870.58	22596
870.71	22561
870.84	22630
870.97	22535
871.1	22531
871.23	22679
871.36	22740
871.489	22649
871.619	22759
871.749	22713
871.879	22752
872.008	22896
872.138	22664
872.267	22778
872.397	22637
872.526	22531
872.656	22546
872.785	22489
872.915	22691
873.044	22793
873.173	22717
873.303	22790
873.432	22740
873.561	22782
873.69	22831
873.819	22782
873.948	22866
874.077	22824
874.206	22736
874.335	22752
874.464	22793
874.593	23003
874.722	22889
874.851	23044
874.979	23010
875.108	22965
875.237	22908
875.365	22869
875.494	23029
875.623	23018
875.751	23006
875.88	23067
876.008	23052
876.136	23166
876.265	23444
876.393	23501
876.521	23444
876.65	23391
876.778	23318
876.906	23200
877.034	23315
877.162	23364
877.29	23147
877.418	23345
877.546	23280
877.674	23372
877.802	23455
877.93	23330
878.058	23417
878.185	23128
878.313	23299
878.441	23349
878.568	23147
878.696	23151
878.824	23341
878.951	23467
879.079	23531
879.206	23547
879.333	23444
879.461	23242
879.588	23398
879.715	23512
879.842	23562
879.97	23284
880.097	23216
880.224	23025
880.351	23189
880.478	23098
880.605	23044
880.732	23181
880.859	23474
880.986	23075
881.112	23094
881.239	23037
881.366	22793
881.493	22896
881.619	22748
881.746	22778
881.872	22710
881.999	22782
882.125	22668
882.252	22683
882.378	22637
882.505	22805
882.631	22588
882.757	22474
882.883	22478
883.01	22280
883.136	22352
883.262	22177
883.388	22200
883.514	22466
883.64	22504
883.766	22371
883.892	22154
884.018	22234
884.143	22379
884.269	22470
884.395	22036
884.52	21949
884.646	22070
884.772	22086
884.897	21869
885.023	22078
885.148	22097
885.274	22234
885.399	22223
885.524	22063
885.65	22082
885.775	22036
885.9	22044
886.025	22040
886.15	22090
886.275	22010
886.4	21892
886.525	22029
886.65	21861
886.775	21857
886.9	22093
887.025	22265
887.149	22109
887.274	21804
887.399	21793
887.523	21823
887.648	21671
887.773	21831
887.897	21892
888.021	21751
888.146	21614
888.27	21823
888.395	21998
888.519	21819
888.643	21751
888.767	21899
888.891	21629
889.015	21587
889.139	21606
889.263	21542
889.387	21713
889.511	21766
889.635	21698
889.759	21633
889.883	21610
890.006	21561
890.13	21610
890.254	21530
890.377	21481
890.501	21435
890.624	21249
890.748	21389
890.871	21275
890.995	21142
891.118	21055
891.241	21249
891.364	21093
891.488	21195
891.611	21154
891.734	21127
891.857	21138
891.98	21180
892.103	21135
892.226	21108
892.349	20979
892.471	20906
892.594	21055
892.717	21036
892.839	21104
892.962	20944
893.085	20994
893.207	21131
893.33	20941
893.452	20986
893.575	21032
893.697	20963
893.819	21184
893.941	21245
894.064	21157
894.186	21013
894.308	20967
894.43	21150
894.552	21138
894.674	21005
894.796	20895
894.918	20864
895.04	20944
895.161	20963
895.283	21112
895.405	20887
895.526	21005
895.648	20956
895.769	21207
895.891	21005
896.012	21112
896.134	21070
896.255	21093
896.376	20872
896.498	21024
896.619	21058
896.74	21051
896.861	20906
896.982	21245
897.103	21382
897.224	21169
897.345	21256
897.466	21138
897.587	21222
897.708	21310
897.828	21135
897.949	21173
898.07	20982
898.19	21085
898.311	21222
898.431	21169
898.552	21165
898.672	21252
898.792	21302
898.913	21241
899.033	21020
899.153	20910
899.273	20906
899.393	20944
899.513	20956
899.633	20902
899.753	20956
899.873	20819
899.993	21017
900.113	20849
900.232	20948
900.352	20849
900.472	20716
900.591	20651
900.711	20724
900.83	20522
900.95	20754
901.069	20701
901.189	20545
901.308	20324
901.427	20214
901.546	20301
901.665	20309
901.784	20393
901.904	20161
902.023	20024
902.141	19932
902.26	19883
902.379	19978
902.498	19807
902.617	19765
902.735	19700
902.854	19769
902.973	19696
903.091	19419
903.21	19476
903.328	19506
903.446	19339
903.565	19244
903.683	19213
903.801	19145
903.919	19126
904.038	19244
904.156	19008
904.274	18989
904.392	18939
904.51	19034
904.627	18989
904.745	19061
904.863	19042
904.981	18776
905.098	18665
905.216	18601
905.334	18707
905.451	18795
905.569	18726
905.686	18726
905.803	18604
905.921	18418
906.038	18479
906.155	18498
906.272	18361
906.389	18247
906.506	18102
906.623	18281
906.74	18129
906.857	18209
906.974	17984
907.091	18262
907.208	18342
907.324	18133
907.441	18026
907.557	17916
907.674	17790
907.79	17893
907.907	17923
908.023	17935
908.139	17893
908.256	17824
908.372	17767
908.488	17745
908.604	17687
908.72	17562
908.836	17562
908.952	17570
909.068	17619
909.184	17672
909.3	17482
909.415	17573
909.531	17554
909.647	17368
909.762	17296
909.878	17239
909.993	17379
910.108	17250
910.224	17303
910.339	17288
910.454	17197
910.57	17064
910.685	17037
910.8	17197
910.915	17273
911.03	17113
911.145	17010
911.259	16953
911.374	16934
911.489	16862
911.604	16691
911.718	16656
911.833	16596
911.947	16478
912.062	16580
912.176	16538
912.291	16664
912.405	16596
912.519	16824
912.633	16767
912.748	16717
912.862	16603
912.976	16550
913.09	16329
913.204	16413
913.318	16436
913.431	16481
913.545	16531
913.659	16512
913.772	16447
913.886	16344
914	16272
914.113	16337
914.226	16276
914.34	16318
914.453	16010
914.566	16299
914.68	16128
914.793	16025
914.906	15850
915.019	15873
915.132	15736
915.245	15876
915.358	15865
915.47	15869
915.583	15671
915.696	15899
915.809	15899
915.921	15930
916.034	15762
916.146	15713
916.259	15644
916.371	15819
916.483	15736
916.595	15591
916.708	15618
916.82	15553
916.932	15545
917.044	15625
917.156	15515
917.268	15519
917.38	15549
917.491	15507
917.603	15431
917.715	15519
917.826	15538
917.938	15351
918.049	15165
918.161	15325
918.272	15443
918.384	15549
918.495	15351
918.606	15180
918.717	15108
918.828	15214
918.939	15192
919.05	15161
919.161	15135
919.272	14929
919.383	15036
919.494	15222
919.604	15317
919.715	15188
919.826	15047
919.936	15161
920.047	15173
920.157	15157
920.267	15355
920.378	15173
920.488	15100
920.598	15233
920.708	15485
920.818	15218
920.928	15203
921.038	15462
921.148	15359
921.258	14998
921.368	14937
921.477	14807
921.587	14731
921.697	14746
921.806	14807
921.916	14670
922.025	14617
922.134	14476
922.244	14473
922.353	14465
922.462	14366
922.571	14332
922.68	14248
922.789	14096
922.898	14103
923.007	14073
923.116	14058
923.224	14046
923.333	14058
923.442	13921
923.55	13898
923.659	13967
923.767	14096
923.876	13936
923.984	13989
924.092	13811
924.201	13921
924.309	13967
924.417	13921
924.525	13746
924.633	13833
924.741	14541
924.849	13559
924.956	13708
925.064	13597
925.172	13556
925.279	13487
925.387	13556
925.494	13487
925.602	13563
925.709	13491
925.816	13441
925.924	13510
926.031	13559
926.138	13362
926.245	13499
926.352	13324
926.459	13472
926.566	13518
926.673	13354
926.779	13247
926.886	13190
926.993	13156
927.099	13050
927.206	13053
927.312	13034
927.419	13023
927.525	12977
927.631	13088
927.737	12924
927.843	12894
927.95	12802
928.056	12878
928.162	12905
928.267	12962
928.373	13483
928.479	12996
928.585	12757
928.69	12840
928.796	12867
928.901	12711
929.007	12654
929.112	12726
929.218	12642
929.323	12563
929.428	12597
929.533	12673
929.638	12540
929.743	12475
929.848	12627
929.953	12570
930.058	12380
930.163	12334
930.267	12281
930.372	12342
930.477	12224
930.581	12380
930.685	12254
930.79	12106
930.894	12144
930.998	12148
931.103	12220
931.207	11821
931.311	11756
931.415	11726
931.519	11490
931.623	11524
