Data from test_V78500241_1184.txt Node
Date: Fri Mar 25 15:50:00 CST 2022
User: usil
Spectrometer: V785-0024
Trigger mode: 0
Integration Time (sec): 4.000000E-1
Scans to average: 1
Nonlinearity correction enabled: false
Boxcar width: 0
Storing dark spectrum: false
XAxis mode: Wavelengths
Number of Pixels in Spectrum: 1024
>>>>>Begin Spectral Data<<<<<
801.071	28702
801.214	28618
801.356	28398
801.499	28329
801.641	28253
801.783	28192
801.926	28329
802.068	28318
802.211	28070
802.353	28025
802.496	27968
802.638	27835
802.78	27911
802.923	27739
803.065	27701
803.208	27854
803.35	27854
803.492	28010
803.635	28017
803.777	27994
803.919	28249
804.061	28363
804.204	28219
804.346	27994
804.488	27960
804.63	27956
804.773	28006
804.915	28112
805.057	28249
805.199	28036
805.341	28310
805.483	28322
805.626	28295
805.768	28303
805.91	28242
806.052	28401
806.194	28223
806.336	28440
806.478	28592
806.62	28291
806.762	28550
806.904	28706
807.046	28801
807.188	28675
807.33	28782
807.472	28869
807.614	28759
807.756	28850
807.898	28618
808.04	28618
808.182	28634
808.324	28664
808.465	28660
808.607	28881
808.749	29029
808.891	28972
809.033	29273
809.174	29254
809.316	28957
809.458	29094
809.6	29037
809.741	29181
809.883	29143
810.025	29235
810.166	29269
810.308	29265
810.45	29326
810.591	29391
810.733	29113
810.875	29018
811.016	28923
811.158	28961
811.299	29151
811.441	29208
811.582	29220
811.724	29060
811.865	29044
812.007	28980
812.148	29117
812.29	29014
812.431	29239
812.573	29398
812.714	29395
812.855	29543
812.997	29642
813.138	29665
813.279	29672
813.421	29805
813.562	29429
813.703	29497
813.845	29265
813.986	29109
814.127	28748
814.268	28740
814.41	28915
814.551	28828
814.692	28831
814.833	28710
814.974	28782
815.115	28702
815.256	28580
815.397	28653
815.539	28573
815.68	28519
815.821	28421
815.962	28527
816.103	28584
816.244	28466
816.385	28314
816.526	28272
816.666	28086
816.807	28139
816.948	28265
817.089	28116
817.23	28017
817.371	27972
817.512	28044
817.653	28147
817.793	27983
817.934	28055
818.075	28051
818.216	28067
818.356	28063
818.497	28032
818.638	27812
818.778	27743
818.919	27857
819.06	27850
819.2	28017
819.341	28032
819.481	28097
819.622	28265
819.762	28352
819.903	28272
820.043	28234
820.184	28234
820.324	28177
820.465	28215
820.605	28139
820.746	28116
820.886	28063
821.026	28112
821.167	28162
821.307	28276
821.447	28055
821.588	27953
821.728	27774
821.868	27625
822.008	27705
822.149	27466
822.289	27652
822.429	27401
822.569	27325
822.709	27230
822.849	26914
822.99	27013
823.13	26990
823.27	26891
823.41	26883
823.55	26785
823.69	26910
823.83	26929
823.97	26952
824.11	26731
824.25	26594
824.389	26705
824.529	26777
824.669	26705
824.809	26716
824.949	26872
825.089	26857
825.228	26705
825.368	26670
825.508	26625
825.648	26678
825.787	26651
825.927	26678
826.067	26434
826.206	26648
826.346	26613
826.485	26731
826.625	26594
826.765	26746
826.904	26594
827.044	26328
827.183	26412
827.323	26377
827.462	26507
827.601	26351
827.741	26332
827.88	26450
828.02	26259
828.159	26400
828.298	26351
828.437	26305
828.577	26176
828.716	26469
828.855	26229
828.994	25963
829.134	26111
829.273	26046
829.412	25936
829.551	25959
829.69	26077
829.829	26027
829.968	26081
830.107	26161
830.246	25928
830.385	25928
830.524	25841
830.663	25803
830.802	25685
830.941	25518
831.08	25655
831.219	25689
831.357	25677
831.496	25928
831.635	25506
831.774	25502
831.913	25476
832.051	25426
832.19	25369
832.329	25430
832.467	25495
832.606	25221
832.744	25304
832.883	25251
833.022	25247
833.16	25263
833.299	25324
833.437	25228
833.576	25270
833.714	25266
833.852	25301
833.991	25468
834.129	25331
834.267	25346
834.406	25388
834.544	25327
834.682	25350
834.821	25358
834.959	25411
835.097	25217
835.235	25457
835.373	25339
835.511	25411
835.65	25156
835.788	25145
835.926	25000
836.064	24966
836.202	24928
836.34	25183
836.478	25206
836.615	25091
836.753	25076
836.891	25236
837.029	25061
837.167	25099
837.305	25046
837.443	25004
837.58	25008
837.718	25091
837.856	24977
837.993	24966
838.131	24916
838.269	24833
838.406	24875
838.544	24745
838.681	24658
838.819	24551
838.956	24483
839.094	24426
839.231	24490
839.369	24551
839.506	24878
839.643	24559
839.781	24380
839.918	24258
840.055	24464
840.193	24464
840.33	24365
840.467	24441
840.604	24475
840.742	24700
840.879	24292
841.016	24258
841.153	24186
841.29	24464
841.427	24346
841.564	24559
841.701	24319
841.838	24319
841.975	24235
842.112	24232
842.249	24057
842.385	24144
842.522	24194
842.659	24098
842.796	24049
842.933	24076
843.069	24068
843.206	24106
843.343	24159
843.479	24205
843.616	24102
843.752	23996
843.889	23783
844.025	23992
844.162	23920
844.298	23996
844.435	23767
844.571	23897
844.708	23950
844.844	24003
844.98	24041
845.117	23916
845.253	23904
845.389	23703
845.525	23665
845.661	23756
845.798	23646
845.934	23623
846.07	23589
846.206	23672
846.342	23551
846.478	23577
846.614	23429
846.75	23242
846.886	23368
847.022	23353
847.158	23414
847.294	23334
847.429	23391
847.565	23322
847.701	23558
847.837	23018
847.972	23056
848.108	23216
848.244	23185
848.379	22835
848.515	22892
848.65	23064
848.786	22942
848.921	22824
849.057	22889
849.192	22995
849.328	22885
849.463	22904
849.598	22961
849.734	22828
849.869	22717
850.004	22748
850.14	22717
850.275	22607
850.41	22656
850.545	22630
850.68	22630
850.815	22824
850.95	22626
851.085	22717
851.22	22820
851.355	22687
851.49	22736
851.625	22717
851.76	22653
851.895	22656
852.03	22645
852.165	22649
852.299	22668
852.434	22679
852.569	22668
852.703	22641
852.838	22759
852.973	22763
853.107	22896
853.242	22717
853.376	22561
853.511	22344
853.645	22375
853.78	22683
853.914	22493
854.048	22455
854.183	22512
854.317	22577
854.451	22759
854.585	22516
854.72	22523
854.854	22618
854.988	22360
855.122	22424
855.256	22466
855.39	22519
855.524	22561
855.658	22398
855.792	22504
855.926	22550
856.06	22462
856.194	22542
856.327	22474
856.461	22474
856.595	22386
856.729	22386
856.862	22466
856.996	22478
857.13	22675
857.263	22596
857.397	22565
857.53	22375
857.664	22561
857.797	22481
857.931	22603
858.064	22497
858.197	22584
858.331	22440
858.464	22432
858.597	22337
858.731	22481
858.864	22455
858.997	22470
859.13	22455
859.263	22679
859.396	22516
859.529	22470
859.662	22394
859.795	22462
859.928	22504
860.061	22630
860.194	22698
860.327	22535
860.46	22489
860.592	22622
860.725	22630
860.858	22645
860.99	22493
861.123	22443
861.256	22569
861.388	22459
861.521	23178
861.653	22405
861.786	22291
861.918	22318
862.05	22177
862.183	22409
862.315	22344
862.447	22413
862.58	22360
862.712	22291
862.844	22188
862.976	22242
863.108	22265
863.24	22706
863.372	22215
863.504	22070
863.636	22230
863.768	22101
863.9	22147
864.032	22207
864.164	22238
864.296	22242
864.428	22344
864.559	22268
864.691	22261
864.823	22363
864.954	22223
865.086	22200
865.217	22082
865.349	21987
865.48	22078
865.612	22109
865.743	22139
865.875	22021
866.006	21975
866.137	22025
866.269	22131
866.4	22063
866.531	22070
866.662	22017
866.793	21983
866.924	21975
867.055	22059
867.186	21987
867.317	21945
867.448	21892
867.579	21972
867.71	21819
867.841	21911
867.972	22120
868.103	22032
868.233	21994
868.364	22025
868.495	22074
868.625	22166
868.756	22333
868.886	22166
869.017	22230
869.147	22386
869.278	22265
869.408	22226
869.539	22379
869.669	22337
869.799	22249
869.929	22394
870.06	22272
870.19	22550
870.32	22527
870.45	22474
870.58	22615
870.71	22710
870.84	22615
870.97	22569
871.1	22565
871.23	22786
871.36	22831
871.489	22752
871.619	22847
871.749	22877
871.879	22923
872.008	23033
872.138	22889
872.267	22710
872.397	22767
872.526	22759
872.656	22733
872.785	22683
872.915	22805
873.044	22866
873.173	22957
873.303	22869
873.432	22904
873.561	22896
873.69	22847
873.819	22824
873.948	22904
874.077	22873
874.206	22797
874.335	22801
874.464	22972
874.593	23048
874.722	23170
874.851	23041
874.979	23075
875.108	23094
875.237	22889
875.365	22984
875.494	23117
875.623	23052
875.751	23006
875.88	23090
876.008	23197
876.136	23250
876.265	23429
876.393	23535
876.521	23600
876.65	23505
876.778	23455
876.906	23417
877.034	23349
877.162	23391
877.29	23307
877.418	23414
877.546	23402
877.674	23425
877.802	23322
877.93	23322
878.058	23322
878.185	23288
878.313	23402
878.441	23277
878.568	23159
878.696	23204
878.824	23444
878.951	23528
879.079	23497
879.206	23836
879.333	23558
879.461	23391
879.588	23440
879.715	23558
879.842	23665
879.97	23543
880.097	23307
880.224	23208
880.351	23277
880.478	23364
880.605	23235
880.732	23212
880.859	23448
880.986	23269
881.112	23273
881.239	23128
881.366	22991
881.493	22854
881.619	22771
881.746	22793
881.872	22767
881.999	22835
882.125	22744
882.252	22850
882.378	22812
882.505	22854
882.631	22630
882.757	22485
882.883	22500
883.01	22443
883.136	22257
883.262	22280
883.388	22310
883.514	22512
883.64	22390
883.766	22341
883.892	22230
884.018	22333
884.143	22451
884.269	22500
884.395	22154
884.52	22105
884.646	22006
884.772	22055
884.897	21972
885.023	22059
885.148	22093
885.274	22238
885.399	22101
885.524	22013
885.65	22196
885.775	22173
885.9	21918
886.025	22154
886.15	22173
886.275	21979
886.4	21945
886.525	22090
886.65	21911
886.775	22067
886.9	22299
887.025	22242
887.149	22059
887.274	21945
887.399	21812
887.523	21854
887.648	21759
887.773	21679
887.897	21808
888.021	21762
888.146	21663
888.27	21899
888.395	21972
888.519	21861
888.643	21915
888.767	21854
888.891	21690
889.015	21606
889.139	21663
889.263	21690
889.387	21827
889.511	21911
889.635	21759
889.759	21515
889.883	21717
890.006	21675
890.13	21660
890.254	21599
890.377	21580
890.501	21363
890.624	21230
890.748	21416
890.871	21287
890.995	21104
891.118	21165
891.241	21112
891.364	21260
891.488	21310
891.611	21260
891.734	21214
891.857	21249
891.98	21321
892.103	21173
892.226	21062
892.349	21154
892.471	21017
892.594	21180
892.717	21161
892.839	21051
892.962	21180
893.085	21123
893.207	21150
893.33	20948
893.452	20929
893.575	21154
893.697	21043
893.819	21203
893.941	21332
894.064	21214
894.186	21028
894.308	21047
894.43	21226
894.552	21100
894.674	21180
894.796	20910
894.918	21051
895.04	21058
895.161	21150
895.283	21142
895.405	20967
895.526	21077
895.648	20933
895.769	21089
895.891	21017
896.012	21146
896.134	21062
896.255	20998
896.376	21036
896.498	21146
896.619	21146
896.74	21074
896.861	21161
896.982	21469
897.103	21511
897.224	21310
897.345	21325
897.466	21222
897.587	21237
897.708	21408
897.828	21313
897.949	21214
898.07	21180
898.19	21249
898.311	21374
898.431	21245
898.552	21161
898.672	21218
898.792	21256
898.913	21363
899.033	21150
899.153	20994
899.273	20906
899.393	20979
899.513	20998
899.633	21028
899.753	21009
899.873	20944
899.993	20982
900.113	20979
900.232	20944
900.352	20906
900.472	20811
900.591	20731
900.711	20727
900.83	20708
900.95	20823
901.069	20853
901.189	20689
901.308	20507
901.427	20347
901.546	20317
901.665	20328
901.784	20298
901.904	20168
902.023	20122
902.141	20001
902.26	19849
902.379	19986
902.498	19776
902.617	19776
902.735	19875
902.854	19799
902.973	19666
903.091	19502
903.21	19556
903.328	19430
903.446	19457
903.565	19350
903.683	19266
903.801	19194
903.919	19274
904.038	19259
904.156	19061
904.274	19057
904.392	19050
904.51	19046
904.627	19046
904.745	19050
904.863	19046
904.981	18867
905.098	18722
905.216	18650
905.334	18829
905.451	18730
905.569	18639
905.686	18715
905.803	18738
905.921	18517
906.038	18608
906.155	18502
906.272	18448
906.389	18437
906.506	18243
906.623	18243
906.74	18270
906.857	18136
906.974	18201
907.091	18338
907.208	18338
907.324	18216
907.441	18057
907.557	18083
907.674	17954
907.79	17882
907.907	17912
908.023	17992
908.139	17961
908.256	17901
908.372	17885
908.488	17828
908.604	17680
908.72	17668
908.836	17634
908.952	17642
909.068	17703
909.184	17779
909.3	17653
909.415	17585
909.531	17649
909.647	17303
909.762	17440
909.878	17337
909.993	17554
910.108	17277
910.224	17296
910.339	17303
910.454	17117
910.57	17037
910.685	17109
910.8	17265
910.915	17303
911.03	17102
911.145	16968
911.259	16923
911.374	16843
911.489	16961
911.604	16740
911.718	16618
911.833	16679
911.947	16546
912.062	16561
912.176	16740
912.291	16744
912.405	16698
912.519	16847
912.633	16877
912.748	16656
912.862	16573
912.976	16504
913.09	16394
913.204	16466
913.318	16436
913.431	16580
913.545	16455
913.659	16478
913.772	16356
913.886	16356
914	16280
914.113	16299
914.226	16360
914.34	16265
914.453	16112
914.566	16242
914.68	16173
914.793	16078
914.906	15854
915.019	15884
915.132	15739
915.245	15808
915.358	15759
915.47	15842
915.583	15884
915.696	15892
915.809	16002
915.921	15918
916.034	15873
916.146	15785
916.259	15690
916.371	15835
916.483	15762
916.595	15633
916.708	15724
916.82	15614
916.932	15572
917.044	15587
917.156	15603
917.268	15564
917.38	15507
917.491	15397
917.603	15424
917.715	15492
917.826	15587
917.938	15389
918.049	15310
918.161	15325
918.272	15526
918.384	15485
918.495	15405
918.606	15268
918.717	15119
918.828	15237
918.939	15275
919.05	15066
919.161	15165
919.272	15066
919.383	15039
919.494	15264
919.604	15401
919.715	15131
919.826	15028
919.936	15108
920.047	15252
920.157	15176
920.267	15386
920.378	15230
920.488	15157
920.598	15378
920.708	15386
920.818	15321
920.928	15207
921.038	15450
921.148	15424
921.258	15081
921.368	15017
921.477	14910
921.587	14933
921.697	14777
921.806	14883
921.916	14689
922.025	14594
922.134	14522
922.244	14640
922.353	14590
922.462	14446
922.571	14389
922.68	14248
922.789	14221
922.898	14134
923.007	14164
923.116	14168
923.224	14126
923.333	14168
923.442	14062
923.55	13978
923.659	14050
923.767	14077
923.876	13894
923.984	14020
924.092	13826
924.201	13887
924.309	13864
924.417	13883
924.525	13761
924.633	13856
924.741	14564
924.849	13685
924.956	13799
925.064	13586
925.172	13476
925.279	13605
925.387	13571
925.494	13563
925.602	13704
925.709	13601
925.816	13430
925.924	13502
926.031	13567
926.138	13487
926.245	13544
926.352	13411
926.459	13563
926.566	13533
926.673	13430
926.779	13327
926.886	13289
926.993	13137
927.099	13080
927.206	13008
927.312	13031
927.419	13164
927.525	13168
927.631	13061
927.737	12943
927.843	12932
927.95	12806
928.056	12867
928.162	12859
928.267	12977
928.373	13624
928.479	12935
928.585	12726
928.69	12859
928.796	12947
928.901	12783
929.007	12544
929.112	12707
929.218	12654
929.323	12604
929.428	12681
929.533	12749
929.638	12563
929.743	12582
929.848	12608
929.953	12570
930.058	12486
930.163	12213
930.267	12270
930.372	12369
930.477	12289
930.581	12479
930.685	12262
930.79	12209
930.894	12220
930.998	12152
931.103	12254
931.207	11878
931.311	11790
931.415	11748
931.519	11619
931.623	11482
