Data from test_V78500241_1222.txt Node
Date: Fri Mar 25 15:50:15 CST 2022
User: usil
Spectrometer: V785-0024
Trigger mode: 0
Integration Time (sec): 4.000000E-1
Scans to average: 1
Nonlinearity correction enabled: false
Boxcar width: 0
Storing dark spectrum: false
XAxis mode: Wavelengths
Number of Pixels in Spectrum: 1024
>>>>>Begin Spectral Data<<<<<
801.071	28801
801.214	28729
801.356	28466
801.499	28462
801.641	28390
801.783	28253
801.926	28447
802.068	28394
802.211	28401
802.353	28211
802.496	27979
802.638	28006
802.78	28051
802.923	28002
803.065	27876
803.208	28006
803.35	28090
803.492	28082
803.635	28253
803.777	28200
803.919	28344
804.061	28615
804.204	28375
804.346	28215
804.488	28112
804.63	28234
804.773	28048
804.915	28314
805.057	28413
805.199	28139
805.341	28382
805.483	28443
805.626	28474
805.768	28421
805.91	28508
806.052	28497
806.194	28424
806.336	28622
806.478	28421
806.62	28455
806.762	28683
806.904	28729
807.046	29022
807.188	28869
807.33	28877
807.472	29029
807.614	28820
807.756	28767
807.898	28736
808.04	28801
808.182	28805
808.324	28759
808.465	28771
808.607	29006
808.749	29121
808.891	29064
809.033	29345
809.174	29143
809.316	29136
809.458	29189
809.6	29121
809.741	29326
809.883	29311
810.025	29448
810.166	29516
810.308	29490
810.45	29364
810.591	29372
810.733	29200
810.875	29136
811.016	29102
811.158	28961
811.299	29288
811.441	29223
811.582	29315
811.724	29181
811.865	29117
812.007	29109
812.148	29090
812.29	29204
812.431	29223
812.573	29501
812.714	29562
812.855	29668
812.997	29897
813.138	29885
813.279	29866
813.421	29653
813.562	29547
813.703	29551
813.845	29539
813.986	29220
814.127	28946
814.268	28938
814.41	28915
814.551	28820
814.692	28873
814.833	28949
814.974	28881
815.115	28869
815.256	28679
815.397	28698
815.539	28771
815.68	28649
815.821	28713
815.962	28626
816.103	28607
816.244	28607
816.385	28485
816.526	28478
816.666	28333
816.807	28150
816.948	28253
817.089	28249
817.23	28234
817.371	28219
817.512	28177
817.653	28177
817.793	28166
817.934	28253
818.075	28291
818.216	28246
818.356	28139
818.497	28223
818.638	27884
818.778	27972
818.919	27922
819.06	27930
819.2	28105
819.341	28287
819.481	28169
819.622	28367
819.762	28550
819.903	28474
820.043	28371
820.184	28360
820.324	28432
820.465	28443
820.605	28325
820.746	28310
820.886	28112
821.026	28303
821.167	28287
821.307	28459
821.447	28295
821.588	28249
821.728	27987
821.868	27899
822.008	27686
822.149	27812
822.289	27618
822.429	27439
822.569	27344
822.709	27233
822.849	27252
822.99	27241
823.13	27108
823.27	27142
823.41	27104
823.55	26933
823.69	27032
823.83	27062
823.97	26971
824.11	26960
824.25	26697
824.389	26838
824.529	26925
824.669	26944
824.809	26872
824.949	26895
825.089	27036
825.228	26921
825.368	26826
825.508	26777
825.648	26716
825.787	26830
825.927	26708
826.067	26667
826.206	26648
826.346	26781
826.485	26750
826.625	26667
826.765	26785
826.904	26804
827.044	26476
827.183	26450
827.323	26381
827.462	26530
827.601	26522
827.741	26556
827.88	26446
828.02	26332
828.159	26438
828.298	26552
828.437	26434
828.577	26355
828.716	26545
828.855	26412
828.994	26187
829.134	26176
829.273	26206
829.412	26191
829.551	26145
829.69	26134
829.829	26153
829.968	26248
830.107	26244
830.246	26115
830.385	26172
830.524	26096
830.663	25940
830.802	25883
830.941	25765
831.08	25708
831.219	25837
831.357	25776
831.496	26088
831.635	25814
831.774	25597
831.913	25571
832.051	25521
832.19	25556
832.329	25487
832.467	25453
832.606	25297
832.744	25449
832.883	25354
833.022	25327
833.16	25419
833.299	25453
833.437	25556
833.576	25403
833.714	25616
833.852	25449
833.991	25525
834.129	25616
834.267	25586
834.406	25479
834.544	25575
834.682	25377
834.821	25476
834.959	25586
835.097	25506
835.235	25506
835.373	25476
835.511	25472
835.65	25346
835.788	25407
835.926	25126
836.064	25137
836.202	25304
836.34	25365
836.478	25285
836.615	25301
836.753	25445
836.891	25403
837.029	25476
837.167	25316
837.305	25304
837.443	25247
837.58	25320
837.718	25251
837.856	25133
837.993	25107
838.131	25080
838.269	25065
838.406	25012
838.544	24977
838.681	24901
838.819	24745
838.956	24726
839.094	24528
839.231	24646
839.369	24897
839.506	24943
839.643	24951
839.781	24528
839.918	24551
840.055	24650
840.193	24601
840.33	24525
840.467	24460
840.604	24555
840.742	24639
840.879	24448
841.016	24483
841.153	24365
841.29	24555
841.427	24505
841.564	24456
841.701	24563
841.838	24433
841.975	24357
842.112	24418
842.249	24384
842.385	24281
842.522	24486
842.659	24327
842.796	24243
842.933	24273
843.069	24296
843.206	24140
843.343	24243
843.479	24338
843.616	24201
843.752	24129
843.889	24060
844.025	24171
844.162	23996
844.298	24098
844.435	23984
844.571	24083
844.708	24148
844.844	24209
844.98	24163
845.117	24155
845.253	23958
845.389	23973
845.525	23893
845.661	23904
845.798	23661
845.934	23771
846.07	23710
846.206	23809
846.342	24003
846.478	23805
846.614	23497
846.75	23566
846.886	23493
847.022	23520
847.158	23471
847.294	23455
847.429	23482
847.565	23353
847.701	23672
847.837	23280
847.972	23178
848.108	23242
848.244	23292
848.379	23033
848.515	23105
848.65	23185
848.786	23200
848.921	23132
849.057	23181
849.192	23200
849.328	23242
849.463	22987
849.598	23075
849.734	22991
849.869	22927
850.004	22809
850.14	22790
850.275	22946
850.41	22854
850.545	22805
850.68	22710
850.815	22862
850.95	22801
851.085	23048
851.22	22850
851.355	22892
851.49	22858
851.625	22710
851.76	22801
851.895	22740
852.03	22759
852.165	22866
852.299	22965
852.434	22987
852.569	22866
852.703	22816
852.838	22927
852.973	22957
853.107	22843
853.242	22713
853.376	22668
853.511	22656
853.645	22573
853.78	22767
853.914	22683
854.048	22607
854.183	22641
854.317	22660
854.451	22862
854.585	22577
854.72	22630
854.854	22611
854.988	22588
855.122	22691
855.256	22561
855.39	22577
855.524	22637
855.658	22615
855.792	22736
855.926	22653
856.06	22675
856.194	22710
856.327	22660
856.461	22462
856.595	22577
856.729	22478
856.862	22812
856.996	22660
857.13	22645
857.263	22805
857.397	22702
857.53	22535
857.664	22748
857.797	22748
857.931	22755
858.064	22508
858.197	22816
858.331	22683
858.464	22405
858.597	22622
858.731	22546
858.864	22622
858.997	22466
859.13	22649
859.263	22630
859.396	22656
859.529	22588
859.662	22573
859.795	22588
859.928	22675
860.061	22763
860.194	22869
860.327	22748
860.46	22634
860.592	22603
860.725	22881
860.858	22744
860.99	22656
861.123	22470
861.256	22535
861.388	22725
861.521	23387
861.653	22538
861.786	22421
861.918	22508
862.05	22516
862.183	22561
862.315	22634
862.447	22618
862.58	22584
862.712	22348
862.844	22188
862.976	22432
863.108	22394
863.24	22824
863.372	22341
863.504	22303
863.636	22295
863.768	22356
863.9	22371
864.032	22238
864.164	22318
864.296	22325
864.428	22497
864.559	22363
864.691	22462
864.823	22421
864.954	22333
865.086	22314
865.217	22211
865.349	22055
865.48	22272
865.612	22173
865.743	22265
865.875	22135
866.006	22185
866.137	22124
866.269	22128
866.4	22207
866.531	22139
866.662	22196
866.793	22105
866.924	22200
867.055	22147
867.186	22070
867.317	22116
867.448	22059
867.579	22154
867.71	21949
867.841	22059
867.972	22169
868.103	22120
868.233	22177
868.364	22166
868.495	22139
868.625	22318
868.756	22371
868.886	22219
869.017	22352
869.147	22428
869.278	22493
869.408	22424
869.539	22322
869.669	22440
869.799	22500
869.929	22500
870.06	22421
870.19	22710
870.32	22679
870.45	22668
870.58	22767
870.71	22850
870.84	22831
870.97	22805
871.1	22850
871.23	22995
871.36	22972
871.489	22869
871.619	22995
871.749	22968
871.879	23086
872.008	23140
872.138	22930
872.267	22968
872.397	22892
872.526	22729
872.656	22835
872.785	22869
872.915	23010
873.044	22961
873.173	22987
873.303	22976
873.432	22995
873.561	23090
873.69	23014
873.819	22987
873.948	23048
874.077	23029
874.206	22854
874.335	22949
874.464	23025
874.593	23220
874.722	23204
874.851	23254
874.979	23151
875.108	23162
875.237	23147
875.365	23155
875.494	23208
875.623	23292
875.751	23269
875.88	23307
876.008	23307
876.136	23258
876.265	23570
876.393	23771
876.521	23687
876.65	23684
876.778	23672
876.906	23463
877.034	23528
877.162	23562
877.29	23585
877.418	23581
877.546	23516
877.674	23520
877.802	23486
877.93	23497
878.058	23463
878.185	23425
878.313	23478
878.441	23497
878.568	23376
878.696	23531
878.824	23497
878.951	23611
879.079	23767
879.206	23813
879.333	23623
879.461	23649
879.588	23619
879.715	23646
879.842	23733
879.97	23505
880.097	23383
880.224	23417
880.351	23231
880.478	23459
880.605	23315
880.732	23315
880.859	23596
880.986	23448
881.112	23376
881.239	23303
881.366	23041
881.493	23083
881.619	22953
881.746	22972
881.872	22904
881.999	22858
882.125	22850
882.252	22919
882.378	22816
882.505	23064
882.631	22729
882.757	22580
882.883	22691
883.01	22584
883.136	22497
883.262	22474
883.388	22371
883.514	22615
883.64	22630
883.766	22535
883.892	22322
884.018	22367
884.143	22656
884.269	22577
884.395	22280
884.52	22181
884.646	22356
884.772	22135
884.897	22150
885.023	22303
885.148	22211
885.274	22356
885.399	22344
885.524	22188
885.65	22238
885.775	22223
885.9	22139
886.025	22344
886.15	22284
886.275	22185
886.4	22154
886.525	22204
886.65	22051
886.775	22135
886.9	22261
887.025	22417
887.149	22284
887.274	22017
887.399	22021
887.523	22017
887.648	21937
887.773	21854
887.897	22002
888.021	22055
888.146	21960
888.27	22090
888.395	22082
888.519	21934
888.643	22017
888.767	22006
888.891	21819
889.015	21797
889.139	21778
889.263	21812
889.387	21873
889.511	21873
889.635	21915
889.759	21633
889.883	21747
890.006	21797
890.13	21793
890.254	21641
890.377	21793
890.501	21466
890.624	21454
890.748	21595
890.871	21530
890.995	21412
891.118	21294
891.241	21298
891.364	21344
891.488	21424
891.611	21306
891.734	21313
891.857	21374
891.98	21378
892.103	21416
892.226	21298
892.349	21195
892.471	21173
892.594	21222
892.717	21279
892.839	21287
892.962	21233
893.085	21119
893.207	21207
893.33	21116
893.452	21119
893.575	21298
893.697	21093
893.819	21268
893.941	21332
894.064	21374
894.186	21180
894.308	21154
894.43	21203
894.552	21268
894.674	21211
894.796	21116
894.918	21085
895.04	21116
895.161	21222
895.283	21218
895.405	21024
895.526	21077
895.648	21188
895.769	21142
895.891	21161
896.012	21233
896.134	21272
896.255	21218
896.376	21184
896.498	21252
896.619	21233
896.74	21195
896.861	21108
896.982	21469
897.103	21629
897.224	21473
897.345	21530
897.466	21279
897.587	21401
897.708	21542
897.828	21439
897.949	21264
898.07	21245
898.19	21226
898.311	21473
898.431	21199
898.552	21272
898.672	21450
898.792	21481
898.913	21329
899.033	21207
899.153	21154
899.273	21062
899.393	21104
899.513	21154
899.633	21047
899.753	21058
899.873	20990
899.993	21161
900.113	21020
900.232	20975
900.352	20918
900.472	20952
900.591	20895
900.711	20891
900.83	20724
900.95	20834
901.069	20960
901.189	20796
901.308	20530
901.427	20377
901.546	20480
901.665	20362
901.784	20412
901.904	20259
902.023	20130
902.141	19993
902.26	19932
902.379	19951
902.498	20016
902.617	19902
902.735	19947
902.854	19940
902.973	19822
903.091	19670
903.21	19556
903.328	19586
903.446	19495
903.565	19335
903.683	19422
903.801	19232
903.919	19301
904.038	19396
904.156	19183
904.274	19244
904.392	19122
904.51	19122
904.627	19118
904.745	19232
904.863	19114
904.981	18993
905.098	18802
905.216	18916
905.334	18859
905.451	18734
905.569	18840
905.686	18943
905.803	18673
905.921	18551
906.038	18673
906.155	18563
906.272	18479
906.389	18506
906.506	18414
906.623	18334
906.74	18361
906.857	18224
906.974	18213
907.091	18437
907.208	18475
907.324	18414
907.441	18239
907.557	18091
907.674	18057
907.79	17992
907.907	18038
908.023	17958
908.139	18060
908.256	17958
908.372	17977
908.488	17813
908.604	17786
908.72	17737
908.836	17851
908.952	17741
909.068	17733
909.184	17767
909.3	17722
909.415	17764
909.531	17821
909.647	17528
909.762	17535
909.878	17509
909.993	17398
910.108	17402
910.224	17398
910.339	17414
910.454	17277
910.57	17227
910.685	17181
910.8	17463
910.915	17387
911.03	17269
911.145	17105
911.259	16999
911.374	17045
911.489	16953
911.604	16877
911.718	16782
911.833	16828
911.947	16721
912.062	16546
912.176	16854
912.291	16824
912.405	16710
912.519	16946
912.633	16942
912.748	16763
912.862	16702
912.976	16668
913.09	16474
913.204	16478
913.318	16466
913.431	16694
913.545	16694
913.659	16660
913.772	16561
913.886	16379
914	16348
914.113	16440
914.226	16462
914.34	16440
914.453	16188
914.566	16375
914.68	16287
914.793	16188
914.906	16002
915.019	15854
915.132	15941
915.245	15838
915.358	15964
915.47	15888
915.583	15907
915.696	15945
915.809	16051
915.921	16017
916.034	15941
916.146	15762
916.259	15819
916.371	15968
916.483	15865
916.595	15793
916.708	15751
916.82	15789
916.932	15709
917.044	15652
917.156	15648
917.268	15694
917.38	15675
917.491	15526
917.603	15633
917.715	15671
917.826	15652
917.938	15458
918.049	15401
918.161	15374
918.272	15599
918.384	15648
918.495	15488
918.606	15264
918.717	15272
918.828	15313
918.939	15401
919.05	15165
919.161	15203
919.272	15180
919.383	15188
919.494	15298
919.604	15469
919.715	15207
919.826	15180
919.936	15256
920.047	15439
920.157	15367
920.267	15507
920.378	15226
920.488	15199
920.598	15488
920.708	15462
920.818	15443
920.928	15351
921.038	15603
921.148	15450
921.258	15169
921.368	15074
921.477	14929
921.587	14948
921.697	14785
921.806	14918
921.916	14788
922.025	14655
922.134	14632
922.244	14606
922.353	14617
922.462	14518
922.571	14457
922.68	14332
922.789	14286
922.898	14294
923.007	14119
923.116	14324
923.224	14233
923.333	14145
923.442	14069
923.55	14065
923.659	14149
923.767	14157
923.876	14031
923.984	14081
924.092	13894
924.201	14043
924.309	13993
924.417	13917
924.525	13845
924.633	13947
924.741	14594
924.849	13734
924.956	13833
925.064	13620
925.172	13613
925.279	13601
925.387	13616
925.494	13605
925.602	13757
925.709	13704
925.816	13426
925.924	13499
926.031	13662
926.138	13533
926.245	13590
926.352	13301
926.459	13552
926.566	13521
926.673	13499
926.779	13346
926.886	13426
926.993	13232
927.099	13225
927.206	13164
927.312	13110
927.419	13213
927.525	13126
927.631	13190
927.737	13046
927.843	12958
927.95	12935
928.056	13034
928.162	13076
928.267	12909
928.373	13609
928.479	13008
928.585	12802
928.69	12935
928.796	12970
928.901	12920
929.007	12612
929.112	12783
929.218	12707
929.323	12715
929.428	12696
929.533	12787
929.638	12597
929.743	12627
929.848	12696
929.953	12620
930.058	12525
930.163	12361
930.267	12418
930.372	12467
930.477	12407
930.581	12566
930.685	12452
930.79	12327
930.894	12171
930.998	12197
931.103	12338
931.207	11988
931.311	11893
931.415	11794
931.519	11619
931.623	11570
