Data from test_V78500241_2592.txt Node
Date: Fri Mar 25 15:59:45 CST 2022
User: usil
Spectrometer: V785-0024
Trigger mode: 0
Integration Time (sec): 4.000000E-1
Scans to average: 1
Nonlinearity correction enabled: false
Boxcar width: 0
Storing dark spectrum: false
XAxis mode: Wavelengths
Number of Pixels in Spectrum: 1024
>>>>>Begin Spectral Data<<<<<
801.071	28645
801.214	28531
801.356	28261
801.499	28242
801.641	28139
801.783	28230
801.926	28105
802.068	28044
802.211	28086
802.353	27930
802.496	27930
802.638	27880
802.78	27983
802.923	27728
803.065	27812
803.208	27914
803.35	27846
803.492	28013
803.635	27934
803.777	27895
803.919	28112
804.061	28272
804.204	28166
804.346	27808
804.488	27895
804.63	28048
804.773	27934
804.915	28112
805.057	28223
805.199	28143
805.341	28090
805.483	28093
805.626	28303
805.768	28090
805.91	28284
806.052	28169
806.194	28109
806.336	28367
806.478	28265
806.62	28147
806.762	28379
806.904	28508
807.046	28649
807.188	28626
807.33	28694
807.472	28755
807.614	28717
807.756	28656
807.898	28550
808.04	28462
808.182	28474
808.324	28440
808.465	28569
808.607	28763
808.749	28820
808.891	28797
809.033	28968
809.174	28885
809.316	28957
809.458	28843
809.6	28797
809.741	29022
809.883	29060
810.025	29181
810.166	29395
810.308	29189
810.45	29200
810.591	29003
810.733	28850
810.875	28820
811.016	28797
811.158	28740
811.299	29037
811.441	29083
811.582	29003
811.724	28980
811.865	28927
812.007	28873
812.148	28854
812.29	28934
812.431	29170
812.573	29303
812.714	29360
812.855	29463
812.997	29535
813.138	29665
813.279	29653
813.421	29337
813.562	29299
813.703	29223
813.845	29071
813.986	28767
814.127	28717
814.268	28706
814.41	28580
814.551	28641
814.692	28637
814.833	28527
814.974	28504
815.115	28649
815.256	28322
815.397	28523
815.539	28405
815.68	28417
815.821	28299
815.962	28436
816.103	28379
816.244	28367
816.385	28318
816.526	28131
816.666	28006
816.807	27842
816.948	27934
817.089	28101
817.23	27922
817.371	27800
817.512	27922
817.653	27846
817.793	27876
817.934	27949
818.075	28048
818.216	28040
818.356	27808
818.497	27880
818.638	27595
818.778	27698
818.919	27762
819.06	27652
819.2	27911
819.341	27808
819.481	27968
819.622	28105
819.762	28265
819.903	28158
820.043	28200
820.184	27972
820.324	28017
820.465	28112
820.605	28025
820.746	28055
820.886	27930
821.026	28082
821.167	27911
821.307	28025
821.447	27846
821.588	27873
821.728	27690
821.868	27656
822.008	27332
822.149	27397
822.289	27447
822.429	27085
822.569	27058
822.709	27184
822.849	27112
822.99	26811
823.13	26914
823.27	26861
823.41	26800
823.55	26636
823.69	26705
823.83	26716
823.97	26587
824.11	26461
824.25	26545
824.389	26503
824.529	26644
824.669	26651
824.809	26731
824.949	26613
825.089	26762
825.228	26571
825.368	26400
825.508	26412
825.648	26442
825.787	26632
825.927	26541
826.067	26374
826.206	26530
826.346	26381
826.485	26457
826.625	26651
826.765	26450
826.904	26522
827.044	26320
827.183	26214
827.323	26096
827.462	26153
827.601	26138
827.741	26244
827.88	26290
828.02	26065
828.159	26164
828.298	26229
828.437	26149
828.577	26016
828.716	26145
828.855	26096
828.994	25814
829.134	25830
829.273	25909
829.412	25677
829.551	25628
829.69	25765
829.829	25780
829.968	25986
830.107	25959
830.246	25791
830.385	25791
830.524	25742
830.663	25677
830.802	25540
830.941	25422
831.08	25396
831.219	25487
831.357	25571
831.496	25852
831.635	25582
831.774	25324
831.913	25381
832.051	25270
832.19	25308
832.329	25217
832.467	25225
832.606	25061
832.744	25213
832.883	25061
833.022	25232
833.16	25217
833.299	25110
833.437	25164
833.576	25095
833.714	25194
833.852	25251
833.991	25175
834.129	25339
834.267	25331
834.406	25278
834.544	25324
834.682	25137
834.821	25346
834.959	25316
835.097	25236
835.235	25282
835.373	25183
835.511	25175
835.65	25027
835.788	25023
835.926	24913
836.064	24779
836.202	24856
836.34	25046
836.478	25107
836.615	24989
836.753	25069
836.891	25118
837.029	25099
837.167	24890
837.305	25000
837.443	24817
837.58	24867
837.718	24985
837.856	24821
837.993	24711
838.131	24806
838.269	24760
838.406	24817
838.544	24734
838.681	24509
838.819	24555
838.956	24350
839.094	24330
839.231	24429
839.369	24376
839.506	24620
839.643	24563
839.781	24372
839.918	24285
840.055	24346
840.193	24308
840.33	24327
840.467	24163
840.604	24357
840.742	24551
840.879	24079
841.016	24076
841.153	24079
841.29	24365
841.427	24155
841.564	24194
841.701	24338
841.838	24232
841.975	24117
842.112	24224
842.249	24007
842.385	23992
842.522	24201
842.659	23958
842.796	23950
842.933	23996
843.069	23992
843.206	23840
843.343	24057
843.479	24034
843.616	23977
843.752	23745
843.889	23889
844.025	23996
844.162	23722
844.298	23836
844.435	23813
844.571	23653
844.708	23813
844.844	23939
844.98	23931
845.117	23809
845.253	23722
845.389	23657
845.525	23748
845.661	23672
845.798	23585
845.934	23509
846.07	23505
846.206	23551
846.342	23657
846.478	23410
846.614	23356
846.75	23235
846.886	23178
847.022	23318
847.158	23254
847.294	23318
847.429	23239
847.565	23147
847.701	23379
847.837	23037
847.972	22965
848.108	23064
848.244	23025
848.379	22911
848.515	22748
848.65	22854
848.786	22816
848.921	22790
849.057	22911
849.192	22930
849.328	22824
849.463	22892
849.598	22733
849.734	22645
849.869	22626
850.004	22630
850.14	22554
850.275	22618
850.41	22580
850.545	22599
850.68	22519
850.815	22672
850.95	22588
851.085	22645
851.22	22626
851.355	22538
851.49	22497
851.625	22489
851.76	22535
851.895	22497
852.03	22493
852.165	22470
852.299	22557
852.434	22698
852.569	22637
852.703	22607
852.838	22596
852.973	22630
853.107	22634
853.242	22538
853.376	22360
853.511	22276
853.645	22371
853.78	22382
853.914	22344
854.048	22455
854.183	22265
854.317	22550
854.451	22603
854.585	22527
854.72	22272
854.854	22603
854.988	22337
855.122	22379
855.256	22242
855.39	22356
855.524	22459
855.658	22478
855.792	22405
855.926	22405
856.06	22413
856.194	22405
856.327	22363
856.461	22314
856.595	22356
856.729	22451
856.862	22485
856.996	22424
857.13	22508
857.263	22428
857.397	22535
857.53	22344
857.664	22405
857.797	22352
857.931	22531
858.064	22363
858.197	22447
858.331	22405
858.464	22443
858.597	22386
858.731	22443
858.864	22265
858.997	22390
859.13	22390
859.263	22341
859.396	22546
859.529	22424
859.662	22249
859.795	22261
859.928	22325
860.061	22626
860.194	22508
860.327	22485
860.46	22474
860.592	22466
860.725	22664
860.858	22512
860.99	22485
861.123	22356
861.256	22367
861.388	22432
861.521	23022
861.653	22276
861.786	22139
861.918	22204
862.05	22333
862.183	22386
862.315	22257
862.447	22527
862.58	22287
862.712	22093
862.844	22215
862.976	22158
863.108	22177
863.24	22615
863.372	22017
863.504	22055
863.636	22097
863.768	22154
863.9	22173
864.032	22101
864.164	22017
864.296	22112
864.428	22086
864.559	22055
864.691	22181
864.823	22048
864.954	22116
865.086	22017
865.217	22002
865.349	21979
865.48	21884
865.612	21960
865.743	22128
865.875	22067
866.006	21979
866.137	22013
866.269	21941
866.4	21911
866.531	21972
866.662	21892
866.793	21857
866.924	21892
867.055	21915
867.186	21819
867.317	21880
867.448	21743
867.579	21903
867.71	21876
867.841	21732
867.972	21918
868.103	21861
868.233	22036
868.364	21857
868.495	21994
868.625	22124
868.756	22128
868.886	22101
869.017	22044
869.147	22238
869.278	22348
869.408	22166
869.539	22154
869.669	22105
869.799	22204
869.929	22238
870.06	22265
870.19	22451
870.32	22303
870.45	22535
870.58	22527
870.71	22710
870.84	22664
870.97	22702
871.1	22493
871.23	22771
871.36	22771
871.489	22584
871.619	22740
871.749	22683
871.879	22797
872.008	22938
872.138	22778
872.267	22748
872.397	22675
872.526	22672
872.656	22607
872.785	22569
872.915	22896
873.044	22839
873.173	22710
873.303	22748
873.432	22782
873.561	22854
873.69	22828
873.819	22755
873.948	22782
874.077	22649
874.206	22622
874.335	22786
874.464	22820
874.593	23071
874.722	22991
874.851	23006
874.979	23018
875.108	23044
875.237	22915
875.365	22949
875.494	22824
875.623	23033
875.751	23014
875.88	22889
876.008	23159
876.136	23170
876.265	23307
876.393	23452
876.521	23391
876.65	23581
876.778	23398
876.906	23326
877.034	23334
877.162	23425
877.29	23322
877.418	23376
877.546	23307
877.674	23277
877.802	23246
877.93	23299
878.058	23258
878.185	23246
878.313	23113
878.441	23261
878.568	23155
878.696	23299
878.824	23429
878.951	23368
879.079	23376
879.206	23516
879.333	23349
879.461	23395
879.588	23391
879.715	23592
879.842	23505
879.97	23246
880.097	23227
880.224	23105
880.351	23162
880.478	23071
880.605	23151
880.732	23166
880.859	23414
880.986	23155
881.112	23178
881.239	22995
881.366	22816
881.493	22809
881.619	22744
881.746	22698
881.872	22710
881.999	22649
882.125	22603
882.252	22691
882.378	22649
882.505	22812
882.631	22573
882.757	22394
882.883	22451
883.01	22341
883.136	22382
883.262	22246
883.388	22310
883.514	22341
883.64	22375
883.766	22265
883.892	22177
884.018	22253
884.143	22257
884.269	22337
884.395	22101
884.52	22025
884.646	21991
884.772	21979
884.897	21850
885.023	22109
885.148	22067
885.274	22120
885.399	22002
885.524	21979
885.65	21964
885.775	22063
885.9	21998
886.025	22158
886.15	22090
886.275	21983
886.4	21953
886.525	21949
886.65	21907
886.775	21892
886.9	22200
887.025	22150
887.149	21968
887.274	21751
887.399	21648
887.523	21774
887.648	21682
887.773	21629
887.897	21941
888.021	21819
888.146	21785
888.27	21880
888.395	21838
888.519	21816
888.643	21778
888.767	21835
888.891	21736
889.015	21523
889.139	21629
889.263	21496
889.387	21675
889.511	21778
889.635	21705
889.759	21519
889.883	21614
890.006	21648
890.13	21679
890.254	21519
890.377	21355
890.501	21321
890.624	21325
890.748	21538
890.871	21093
890.995	21074
891.118	21112
891.241	21036
891.364	21039
891.488	21214
891.611	21089
891.734	21104
891.857	21123
891.98	21055
892.103	21173
892.226	21085
892.349	20967
892.471	20925
892.594	21009
892.717	20990
892.839	20998
892.962	20906
893.085	21009
893.207	21146
893.33	21032
893.452	20937
893.575	20956
893.697	20933
893.819	21062
893.941	21108
894.064	21112
894.186	20948
894.308	20937
894.43	20990
894.552	21176
894.674	21108
894.796	20941
894.918	21036
895.04	21009
895.161	20994
895.283	21085
895.405	21028
895.526	21032
895.648	21058
895.769	20952
895.891	21051
896.012	21093
896.134	21058
896.255	20921
896.376	20925
896.498	20979
896.619	21009
896.74	20937
896.861	21085
896.982	21230
897.103	21317
897.224	21226
897.345	21233
897.466	21070
897.587	21268
897.708	21340
897.828	21188
897.949	21032
898.07	21119
898.19	21032
898.311	21188
898.431	21184
898.552	21077
898.672	21310
898.792	21180
898.913	21150
899.033	20990
899.153	20994
899.273	20891
899.393	20921
899.513	20994
899.633	20971
899.753	20979
899.873	21036
899.993	20868
900.113	21005
900.232	20956
900.352	20804
900.472	20785
900.591	20594
900.711	20754
900.83	20686
900.95	20689
901.069	20788
901.189	20609
901.308	20256
901.427	20130
901.546	20377
901.665	20199
901.784	20324
901.904	20088
902.023	20012
902.141	19700
902.26	19852
902.379	19978
902.498	19784
902.617	19734
902.735	19738
902.854	19769
902.973	19757
903.091	19537
903.21	19499
903.328	19377
903.446	19320
903.565	19240
903.683	19247
903.801	19209
903.919	19228
904.038	18973
904.156	19000
904.274	19175
904.392	18989
904.51	18932
904.627	18954
904.745	18916
904.863	19095
904.981	18768
905.098	18688
905.216	18631
905.334	18722
905.451	18760
905.569	18498
905.686	18802
905.803	18726
905.921	18441
906.038	18513
906.155	18490
906.272	18334
906.389	18304
906.506	18205
906.623	18148
906.74	18121
906.857	17980
906.974	18034
907.091	18209
907.208	18327
907.324	18102
907.441	18117
907.557	17950
907.674	17859
907.79	17851
907.907	17859
908.023	17977
908.139	17904
908.256	17882
908.372	17676
908.488	17756
908.604	17687
908.72	17596
908.836	17634
908.952	17623
909.068	17528
909.184	17554
909.3	17623
909.415	17585
909.531	17577
909.647	17387
909.762	17334
909.878	17334
909.993	17273
910.108	17151
910.224	17277
910.339	17242
910.454	17204
910.57	17094
910.685	17102
910.8	17280
910.915	17242
911.03	17067
911.145	16908
911.259	16850
911.374	16881
911.489	16782
911.604	16771
911.718	16653
911.833	16668
911.947	16615
912.062	16375
912.176	16615
912.291	16615
912.405	16622
912.519	16755
912.633	16755
912.748	16546
912.862	16558
912.976	16371
913.09	16363
913.204	16375
913.318	16337
913.431	16379
913.545	16500
913.659	16558
913.772	16299
913.886	16287
914	16226
914.113	16276
914.226	16310
914.34	16223
914.453	16158
914.566	16207
914.68	16154
914.793	16067
914.906	15865
915.019	15869
915.132	15732
915.245	15709
915.358	15819
915.47	15812
915.583	15785
915.696	15819
915.809	15972
915.921	15876
916.034	15667
916.146	15667
916.259	15686
916.371	15751
916.483	15743
916.595	15614
916.708	15584
916.82	15557
916.932	15542
917.044	15485
917.156	15492
917.268	15401
917.38	15378
917.491	15260
917.603	15447
917.715	15534
917.826	15485
917.938	15332
918.049	15317
918.161	15363
918.272	15564
918.384	15435
918.495	15332
918.606	15127
918.717	15157
918.828	15203
918.939	15226
919.05	15104
919.161	15165
919.272	14921
919.383	14990
919.494	15237
919.604	15302
919.715	15100
919.826	14975
919.936	15074
920.047	15180
920.157	15123
920.267	15249
920.378	15047
920.488	15017
920.598	15329
920.708	15443
920.818	15180
920.928	15199
921.038	15420
921.148	15332
921.258	15051
921.368	14998
921.477	14849
921.587	14823
921.697	14678
921.806	14887
921.916	14575
922.025	14579
922.134	14476
922.244	14526
922.353	14469
922.462	14412
922.571	14298
922.68	14153
922.789	14161
922.898	14100
923.007	14046
923.116	14225
923.224	14035
923.333	13955
923.442	13997
923.55	13833
923.659	13898
923.767	13955
923.876	13864
923.984	13940
924.092	13932
924.201	13887
924.309	13833
924.417	13746
924.525	13761
924.633	13788
924.741	14716
924.849	13548
924.956	13613
925.064	13544
925.172	13419
925.279	13392
925.387	13495
925.494	13506
925.602	13624
925.709	13460
925.816	13476
925.924	13518
926.031	13601
926.138	13460
926.245	13518
926.352	13308
926.459	13518
926.566	13430
926.673	13324
926.779	13198
926.886	13194
926.993	13126
927.099	13023
927.206	13008
927.312	13027
927.419	13057
927.525	13069
927.631	13122
927.737	12920
927.843	12935
927.95	12878
928.056	12840
928.162	12840
928.267	12825
928.373	13343
928.479	12901
928.585	12764
928.69	12745
928.796	12711
928.901	12711
929.007	12608
929.112	12707
929.218	12707
929.323	12551
929.428	12612
929.533	12639
929.638	12464
929.743	12517
929.848	12525
929.953	12410
930.058	12441
930.163	12289
930.267	12254
930.372	12334
930.477	12281
930.581	12490
930.685	12243
930.79	12117
930.894	12205
930.998	12148
931.103	12159
931.207	11969
931.311	11783
931.415	11688
931.519	11520
931.623	11455
