Data from test_V78500241_1834.txt Node
Date: Fri Mar 25 15:54:30 CST 2022
User: usil
Spectrometer: V785-0024
Trigger mode: 0
Integration Time (sec): 4.000000E-1
Scans to average: 1
Nonlinearity correction enabled: false
Boxcar width: 0
Storing dark spectrum: false
XAxis mode: Wavelengths
Number of Pixels in Spectrum: 1024
>>>>>Begin Spectral Data<<<<<
801.071	28451
801.214	28527
801.356	28234
801.499	28021
801.641	28181
801.783	28040
801.926	28010
802.068	27983
802.211	27918
802.353	28006
802.496	27895
802.638	27698
802.78	27545
802.923	27576
803.065	27580
803.208	27682
803.35	27717
803.492	27778
803.635	27869
803.777	27766
803.919	27964
804.061	28299
804.204	27968
804.346	27812
804.488	27808
804.63	27884
804.773	27884
804.915	27975
805.057	28074
805.199	27869
805.341	28048
805.483	28036
805.626	28059
805.768	27918
805.91	28207
806.052	28044
806.194	28097
806.336	28173
806.478	28044
806.62	28169
806.762	28204
806.904	28432
807.046	28561
807.188	28538
807.33	28516
807.472	28508
807.614	28485
807.756	28493
807.898	28390
808.04	28310
808.182	28333
808.324	28394
808.465	28360
808.607	28717
808.749	28580
808.891	28816
809.033	28843
809.174	28744
809.316	28672
809.458	28664
809.6	28603
809.741	28812
809.883	28953
810.025	29041
810.166	29193
810.308	28915
810.45	28972
810.591	28805
810.733	28740
810.875	28630
811.016	28649
811.158	28687
811.299	28847
811.441	28953
811.582	28816
811.724	28771
811.865	28710
812.007	28786
812.148	28675
812.29	28740
812.431	28824
812.573	29200
812.714	29261
812.855	29231
812.997	29223
813.138	29543
813.279	29436
813.421	29326
813.562	29181
813.703	29140
813.845	29006
813.986	28683
814.127	28694
814.268	28329
814.41	28516
814.551	28485
814.692	28531
814.833	28512
814.974	28344
815.115	28436
815.256	28382
815.397	28333
815.539	28303
815.68	28135
815.821	28124
815.962	28230
816.103	28287
816.244	28131
816.385	27907
816.526	28017
816.666	27838
816.807	27622
816.948	27739
817.089	27876
817.23	27736
817.371	27698
817.512	27751
817.653	27682
817.793	27580
817.934	27804
818.075	27686
818.216	27728
818.356	27770
818.497	27553
818.638	27496
818.778	27603
818.919	27458
819.06	27496
819.2	27728
819.341	27701
819.481	27667
819.622	28006
819.762	28120
819.903	28131
820.043	27956
820.184	27857
820.324	27876
820.465	27991
820.605	27873
820.746	27831
820.886	27713
821.026	27850
821.167	27842
821.307	27930
821.447	27861
821.588	27549
821.728	27599
821.868	27511
822.008	27317
822.149	27135
822.289	27207
822.429	26940
822.569	26910
822.709	26849
822.849	26864
822.99	26765
823.13	26708
823.27	26598
823.41	26697
823.55	26503
823.69	26609
823.83	26423
823.97	26412
824.11	26446
824.25	26240
824.389	26313
824.529	26434
824.669	26526
824.809	26442
824.949	26385
825.089	26579
825.228	26259
825.368	26317
825.508	26218
825.648	26225
825.787	26282
825.927	26248
826.067	26309
826.206	26298
826.346	26271
826.485	26381
826.625	26199
826.765	26469
826.904	26271
827.044	26054
827.183	26024
827.323	25978
827.462	26073
827.601	25932
827.741	26008
827.88	26020
828.02	25947
828.159	25947
828.298	25890
828.437	26024
828.577	25894
828.716	25978
828.855	25864
828.994	25559
829.134	25658
829.273	25852
829.412	25658
829.551	25529
829.69	25780
829.829	25761
829.968	25738
830.107	25738
830.246	25605
830.385	25594
830.524	25552
830.663	25426
830.802	25548
830.941	25145
831.08	25289
831.219	25422
831.357	25289
831.496	25426
831.635	25358
831.774	25145
831.913	25164
832.051	25129
832.19	25027
832.329	25103
832.467	24859
832.606	24829
832.744	24856
832.883	24958
833.022	24958
833.16	24875
833.299	24985
833.437	24981
833.576	24962
833.714	24875
833.852	25012
833.991	24886
834.129	25114
834.267	25183
834.406	24966
834.544	25015
834.682	25008
834.821	25012
834.959	25137
835.097	24920
835.235	25179
835.373	25099
835.511	24951
835.65	24977
835.788	24867
835.926	24738
836.064	24631
836.202	24612
836.34	24673
836.478	24894
836.615	24905
836.753	24776
836.891	24760
837.029	24753
837.167	24882
837.305	24878
837.443	24673
837.58	24677
837.718	24741
837.856	24582
837.993	24635
838.131	24700
838.269	24544
838.406	24601
838.544	24486
838.681	24365
838.819	24361
838.956	24216
839.094	24060
839.231	24106
839.369	24350
839.506	24456
839.643	24433
839.781	24129
839.918	24171
840.055	24114
840.193	24190
840.33	24064
840.467	24030
840.604	23920
840.742	24357
840.879	24079
841.016	23878
841.153	23939
841.29	23988
841.427	23969
841.564	24079
841.701	24068
841.838	24018
841.975	23920
842.112	24038
842.249	23977
842.385	23855
842.522	23961
842.659	23790
842.796	23809
842.933	23775
843.069	23821
843.206	23668
843.343	23878
843.479	23775
843.616	23703
843.752	23570
843.889	23676
844.025	23646
844.162	23558
844.298	23779
844.435	23741
844.571	23520
844.708	23402
844.844	23760
844.98	23722
845.117	23554
845.253	23676
845.389	23455
845.525	23497
845.661	23360
845.798	23345
845.934	23372
846.07	23326
846.206	23239
846.342	23406
846.478	23307
846.614	23025
846.75	22881
846.886	22980
847.022	23174
847.158	22987
847.294	23124
847.429	23094
847.565	22938
847.701	23162
847.837	22748
847.972	22752
848.108	22721
848.244	22778
848.379	22755
848.515	22512
848.65	22656
848.786	22599
848.921	22653
849.057	22782
849.192	22683
849.328	22660
849.463	22592
849.598	22668
849.734	22436
849.869	22478
850.004	22356
850.14	22337
850.275	22356
850.41	22265
850.545	22306
850.68	22356
850.815	22337
850.95	22462
851.085	22512
851.22	22481
851.355	22238
851.49	22375
851.625	22375
851.76	22402
851.895	22314
852.03	22128
852.165	22436
852.299	22512
852.434	22459
852.569	22508
852.703	22310
852.838	22466
852.973	22481
853.107	22459
853.242	22352
853.376	22341
853.511	21922
853.645	22067
853.78	22306
853.914	22230
854.048	22169
854.183	22101
854.317	22204
854.451	22299
854.585	22154
854.72	22169
854.854	22211
854.988	22204
855.122	22128
855.256	22055
855.39	22226
855.524	22344
855.658	22204
855.792	22303
855.926	22177
856.06	22246
856.194	22124
856.327	22093
856.461	22097
856.595	22196
856.729	22105
856.862	22204
856.996	22287
857.13	22352
857.263	22177
857.397	22303
857.53	22131
857.664	22139
857.797	22284
857.931	22291
858.064	22234
858.197	22238
858.331	22082
858.464	22173
858.597	22169
858.731	22086
858.864	22154
858.997	22105
859.13	22234
859.263	22166
859.396	22341
859.529	22238
859.662	22150
859.795	22173
859.928	22169
860.061	22207
860.194	22333
860.327	22287
860.46	22181
860.592	22246
860.725	22432
860.858	22284
860.99	22204
861.123	21979
861.256	22090
861.388	22291
861.521	22847
861.653	22013
861.786	21983
861.918	21972
862.05	22063
862.183	22048
862.315	22048
862.447	22177
862.58	22082
862.712	21907
862.844	21816
862.976	22032
863.108	21922
863.24	22314
863.372	21739
863.504	21762
863.636	21812
863.768	22048
863.9	21907
864.032	21800
864.164	21785
864.296	21876
864.428	21975
864.559	21907
864.691	21857
864.823	21743
864.954	21903
865.086	21789
865.217	21823
865.349	21694
865.48	21800
865.612	21648
865.743	21953
865.875	21717
866.006	21717
866.137	21827
866.269	21793
866.4	21774
866.531	21717
866.662	21709
866.793	21679
866.924	21724
867.055	21778
867.186	21812
867.317	21690
867.448	21538
867.579	21644
867.71	21564
867.841	21599
867.972	21660
868.103	21618
868.233	21698
868.364	21785
868.495	21778
868.625	21899
868.756	21918
868.886	21953
869.017	21899
869.147	22070
869.278	22082
869.408	22017
869.539	21968
869.669	21987
869.799	21892
869.929	22105
870.06	21998
870.19	22276
870.32	22287
870.45	22322
870.58	22417
870.71	22367
870.84	22493
870.97	22314
871.1	22390
871.23	22538
871.36	22489
871.489	22451
871.619	22512
871.749	22557
871.879	22599
872.008	22679
872.138	22500
872.267	22607
872.397	22379
872.526	22409
872.656	22348
872.785	22462
872.915	22546
873.044	22675
873.173	22485
873.303	22584
873.432	22626
873.561	22645
873.69	22596
873.819	22588
873.948	22656
874.077	22649
874.206	22557
874.335	22599
874.464	22687
874.593	22717
874.722	22717
874.851	22797
874.979	22717
875.108	22915
875.237	22850
875.365	22615
875.494	22740
875.623	22904
875.751	22683
875.88	22850
876.008	22881
876.136	23010
876.265	23197
876.393	23265
876.521	23204
876.65	23269
876.778	23200
876.906	23124
877.034	23029
877.162	23181
877.29	23025
877.418	23200
877.546	23109
877.674	23132
877.802	23033
877.93	23098
878.058	23075
878.185	22972
878.313	23086
878.441	23086
878.568	22991
878.696	22965
878.824	23121
878.951	23162
879.079	23299
879.206	23448
879.333	23197
879.461	23121
879.588	23235
879.715	23265
879.842	23379
879.97	23170
880.097	23003
880.224	22839
880.351	22896
880.478	22957
880.605	22873
880.732	22919
880.859	23246
880.986	23044
881.112	22946
881.239	22752
881.366	22656
881.493	22516
881.619	22565
881.746	22577
881.872	22485
881.999	22459
882.125	22360
882.252	22573
882.378	22538
882.505	22580
882.631	22333
882.757	22234
882.883	22268
883.01	22226
883.136	22154
883.262	22036
883.388	22013
883.514	22139
883.64	22261
883.766	22067
883.892	21956
884.018	22025
884.143	22097
884.269	22055
884.395	21873
884.52	21857
884.646	21865
884.772	21698
884.897	21682
885.023	21873
885.148	21922
885.274	21968
885.399	21983
885.524	21888
885.65	21789
885.775	21831
885.9	21739
886.025	21892
886.15	21759
886.275	21682
886.4	21751
886.525	21800
886.65	21861
886.775	21603
886.9	21907
887.025	21945
887.149	21869
887.274	21599
887.399	21648
887.523	21625
887.648	21477
887.773	21420
887.897	21580
888.021	21553
888.146	21561
888.27	21778
888.395	21587
888.519	21557
888.643	21580
888.767	21614
888.891	21469
889.015	21325
889.139	21507
889.263	21397
889.387	21488
889.511	21610
889.635	21443
889.759	21359
889.883	21382
890.006	21325
890.13	21348
890.254	21313
890.377	21291
890.501	21116
890.624	21123
890.748	21161
890.871	20960
890.995	20819
891.118	20902
891.241	20902
891.364	20876
891.488	21020
891.611	20937
891.734	20845
891.857	20963
891.98	20921
892.103	20960
892.226	20925
892.349	20868
892.471	20804
892.594	20956
892.717	20712
892.839	20800
892.962	20796
893.085	20853
893.207	20830
893.33	20568
893.452	20792
893.575	20845
893.697	20773
893.819	20883
893.941	20975
894.064	21055
894.186	20754
894.308	20785
894.43	20788
894.552	20952
894.674	20899
894.796	20663
894.918	20762
895.04	20720
895.161	20960
895.283	20880
895.405	20746
895.526	20796
895.648	20731
895.769	20899
895.891	20887
896.012	20830
896.134	20895
896.255	20845
896.376	20754
896.498	20773
896.619	20853
896.74	20800
896.861	20933
896.982	21195
897.103	21233
897.224	21024
897.345	20933
897.466	21032
897.587	21085
897.708	21123
897.828	21074
897.949	20773
898.07	20895
898.19	20868
898.311	21093
898.431	20937
898.552	20998
898.672	21058
898.792	21093
898.913	21013
899.033	20838
899.153	20792
899.273	20758
899.393	20804
899.513	20724
899.633	20735
899.753	20716
899.873	20644
899.993	20716
900.113	20651
900.232	20708
900.352	20594
900.472	20598
900.591	20556
900.711	20598
900.83	20385
900.95	20613
901.069	20560
901.189	20400
901.308	20313
901.427	20046
901.546	20157
901.665	20119
901.784	20050
901.904	19906
902.023	19940
902.141	19769
902.26	19620
902.379	19780
902.498	19601
902.617	19628
902.735	19552
902.854	19438
902.973	19445
903.091	19331
903.21	19164
903.328	19263
903.446	19175
903.565	19103
903.683	19061
903.801	18882
903.919	19012
904.038	19008
904.156	18856
904.274	18814
904.392	18749
904.51	18848
904.627	18608
904.745	18825
904.863	18772
904.981	18574
905.098	18483
905.216	18517
905.334	18506
905.451	18551
905.569	18540
905.686	18582
905.803	18456
905.921	18311
906.038	18361
906.155	18224
906.272	18182
906.389	18186
906.506	18057
906.623	18083
906.74	18091
906.857	17729
906.974	17866
907.091	18038
907.208	18060
907.324	18136
907.441	17870
907.557	17870
907.674	17745
907.79	17638
907.907	17836
908.023	17840
908.139	17646
908.256	17710
908.372	17619
908.488	17562
908.604	17570
908.72	17307
908.836	17376
908.952	17425
909.068	17398
909.184	17611
909.3	17410
909.415	17459
909.531	17482
909.647	17178
909.762	17174
909.878	17124
909.993	17162
910.108	17064
910.224	17075
910.339	17189
910.454	17014
910.57	16991
910.685	16862
910.8	17170
910.915	17102
911.03	16991
911.145	16771
911.259	16748
911.374	16668
911.489	16744
911.604	16717
911.718	16375
911.833	16474
911.947	16474
912.062	16390
912.176	16462
912.291	16371
912.405	16436
912.519	16721
912.633	16611
912.748	16493
912.862	16424
912.976	16253
913.09	16192
913.204	16211
913.318	16314
913.431	16295
913.545	16371
913.659	16375
913.772	16196
913.886	16131
914	16105
914.113	16150
914.226	16177
914.34	16215
914.453	15983
914.566	16082
914.68	15979
914.793	15819
914.906	15797
915.019	15667
915.132	15595
915.245	15644
915.358	15667
915.47	15690
915.583	15622
915.696	15656
915.809	15751
915.921	15759
916.034	15584
916.146	15603
916.259	15485
916.371	15732
916.483	15584
916.595	15374
916.708	15458
916.82	15408
916.932	15492
917.044	15496
917.156	15321
917.268	15310
917.38	15355
917.491	15302
917.603	15298
917.715	15344
917.826	15363
917.938	15230
918.049	15066
918.161	15252
918.272	15435
918.384	15325
918.495	15169
918.606	15108
918.717	15051
918.828	15093
918.939	15100
919.05	14941
919.161	14960
919.272	14876
919.383	14941
919.494	15077
919.604	15169
919.715	15024
919.826	14948
919.936	15013
920.047	15032
920.157	15013
920.267	15146
920.378	14971
920.488	14929
920.598	15112
920.708	15363
920.818	15169
920.928	15100
921.038	15233
921.148	15260
921.258	14925
921.368	14883
921.477	14743
921.587	14727
921.697	14518
921.806	14648
921.916	14564
922.025	14454
922.134	14370
922.244	14275
922.353	14396
922.462	14278
922.571	14191
922.68	14069
922.789	13993
922.898	13906
923.007	13887
923.116	14069
923.224	14081
923.333	13974
923.442	13761
923.55	13719
923.659	13700
923.767	13883
923.876	13727
923.984	13868
924.092	13620
924.201	13769
924.309	13708
924.417	13734
924.525	13723
924.633	13704
924.741	14507
924.849	13464
924.956	13674
925.064	13438
925.172	13339
925.279	13289
925.387	13514
925.494	13441
925.602	13514
925.709	13460
925.816	13358
925.924	13365
926.031	13510
926.138	13289
926.245	13320
926.352	13236
926.459	13228
926.566	13388
926.673	13187
926.779	13110
926.886	13190
926.993	12981
927.099	12977
927.206	12875
927.312	12916
927.419	13008
927.525	12962
927.631	12996
927.737	12719
927.843	12722
927.95	12635
928.056	12707
928.162	12688
928.267	12738
928.373	13480
928.479	12802
928.585	12551
928.69	12681
928.796	12802
928.901	12563
929.007	12483
929.112	12563
929.218	12566
929.323	12479
929.428	12494
929.533	12467
929.638	12395
929.743	12437
929.848	12452
929.953	12353
930.058	12327
930.163	12190
930.267	12220
930.372	12281
930.477	12053
930.581	12304
930.685	12209
930.79	11984
930.894	12091
930.998	11935
931.103	12106
931.207	11688
931.311	11665
931.415	11558
931.519	11410
931.623	11315
