Data from test_V78500241_1259.txt Node
Date: Fri Mar 25 15:50:31 CST 2022
User: usil
Spectrometer: V785-0024
Trigger mode: 0
Integration Time (sec): 4.000000E-1
Scans to average: 1
Nonlinearity correction enabled: false
Boxcar width: 0
Storing dark spectrum: false
XAxis mode: Wavelengths
Number of Pixels in Spectrum: 1024
>>>>>Begin Spectral Data<<<<<
801.071	28873
801.214	28869
801.356	28565
801.499	28443
801.641	28447
801.783	28523
801.926	28367
802.068	28459
802.211	28344
802.353	28409
802.496	28154
802.638	28158
802.78	28101
802.923	28093
803.065	28017
803.208	28135
803.35	28188
803.492	28238
803.635	28306
803.777	28234
803.919	28272
804.061	28721
804.204	28550
804.346	28401
804.488	28375
804.63	28356
804.773	28272
804.915	28375
805.057	28485
805.199	28344
805.341	28379
805.483	28447
805.626	28561
805.768	28371
805.91	28569
806.052	28512
806.194	28527
806.336	28809
806.478	28546
806.62	28752
806.762	28702
806.904	28820
807.046	29006
807.188	28965
807.33	28915
807.472	28923
807.614	28908
807.756	29121
807.898	28900
808.04	28824
808.182	28858
808.324	28923
808.465	29060
808.607	29212
808.749	29254
808.891	29235
809.033	29360
809.174	29299
809.316	29185
809.458	29261
809.6	29189
809.741	29406
809.883	29482
810.025	29615
810.166	29433
810.308	29668
810.45	29490
810.591	29455
810.733	29356
810.875	29383
811.016	29094
811.158	29220
811.299	29395
811.441	29455
811.582	29372
811.724	29299
811.865	29292
812.007	29345
812.148	29288
812.29	29197
812.431	29497
812.573	29630
812.714	29623
812.855	29805
812.997	29973
813.138	29965
813.279	29969
813.421	29859
813.562	29775
813.703	29676
813.845	29501
813.986	29299
814.127	29128
814.268	28999
814.41	28980
814.551	28888
814.692	29151
814.833	28911
814.974	29018
815.115	29060
815.256	29037
815.397	28839
815.539	28968
815.68	28797
815.821	28820
815.962	28949
816.103	28793
816.244	28733
816.385	28820
816.526	28618
816.666	28455
816.807	28188
816.948	28428
817.089	28436
817.23	28223
817.371	28432
817.512	28405
817.653	28295
817.793	28234
817.934	28272
818.075	28432
818.216	28265
818.356	28230
818.497	28219
818.638	27979
818.778	28105
818.919	28135
819.06	28169
819.2	28097
819.341	28493
819.481	28291
819.622	28500
819.762	28664
819.903	28508
820.043	28516
820.184	28485
820.324	28588
820.465	28405
820.605	28691
820.746	28626
820.886	28405
821.026	28500
821.167	28432
821.307	28542
821.447	28409
821.588	28242
821.728	28154
821.868	27960
822.008	27911
822.149	27953
822.289	27850
822.429	27641
822.569	27610
822.709	27606
822.849	27447
822.99	27393
823.13	27298
823.27	27214
823.41	27272
823.55	27081
823.69	27256
823.83	27127
823.97	27180
824.11	27100
824.25	26944
824.389	27001
824.529	27066
824.669	26902
824.809	27104
824.949	27043
825.089	27039
825.228	27047
825.368	26925
825.508	26826
825.648	26998
825.787	26998
825.927	26956
826.067	26910
826.206	26868
826.346	26990
826.485	26963
826.625	26849
826.765	27039
826.904	26838
827.044	26697
827.183	26629
827.323	26518
827.462	26636
827.601	26716
827.741	26621
827.88	26708
828.02	26503
828.159	26518
828.298	26549
828.437	26632
828.577	26438
828.716	26762
828.855	26514
828.994	26453
829.134	26408
829.273	26324
829.412	26168
829.551	26119
829.69	26164
829.829	26309
829.968	26408
830.107	26305
830.246	26355
830.385	26248
830.524	26180
830.663	26058
830.802	26001
830.941	25894
831.08	25803
831.219	25978
831.357	25986
831.496	26134
831.635	25986
831.774	25734
831.913	25791
832.051	25685
832.19	25795
832.329	25795
832.467	25677
832.606	25559
832.744	25563
832.883	25422
833.022	25537
833.16	25609
833.299	25586
833.437	25594
833.576	25609
833.714	25681
833.852	25677
833.991	25765
834.129	25693
834.267	25712
834.406	25624
834.544	25674
834.682	25685
834.821	25613
834.959	25674
835.097	25453
835.235	25609
835.373	25544
835.511	25597
835.65	25388
835.788	25487
835.926	25324
836.064	25278
836.202	25259
836.34	25415
836.478	25597
836.615	25445
836.753	25377
836.891	25540
837.029	25457
837.167	25320
837.305	25308
837.443	25194
837.58	25289
837.718	25221
837.856	25225
837.993	25251
838.131	25156
838.269	25190
838.406	25080
838.544	25031
838.681	24996
838.819	24863
838.956	24795
839.094	24833
839.231	24764
839.369	24810
839.506	25088
839.643	24920
839.781	24654
839.918	24673
840.055	24642
840.193	24738
840.33	24585
840.467	24639
840.604	24692
840.742	24962
840.879	24513
841.016	24528
841.153	24452
841.29	24703
841.427	24601
841.564	24498
841.701	24635
841.838	24601
841.975	24388
842.112	24559
842.249	24369
842.385	24357
842.522	24593
842.659	24369
842.796	24422
842.933	24407
843.069	24410
843.206	24292
843.343	24426
843.479	24353
843.616	24315
843.752	24030
843.889	24186
844.025	24266
844.162	24057
844.298	24372
844.435	24060
844.571	24098
844.708	24152
844.844	24357
844.98	24258
845.117	24224
845.253	24049
845.389	23942
845.525	24117
845.661	24072
845.798	23859
845.934	23821
846.07	23855
846.206	23851
846.342	23999
846.478	23832
846.614	23745
846.75	23581
846.886	23642
847.022	23684
847.158	23687
847.294	23585
847.429	23581
847.565	23657
847.701	23840
847.837	23345
847.972	23368
848.108	23474
848.244	23501
848.379	23128
848.515	23132
848.65	23041
848.786	23140
848.921	23356
849.057	23265
849.192	23170
849.328	23269
849.463	23341
849.598	23212
849.734	23048
849.869	22961
850.004	23025
850.14	22915
850.275	23079
850.41	22858
850.545	22949
850.68	22938
850.815	22949
850.95	22858
851.085	23113
851.22	22984
851.355	22927
851.49	22885
851.625	22934
851.76	23010
851.895	22949
852.03	22820
852.165	22869
852.299	22938
852.434	23044
852.569	23018
852.703	22908
852.838	23109
852.973	23124
853.107	23010
853.242	22809
853.376	22862
853.511	22584
853.645	22767
853.78	22854
853.914	22668
854.048	22691
854.183	22839
854.317	22752
854.451	23048
854.585	22843
854.72	22793
854.854	22793
854.988	22675
855.122	22835
855.256	22713
855.39	22759
855.524	22812
855.658	22824
855.792	22748
855.926	22816
856.06	22698
856.194	22972
856.327	22812
856.461	22660
856.595	22755
856.729	22763
856.862	22892
856.996	22953
857.13	22839
857.263	22904
857.397	22839
857.53	22710
857.664	22630
857.797	22801
857.931	22786
858.064	22615
858.197	22790
858.331	22877
858.464	22744
858.597	22573
858.731	22740
858.864	22683
858.997	22809
859.13	22759
859.263	22721
859.396	22847
859.529	22889
859.662	22710
859.795	22809
859.928	22767
860.061	22862
860.194	23006
860.327	22771
860.46	22763
860.592	22938
860.725	22946
860.858	22911
860.99	22831
861.123	22641
861.256	22702
861.388	22774
861.521	23345
861.653	22584
861.786	22516
861.918	22573
862.05	22580
862.183	22596
862.315	22683
862.447	22698
862.58	22550
862.712	22535
862.844	22390
862.976	22497
863.108	22588
863.24	22816
863.372	22489
863.504	22409
863.636	22386
863.768	22535
863.9	22436
864.032	22436
864.164	22371
864.296	22481
864.428	22573
864.559	22504
864.691	22531
864.823	22485
864.954	22542
865.086	22398
865.217	22363
865.349	22360
865.48	22166
865.612	22360
865.743	22451
865.875	22261
866.006	22367
866.137	22337
866.269	22234
866.4	22398
866.531	22322
866.662	22120
866.793	22181
866.924	22207
867.055	22261
867.186	22257
867.317	22325
867.448	22162
867.579	22306
867.71	22139
867.841	22242
867.972	22234
868.103	22230
868.233	22219
868.364	22348
868.495	22356
868.625	22497
868.756	22569
868.886	22306
869.017	22535
869.147	22497
869.278	22649
869.408	22500
869.539	22535
869.669	22630
869.799	22504
869.929	22630
870.06	22474
870.19	22729
870.32	22877
870.45	22744
870.58	22923
870.71	23025
870.84	22889
870.97	22835
871.1	22835
871.23	23094
871.36	23025
871.489	22881
871.619	23159
871.749	23102
871.879	23098
872.008	23204
872.138	23151
872.267	23098
872.397	22938
872.526	22946
872.656	22957
872.785	22854
872.915	22972
873.044	23014
873.173	23060
873.303	23200
873.432	23113
873.561	23216
873.69	23121
873.819	23128
873.948	23235
874.077	23029
874.206	23018
874.335	23086
874.464	23174
874.593	23337
874.722	23231
874.851	23299
874.979	23474
875.108	23307
875.237	23239
875.365	23162
875.494	23143
875.623	23318
875.751	23330
875.88	23349
876.008	23421
876.136	23531
876.265	23649
876.393	23821
876.521	23722
876.65	23790
876.778	23718
876.906	23691
877.034	23566
877.162	23703
877.29	23577
877.418	23653
877.546	23733
877.674	23646
877.802	23623
877.93	23646
878.058	23596
878.185	23444
878.313	23733
878.441	23558
878.568	23387
878.696	23547
878.824	23646
878.951	23809
879.079	23870
879.206	23901
879.333	23771
879.461	23649
879.588	23790
879.715	23786
879.842	23999
879.97	23737
880.097	23577
880.224	23417
880.351	23531
880.478	23486
880.605	23395
880.732	23429
880.859	23695
880.986	23433
881.112	23471
881.239	23197
881.366	23223
881.493	23052
881.619	23048
881.746	23140
881.872	23075
881.999	23037
882.125	23006
882.252	22991
882.378	22995
882.505	23098
882.631	22866
882.757	22691
882.883	22896
883.01	22752
883.136	22649
883.262	22573
883.388	22421
883.514	22615
883.64	22691
883.766	22603
883.892	22523
884.018	22451
884.143	22656
884.269	22607
884.395	22409
884.52	22375
884.646	22284
884.772	22257
884.897	22219
885.023	22424
885.148	22428
885.274	22455
885.399	22455
885.524	22253
885.65	22337
885.775	22356
885.9	22284
886.025	22344
886.15	22375
886.275	22253
886.4	22207
886.525	22310
886.65	22219
886.775	22200
886.9	22318
887.025	22470
887.149	22238
887.274	22162
887.399	22128
887.523	22192
887.648	21903
887.773	22021
887.897	22105
888.021	22090
888.146	21945
888.27	22196
888.395	22063
888.519	22139
888.643	22044
888.767	22116
888.891	21956
889.015	21800
889.139	21979
889.263	21793
889.387	21930
889.511	22063
889.635	21953
889.759	21804
889.883	21770
890.006	21941
890.13	21911
890.254	21755
890.377	21831
890.501	21641
890.624	21595
890.748	21629
890.871	21519
890.995	21519
891.118	21367
891.241	21313
891.364	21412
891.488	21511
891.611	21553
891.734	21382
891.857	21435
891.98	21344
892.103	21420
892.226	21439
892.349	21397
892.471	21150
892.594	21192
892.717	21283
892.839	21218
892.962	21294
893.085	21382
893.207	21245
893.33	21272
893.452	21188
893.575	21272
893.697	21336
893.819	21412
893.941	21466
894.064	21458
894.186	21222
894.308	21268
894.43	21428
894.552	21351
894.674	21272
894.796	21218
894.918	21116
895.04	21264
895.161	21359
895.283	21283
895.405	21154
895.526	21310
895.648	21192
895.769	21355
895.891	21214
896.012	21348
896.134	21222
896.255	21241
896.376	21260
896.498	21252
896.619	21302
896.74	21298
896.861	21340
896.982	21641
897.103	21739
897.224	21587
897.345	21416
897.466	21386
897.587	21424
897.708	21557
897.828	21530
897.949	21454
898.07	21397
898.19	21359
898.311	21587
898.431	21485
898.552	21397
898.672	21530
898.792	21466
898.913	21549
899.033	21294
899.153	21283
899.273	21207
899.393	21199
899.513	21302
899.633	21127
899.753	21344
899.873	21116
899.993	21024
900.113	21116
900.232	21184
900.352	21085
900.472	20975
900.591	20781
900.711	20914
900.83	20929
900.95	21081
901.069	20960
901.189	20731
901.308	20537
901.427	20408
901.546	20499
901.665	20579
901.784	20579
901.904	20396
902.023	20248
902.141	20233
902.26	20024
902.379	20069
902.498	20122
902.617	19967
902.735	19864
902.854	19967
902.973	20062
903.091	19757
903.21	19696
903.328	19677
903.446	19582
903.565	19457
903.683	19468
903.801	19457
903.919	19373
904.038	19388
904.156	19225
904.274	19259
904.392	19244
904.51	19156
904.627	19255
904.745	19335
904.863	19274
904.981	19012
905.098	19015
905.216	18935
905.334	18970
905.451	18837
905.569	18962
905.686	18928
905.803	18867
905.921	18745
906.038	18787
906.155	18829
906.272	18646
906.389	18635
906.506	18338
906.623	18365
906.74	18346
906.857	18395
906.974	18384
907.091	18342
907.208	18544
907.324	18475
907.441	18357
907.557	18152
907.674	18121
907.79	18095
907.907	18087
908.023	18136
908.139	18091
908.256	18079
908.372	18041
908.488	18011
908.604	17878
908.72	17813
908.836	17882
908.952	17866
909.068	17855
909.184	17999
909.3	17794
909.415	17939
909.531	17817
909.647	17608
909.762	17520
909.878	17539
909.993	17619
910.108	17448
910.224	17463
910.339	17528
910.454	17376
910.57	17303
910.685	17265
910.8	17634
910.915	17440
911.03	17299
911.145	17178
911.259	17220
911.374	17064
911.489	17064
911.604	17010
911.718	16748
911.833	16839
911.947	16759
912.062	16744
912.176	16809
912.291	16759
912.405	16858
912.519	17151
912.633	16968
912.748	16881
912.862	16710
912.976	16592
913.09	16500
913.204	16687
913.318	16626
913.431	16637
913.545	16702
913.659	16793
913.772	16603
913.886	16382
914	16363
914.113	16436
914.226	16577
914.34	16554
914.453	16322
914.566	16417
914.68	16261
914.793	16257
914.906	16112
915.019	15987
915.132	15964
915.245	15960
915.358	16010
915.47	15956
915.583	16071
915.696	16078
915.809	16097
915.921	16192
916.034	15964
916.146	16002
916.259	15835
916.371	15998
916.483	16002
916.595	15819
916.708	15876
916.82	15804
916.932	15732
917.044	15804
917.156	15804
917.268	15614
917.38	15679
917.491	15622
917.603	15686
917.715	15698
917.826	15690
917.938	15584
918.049	15408
918.161	15564
918.272	15675
918.384	15675
918.495	15515
918.606	15450
918.717	15268
918.828	15450
918.939	15302
919.05	15241
919.161	15302
919.272	15161
919.383	15161
919.494	15408
919.604	15568
919.715	15260
919.826	15256
919.936	15249
920.047	15401
920.157	15252
920.267	15526
920.378	15344
920.488	15344
920.598	15496
920.708	15610
920.818	15481
920.928	15542
921.038	15743
921.148	15523
921.258	15218
921.368	15131
921.477	15161
921.587	15013
921.697	14925
921.806	15058
921.916	14872
922.025	14724
922.134	14617
922.244	14621
922.353	14762
922.462	14556
922.571	14514
922.68	14317
922.789	14290
922.898	14324
923.007	14233
923.116	14275
923.224	14282
923.333	14229
923.442	14202
923.55	14138
923.659	14153
923.767	14107
923.876	14115
923.984	14107
924.092	13959
924.201	14043
924.309	13997
924.417	14005
924.525	13898
924.633	13879
924.741	14891
924.849	13757
924.956	13868
925.064	13715
925.172	13704
925.279	13616
925.387	13658
925.494	13689
925.602	13742
925.709	13658
925.816	13616
925.924	13632
926.031	13658
926.138	13544
926.245	13689
926.352	13533
926.459	13696
926.566	13616
926.673	13472
926.779	13339
926.886	13445
926.993	13335
927.099	13247
927.206	13168
927.312	13091
927.419	13259
927.525	13190
927.631	13137
927.737	13114
927.843	13072
927.95	12935
928.056	12958
928.162	13076
928.267	13133
928.373	13693
928.479	13110
928.585	12859
928.69	12989
928.796	13061
928.901	12970
929.007	12726
929.112	12863
929.218	12856
929.323	12715
929.428	12848
929.533	12890
929.638	12589
929.743	12654
929.848	12757
929.953	12627
930.058	12582
930.163	12479
930.267	12452
930.372	12578
930.477	12365
930.581	12681
930.685	12410
930.79	12292
930.894	12277
930.998	12292
931.103	12410
931.207	12019
931.311	11961
931.415	11783
931.519	11577
931.623	11642
