Data from test_V78500241_3134.txt Node
Date: Fri Mar 25 16:03:30 CST 2022
User: usil
Spectrometer: V785-0024
Trigger mode: 0
Integration Time (sec): 4.000000E-1
Scans to average: 1
Nonlinearity correction enabled: false
Boxcar width: 0
Storing dark spectrum: false
XAxis mode: Wavelengths
Number of Pixels in Spectrum: 1024
>>>>>Begin Spectral Data<<<<<
801.071	28843
801.214	28866
801.356	28691
801.499	28535
801.641	28546
801.783	28405
801.926	28538
802.068	28531
802.211	28504
802.353	28447
802.496	28234
802.638	28257
802.78	28185
802.923	28055
803.065	27991
803.208	28051
803.35	28188
803.492	28360
803.635	28413
803.777	28295
803.919	28322
804.061	28767
804.204	28497
804.346	28470
804.488	28390
804.63	28550
804.773	28246
804.915	28451
805.057	28531
805.199	28443
805.341	28550
805.483	28580
805.626	28615
805.768	28462
805.91	28630
806.052	28493
806.194	28508
806.336	28603
806.478	28683
806.62	28653
806.762	28767
806.904	28946
807.046	29132
807.188	29086
807.33	29079
807.472	29067
807.614	28850
807.756	29022
807.898	28885
808.04	28999
808.182	28942
808.324	28980
808.465	28995
808.607	29170
808.749	29151
808.891	29528
809.033	29440
809.174	29250
809.316	29303
809.458	29246
809.6	29303
809.741	29455
809.883	29375
810.025	29581
810.166	29680
810.308	29551
810.45	29748
810.591	29615
810.733	29406
810.875	29242
811.016	29334
811.158	29223
811.299	29406
811.441	29395
811.582	29425
811.724	29372
811.865	29368
812.007	29395
812.148	29334
812.29	29417
812.431	29497
812.573	29600
812.714	29813
812.855	29893
812.997	29946
813.138	30038
813.279	30068
813.421	29878
813.562	29866
813.703	29592
813.845	29592
813.986	29147
814.127	29197
814.268	29166
814.41	29037
814.551	28980
814.692	29098
814.833	28961
814.974	29025
815.115	29022
815.256	28888
815.397	28850
815.539	28934
815.68	28965
815.821	28862
815.962	28793
816.103	28888
816.244	28767
816.385	28713
816.526	28706
816.666	28485
816.807	28451
816.948	28493
817.089	28478
817.23	28489
817.371	28390
817.512	28272
817.653	28405
817.793	28363
817.934	28382
818.075	28322
818.216	28455
818.356	28379
818.497	28303
818.638	28299
818.778	27994
818.919	28082
819.06	28162
819.2	28272
819.341	28462
819.481	28291
819.622	28584
819.762	28653
819.903	28634
820.043	28599
820.184	28462
820.324	28538
820.465	28580
820.605	28401
820.746	28382
820.886	28246
821.026	28466
821.167	28440
821.307	28596
821.447	28333
821.588	28249
821.728	28143
821.868	27895
822.008	28040
822.149	27854
822.289	27880
822.429	27629
822.569	27488
822.709	27500
822.849	27458
822.99	27477
823.13	27237
823.27	27306
823.41	27249
823.55	27036
823.69	27317
823.83	27138
823.97	27165
824.11	26944
824.25	27058
824.389	26979
824.529	27089
824.669	27096
824.809	27108
824.949	27077
825.089	27237
825.228	27146
825.368	26796
825.508	26952
825.648	26788
825.787	27066
825.927	26906
826.067	26777
826.206	26956
826.346	27047
826.485	26994
826.625	26975
826.765	27089
826.904	26902
827.044	26606
827.183	26651
827.323	26640
827.462	26659
827.601	26663
827.741	26461
827.88	26659
828.02	26571
828.159	26750
828.298	26640
828.437	26773
828.577	26518
828.716	26773
828.855	26613
828.994	26252
829.134	26142
829.273	26256
829.412	26263
829.551	26332
829.69	26320
829.829	26381
829.968	26415
830.107	26541
830.246	26324
830.385	26282
830.524	26183
830.663	26107
830.802	26088
830.941	25913
831.08	25982
831.219	26107
831.357	25963
831.496	26107
831.635	25856
831.774	25868
831.913	25826
832.051	25647
832.19	25769
832.329	25624
832.467	25734
832.606	25518
832.744	25529
832.883	25590
833.022	25540
833.16	25575
833.299	25719
833.437	25620
833.576	25624
833.714	25685
833.852	25670
833.991	25719
834.129	25586
834.267	25696
834.406	25693
834.544	25666
834.682	25723
834.821	25559
834.959	25769
835.097	25700
835.235	25715
835.373	25487
835.511	25704
835.65	25552
835.788	25479
835.926	25438
836.064	25365
836.202	25247
836.34	25476
836.478	25616
836.615	25510
836.753	25525
836.891	25464
837.029	25411
837.167	25381
837.305	25365
837.443	25247
837.58	25331
837.718	25415
837.856	25441
837.993	25327
838.131	25198
838.269	25179
838.406	25160
838.544	25141
838.681	24947
838.819	24966
838.956	24829
839.094	24894
839.231	24802
839.369	24837
839.506	25202
839.643	25072
839.781	24608
839.918	24734
840.055	24814
840.193	24719
840.33	24738
840.467	24620
840.604	24734
840.742	24992
840.879	24665
841.016	24593
841.153	24559
841.29	24787
841.427	24661
841.564	24745
841.701	24589
841.838	24597
841.975	24604
842.112	24623
842.249	24429
842.385	24445
842.522	24661
842.659	24544
842.796	24414
842.933	24365
843.069	24391
843.206	24441
843.343	24467
843.479	24498
843.616	24441
843.752	24171
843.889	24232
844.025	24433
844.162	24273
844.298	24300
844.435	24235
844.571	24205
844.708	24148
844.844	24239
844.98	24330
845.117	24327
845.253	24178
845.389	24030
845.525	24129
845.661	24030
845.798	23958
845.934	24140
846.07	24003
846.206	23821
846.342	23958
846.478	23920
846.614	23817
846.75	23653
846.886	23661
847.022	23665
847.158	23630
847.294	23611
847.429	23707
847.565	23577
847.701	24022
847.837	23455
847.972	23307
848.108	23497
848.244	23482
848.379	23254
848.515	23246
848.65	23284
848.786	23223
848.921	23246
849.057	23372
849.192	23284
849.328	23220
849.463	23307
849.598	23227
849.734	23113
849.869	23102
850.004	23018
850.14	23037
850.275	23060
850.41	22938
850.545	22965
850.68	23048
850.815	23105
850.95	23105
851.085	23166
851.22	23193
851.355	23033
851.49	23086
851.625	22995
851.76	22961
851.895	22828
852.03	22919
852.165	23056
852.299	22908
852.434	23090
852.569	23064
852.703	23010
852.838	23033
852.973	23117
853.107	23025
853.242	22942
853.376	22717
853.511	22668
853.645	22843
853.78	22927
853.914	22934
854.048	22843
854.183	22915
854.317	22934
854.451	22984
854.585	22961
854.72	22786
854.854	22900
854.988	22717
855.122	22847
855.256	22691
855.39	22900
855.524	22961
855.658	22930
855.792	22889
855.926	22896
856.06	22744
856.194	22889
856.327	22733
856.461	22713
856.595	22847
856.729	22759
856.862	22980
856.996	22843
857.13	22900
857.263	22957
857.397	22885
857.53	22885
857.664	22900
857.797	22915
857.931	22908
858.064	22774
858.197	22805
858.331	22828
858.464	22858
858.597	22698
858.731	22858
858.864	22839
858.997	22793
859.13	22812
859.263	22793
859.396	22953
859.529	22782
859.662	22850
859.795	22755
859.928	22869
860.061	23052
860.194	22987
860.327	22755
860.46	22847
860.592	22828
860.725	23029
860.858	22976
860.99	22812
861.123	22729
861.256	22869
861.388	22889
861.521	23349
861.653	22691
861.786	22664
861.918	22679
862.05	22702
862.183	22755
862.315	22687
862.447	22858
862.58	22733
862.712	22717
862.844	22516
862.976	22637
863.108	22713
863.24	22915
863.372	22413
863.504	22527
863.636	22603
863.768	22531
863.9	22569
864.032	22542
864.164	22440
864.296	22470
864.428	22596
864.559	22634
864.691	22542
864.823	22481
864.954	22489
865.086	22523
865.217	22462
865.349	22341
865.48	22462
865.612	22554
865.743	22592
865.875	22512
866.006	22409
866.137	22382
866.269	22344
866.4	22485
866.531	22306
866.662	22261
866.793	22295
866.924	22291
867.055	22459
867.186	22371
867.317	22280
867.448	22329
867.579	22257
867.71	22371
867.841	22204
867.972	22451
868.103	22382
868.233	22322
868.364	22287
868.495	22428
868.625	22527
868.756	22725
868.886	22497
869.017	22538
869.147	22733
869.278	22706
869.408	22557
869.539	22557
869.669	22679
869.799	22554
869.929	22721
870.06	22577
870.19	22927
870.32	22805
870.45	22911
870.58	23010
870.71	23109
870.84	23086
870.97	22961
871.1	22911
871.23	23006
871.36	23200
871.489	23083
871.619	22942
871.749	23189
871.879	23212
872.008	23292
872.138	23334
872.267	23109
872.397	23086
872.526	23037
872.656	23014
872.785	23056
872.915	23155
873.044	23208
873.173	23239
873.303	23246
873.432	23261
873.561	23398
873.69	23227
873.819	23220
873.948	23311
874.077	23273
874.206	22999
874.335	23212
874.464	23326
874.593	23573
874.722	23459
874.851	23493
874.979	23486
875.108	23524
875.237	23547
875.365	23303
875.494	23417
875.623	23562
875.751	23478
875.88	23444
876.008	23551
876.136	23707
876.265	23828
876.393	23916
876.521	23859
876.65	23851
876.778	23783
876.906	23604
877.034	23760
877.162	23722
877.29	23775
877.418	23775
877.546	23672
877.674	23661
877.802	23649
877.93	23767
878.058	23668
878.185	23554
878.313	23619
878.441	23653
878.568	23501
878.696	23646
878.824	23756
878.951	23809
879.079	23977
879.206	24007
879.333	23847
879.461	23710
879.588	23794
879.715	23824
879.842	23904
879.97	23786
880.097	23585
880.224	23653
880.351	23646
880.478	23539
880.605	23608
880.732	23596
880.859	23718
880.986	23600
881.112	23543
881.239	23349
881.366	23395
881.493	23246
881.619	23189
881.746	23216
881.872	23311
881.999	23181
882.125	23037
882.252	23086
882.378	23136
882.505	23227
882.631	22889
882.757	22801
882.883	22824
883.01	22873
883.136	22782
883.262	22675
883.388	22687
883.514	22778
883.64	22752
883.766	22721
883.892	22390
884.018	22565
884.143	22698
884.269	22801
884.395	22584
884.52	22474
884.646	22451
884.772	22356
884.897	22238
885.023	22356
885.148	22599
885.274	22634
885.399	22542
885.524	22325
885.65	22436
885.775	22428
885.9	22493
886.025	22569
886.15	22497
886.275	22257
886.4	22348
886.525	22443
886.65	22394
886.775	22295
886.9	22493
887.025	22622
887.149	22417
887.274	22207
887.399	22154
887.523	22150
887.648	22082
887.773	22067
887.897	22116
888.021	22200
888.146	22207
888.27	22226
888.395	22295
888.519	22230
888.643	22154
888.767	22150
888.891	22135
889.015	21949
889.139	21991
889.263	21945
889.387	22105
889.511	22154
889.635	22055
889.759	21934
889.883	21956
890.006	21975
890.13	21949
890.254	21926
890.377	21842
890.501	21739
890.624	21652
890.748	21713
890.871	21724
890.995	21473
891.118	21591
891.241	21401
891.364	21580
891.488	21656
891.611	21519
891.734	21504
891.857	21614
891.98	21526
892.103	21633
892.226	21447
892.349	21458
892.471	21283
892.594	21351
892.717	21504
892.839	21367
892.962	21378
893.085	21439
893.207	21450
893.33	21348
893.452	21306
893.575	21378
893.697	21431
893.819	21580
893.941	21663
894.064	21511
894.186	21306
894.308	21249
894.43	21553
894.552	21511
894.674	21492
894.796	21211
894.918	21329
895.04	21313
895.161	21454
895.283	21488
895.405	21317
895.526	21351
895.648	21321
895.769	21435
895.891	21393
896.012	21485
896.134	21450
896.255	21370
896.376	21363
896.498	21462
896.619	21382
896.74	21279
896.861	21450
896.982	21538
897.103	21762
897.224	21720
897.345	21599
897.466	21557
897.587	21606
897.708	21778
897.828	21633
897.949	21504
898.07	21344
898.19	21580
898.311	21576
898.431	21416
898.552	21538
898.672	21606
898.792	21625
898.913	21648
899.033	21439
899.153	21351
899.273	21211
899.393	21405
899.513	21325
899.633	21302
899.753	21241
899.873	21218
899.993	21298
900.113	21199
900.232	21127
900.352	21146
900.472	21104
900.591	20971
900.711	20952
900.83	20921
900.95	21100
901.069	21241
901.189	20914
901.308	20796
901.427	20465
901.546	20526
901.665	20667
901.784	20648
901.904	20438
902.023	20434
902.141	20324
902.26	20195
902.379	20263
902.498	20088
902.617	20027
902.735	20111
902.854	20138
902.973	20035
903.091	19772
903.21	19788
903.328	19776
903.446	19719
903.565	19567
903.683	19533
903.801	19415
903.919	19537
904.038	19422
904.156	19274
904.274	19453
904.392	19278
904.51	19259
904.627	19327
904.745	19354
904.863	19335
904.981	19103
905.098	18996
905.216	18966
905.334	19099
905.451	18943
905.569	18993
905.686	18909
905.803	18897
905.921	18711
906.038	18821
906.155	18852
906.272	18551
906.389	18707
906.506	18486
906.623	18547
906.74	18414
906.857	18369
906.974	18323
907.091	18559
907.208	18669
907.324	18448
907.441	18391
907.557	18228
907.674	18228
907.79	18228
907.907	18125
908.023	18266
908.139	18262
908.256	18114
908.372	18125
908.488	18117
908.604	17984
908.72	17832
908.836	17893
908.952	17961
909.068	17961
909.184	17996
909.3	17847
909.415	17912
909.531	17866
909.647	17589
909.762	17577
909.878	17619
909.993	17623
910.108	17646
910.224	17532
910.339	17551
910.454	17436
910.57	17402
910.685	17299
910.8	17691
910.915	17589
911.03	17429
911.145	17193
911.259	17303
911.374	17197
911.489	17098
911.604	16991
911.718	16968
911.833	16972
911.947	16839
912.062	16896
912.176	16961
912.291	16869
912.405	16900
912.519	17117
912.633	17132
912.748	16927
912.862	16873
912.976	16733
913.09	16618
913.204	16656
913.318	16824
913.431	16809
913.545	16805
913.659	16915
913.772	16664
913.886	16626
914	16558
914.113	16634
914.226	16645
914.34	16622
914.453	16440
914.566	16371
914.68	16325
914.793	16318
914.906	16207
915.019	16059
915.132	16021
915.245	16051
915.358	16154
915.47	16181
915.583	16032
915.696	16105
915.809	16166
915.921	16219
916.034	16036
916.146	16025
916.259	16013
916.371	16055
916.483	15994
916.595	15835
916.708	15857
916.82	15968
916.932	15903
917.044	15892
917.156	15861
917.268	15717
917.38	15762
917.491	15705
917.603	15739
917.715	15831
917.826	15812
917.938	15637
918.049	15530
918.161	15622
918.272	15842
918.384	15816
918.495	15637
918.606	15488
918.717	15447
918.828	15332
918.939	15462
919.05	15492
919.161	15435
919.272	15272
919.383	15302
919.494	15492
919.604	15625
919.715	15431
919.826	15359
919.936	15363
920.047	15382
920.157	15393
920.267	15534
920.378	15401
920.488	15401
920.598	15450
920.708	15823
920.818	15386
920.928	15519
921.038	15663
921.148	15584
921.258	15405
921.368	15237
921.477	15146
921.587	15066
921.697	15070
921.806	15142
921.916	14899
922.025	14819
922.134	14849
922.244	14735
922.353	14758
922.462	14617
922.571	14556
922.68	14431
922.789	14374
922.898	14298
923.007	14358
923.116	14358
923.224	14286
923.333	14336
923.442	14233
923.55	14191
923.659	14256
923.767	14244
923.876	14115
923.984	14187
924.092	14077
924.201	14195
924.309	14157
924.417	14229
924.525	14008
924.633	14123
924.741	14823
924.849	13788
924.956	13993
925.064	13772
925.172	13761
925.279	13670
925.387	13776
925.494	13738
925.602	13803
925.709	13780
925.816	13636
925.924	13662
926.031	13788
926.138	13753
926.245	13651
926.352	13613
926.459	13719
926.566	13704
926.673	13594
926.779	13499
926.886	13464
926.993	13369
927.099	13339
927.206	13289
927.312	13095
927.419	13365
927.525	13255
927.631	13282
927.737	13076
927.843	13137
927.95	13004
928.056	13038
928.162	13137
928.267	13065
928.373	13715
928.479	13164
928.585	13004
928.69	13023
928.796	13069
928.901	12935
929.007	12802
929.112	12947
929.218	12951
929.323	12863
929.428	12764
929.533	12901
929.638	12741
929.743	12768
929.848	12825
929.953	12798
930.058	12585
930.163	12494
930.267	12475
930.372	12707
930.477	12403
930.581	12612
930.685	12528
930.79	12346
930.894	12433
930.998	12258
931.103	12464
931.207	12125
931.311	11996
931.415	11965
931.519	11794
931.623	11623
