Data from test_V78500241_3015.txt Node
Date: Fri Mar 25 16:02:41 CST 2022
User: usil
Spectrometer: V785-0024
Trigger mode: 0
Integration Time (sec): 4.000000E-1
Scans to average: 1
Nonlinearity correction enabled: false
Boxcar width: 0
Storing dark spectrum: false
XAxis mode: Wavelengths
Number of Pixels in Spectrum: 1024
>>>>>Begin Spectral Data<<<<<
801.071	28249
801.214	28230
801.356	28074
801.499	27930
801.641	27968
801.783	27808
801.926	27934
802.068	27850
802.211	27660
802.353	27713
802.496	27637
802.638	27538
802.78	27443
802.923	27473
803.065	27523
803.208	27481
803.35	27507
803.492	27675
803.635	27751
803.777	27690
803.919	27846
804.061	28090
804.204	27854
804.346	27648
804.488	27633
804.63	27747
804.773	27663
804.915	27804
805.057	27960
805.199	27774
805.341	27903
805.483	27842
805.626	27949
805.768	27789
805.91	27751
806.052	27914
806.194	27800
806.336	28040
806.478	27865
806.62	27789
806.762	28002
806.904	28131
807.046	28401
807.188	28337
807.33	28333
807.472	28314
807.614	28291
807.756	28363
807.898	28181
808.04	28287
808.182	28173
808.324	28185
808.465	28196
808.607	28478
808.749	28645
808.891	28656
809.033	28774
809.174	28584
809.316	28360
809.458	28622
809.6	28497
809.741	28577
809.883	28599
810.025	28896
810.166	28820
810.308	28672
810.45	28801
810.591	28809
810.733	28565
810.875	28512
811.016	28504
811.158	28341
811.299	28599
811.441	28729
811.582	28801
811.724	28573
811.865	28459
812.007	28538
812.148	28660
812.29	28554
812.431	28759
812.573	28866
812.714	29037
812.855	29018
812.997	29109
813.138	29261
813.279	29147
813.421	29113
813.562	29140
813.703	28858
813.845	28687
813.986	28573
814.127	28314
814.268	28459
814.41	28196
814.551	28242
814.692	28333
814.833	28200
814.974	28090
815.115	28249
815.256	28139
815.397	28112
815.539	28185
815.68	28013
815.821	28017
815.962	28025
816.103	28059
816.244	27983
816.385	27854
816.526	27857
816.666	27785
816.807	27530
816.948	27641
817.089	27580
817.23	27408
817.371	27660
817.512	27477
817.653	27656
817.793	27504
817.934	27408
818.075	27622
818.216	27477
818.356	27504
818.497	27523
818.638	27283
818.778	27260
818.919	27340
819.06	27370
819.2	27439
819.341	27492
819.481	27523
819.622	27622
819.762	27953
819.903	27983
820.043	27831
820.184	27671
820.324	27774
820.465	27713
820.605	27827
820.746	27682
820.886	27424
821.026	27599
821.167	27545
821.307	27789
821.447	27713
821.588	27545
821.728	27435
821.868	27226
822.008	27032
822.149	27005
822.289	26998
822.429	26765
822.569	26739
822.709	26731
822.849	26530
822.99	26514
823.13	26499
823.27	26400
823.41	26396
823.55	26282
823.69	26336
823.83	26374
823.97	26176
824.11	26202
824.25	25986
824.389	26191
824.529	26267
824.669	26126
824.809	26271
824.949	26446
825.089	26153
825.228	26240
825.368	26126
825.508	26145
825.648	26043
825.787	26107
825.927	26153
826.067	25993
826.206	25940
826.346	26130
826.485	26088
826.625	26065
826.765	26202
826.904	26107
827.044	25833
827.183	25788
827.323	25837
827.462	25811
827.601	25765
827.741	25833
827.88	25864
828.02	25776
828.159	25647
828.298	25712
828.437	25864
828.577	25727
828.716	25879
828.855	25780
828.994	25419
829.134	25449
829.273	25514
829.412	25445
829.551	25377
829.69	25434
829.829	25396
829.968	25556
830.107	25605
830.246	25556
830.385	25407
830.524	25377
830.663	25369
830.802	25308
830.941	25042
831.08	25061
831.219	25217
831.357	25164
831.496	25274
831.635	24996
831.774	24901
831.913	24886
832.051	24837
832.19	24916
832.329	24916
832.467	24814
832.606	24783
832.744	24703
832.883	24798
833.022	24764
833.16	24764
833.299	24806
833.437	24726
833.576	24802
833.714	24840
833.852	24677
833.991	24871
834.129	24924
834.267	24928
834.406	24798
834.544	24787
834.682	24894
834.821	24719
834.959	24977
835.097	24635
835.235	24844
835.373	24798
835.511	24821
835.65	24612
835.788	24627
835.926	24547
836.064	24452
836.202	24384
836.34	24547
836.478	24711
836.615	24616
836.753	24715
836.891	24673
837.029	24627
837.167	24555
837.305	24551
837.443	24544
837.58	24304
837.718	24505
837.856	24445
837.993	24380
838.131	24509
838.269	24292
838.406	24509
838.544	24243
838.681	24167
838.819	23999
838.956	23863
839.094	24011
839.231	24064
839.369	24011
839.506	24338
839.643	24186
839.781	23988
839.918	23878
840.055	24022
840.193	23828
840.33	23863
840.467	23824
840.604	23935
840.742	24095
840.879	23767
841.016	23783
841.153	23695
841.29	24057
841.427	23745
841.564	23779
841.701	23843
841.838	23752
841.975	23794
842.112	23684
842.249	23745
842.385	23627
842.522	23779
842.659	23627
842.796	23486
842.933	23699
843.069	23493
843.206	23600
843.343	23695
843.479	23661
843.616	23649
843.752	23376
843.889	23383
844.025	23600
844.162	23372
844.298	23429
844.435	23474
844.571	23330
844.708	23372
844.844	23573
844.98	23486
845.117	23421
845.253	23246
845.389	23212
845.525	23220
845.661	23204
845.798	23033
845.934	23246
846.07	23090
846.206	23162
846.342	23246
846.478	23132
846.614	22885
846.75	22645
846.886	22904
847.022	22824
847.158	22812
847.294	22835
847.429	22873
847.565	22672
847.701	23083
847.837	22565
847.972	22573
848.108	22588
848.244	22550
848.379	22588
848.515	22386
848.65	22318
848.786	22325
848.921	22474
849.057	22538
849.192	22447
849.328	22295
849.463	22341
849.598	22333
849.734	22276
849.869	22280
850.004	22215
850.14	22234
850.275	22090
850.41	22143
850.545	22188
850.68	22188
850.815	22177
850.95	22181
851.085	22238
851.22	22303
851.355	22261
851.49	22177
851.625	22261
851.76	22268
851.895	22128
852.03	21979
852.165	22185
852.299	22261
852.434	22204
852.569	22185
852.703	22265
852.838	22223
852.973	22318
853.107	22341
853.242	22101
853.376	22109
853.511	21953
853.645	21968
853.78	22147
853.914	22006
854.048	21835
854.183	22032
854.317	22078
854.451	22306
854.585	22002
854.72	21846
854.854	22090
854.988	21907
855.122	22051
855.256	21884
855.39	22120
855.524	21960
855.658	22200
855.792	21983
855.926	22116
856.06	22055
856.194	22128
856.327	22048
856.461	22013
856.595	21960
856.729	21968
856.862	22150
856.996	21941
857.13	22029
857.263	22116
857.397	22059
857.53	22040
857.664	21994
857.797	22051
857.931	22120
858.064	22143
858.197	22097
858.331	21991
858.464	21892
858.597	21884
858.731	21945
858.864	21922
858.997	21869
859.13	22082
859.263	22048
859.396	21968
859.529	21987
859.662	21937
859.795	21964
859.928	21972
860.061	22188
860.194	22257
860.327	22116
860.46	22017
860.592	22196
860.725	22185
860.858	22177
860.99	22101
861.123	21968
861.256	21934
861.388	22006
861.521	22850
861.653	21838
861.786	21762
861.918	21789
862.05	21838
862.183	21880
862.315	22097
862.447	22025
862.58	21956
862.712	21861
862.844	21637
862.976	21728
863.108	21701
863.24	22013
863.372	21804
863.504	21736
863.636	21755
863.768	21747
863.9	21739
864.032	21637
864.164	21720
864.296	21846
864.428	21720
864.559	21732
864.691	21793
864.823	21701
864.954	21656
865.086	21644
865.217	21507
865.349	21477
865.48	21542
865.612	21564
865.743	21667
865.875	21568
866.006	21618
866.137	21606
866.269	21549
866.4	21519
866.531	21523
866.662	21667
866.793	21496
866.924	21538
867.055	21549
867.186	21622
867.317	21603
867.448	21370
867.579	21450
867.71	21485
867.841	21435
867.972	21515
868.103	21439
868.233	21515
868.364	21496
868.495	21583
868.625	21732
868.756	21797
868.886	21595
869.017	21690
869.147	21915
869.278	21857
869.408	21838
869.539	21709
869.669	21701
869.799	21800
869.929	21968
870.06	21895
870.19	22078
870.32	22169
870.45	22097
870.58	22196
870.71	22246
870.84	22348
870.97	22101
871.1	22097
871.23	22246
871.36	22329
871.489	22303
871.619	22276
871.749	22436
871.879	22356
872.008	22508
872.138	22424
872.267	22428
872.397	22238
872.526	22272
872.656	22219
872.785	22234
872.915	22398
873.044	22504
873.173	22348
873.303	22352
873.432	22493
873.561	22508
873.69	22352
873.819	22489
873.948	22519
874.077	22470
874.206	22371
874.335	22325
874.464	22516
874.593	22653
874.722	22691
874.851	22721
874.979	22645
875.108	22721
875.237	22615
875.365	22573
875.494	22580
875.623	22687
875.751	22603
875.88	22603
876.008	22797
876.136	22812
876.265	23067
876.393	23132
876.521	23067
876.65	23025
876.778	23014
876.906	22911
877.034	22987
877.162	22930
877.29	22850
877.418	22930
877.546	22919
877.674	22942
877.802	22987
877.93	22949
878.058	22831
878.185	22774
878.313	22858
878.441	22930
878.568	22710
878.696	22736
878.824	23003
878.951	23109
879.079	23193
879.206	23246
879.333	23102
879.461	22961
879.588	23117
879.715	23140
879.842	23254
879.97	23044
880.097	22843
880.224	22790
880.351	22923
880.478	22748
880.605	22637
880.732	22847
880.859	22972
880.986	22729
881.112	22793
881.239	22706
881.366	22451
881.493	22440
881.619	22417
881.746	22337
881.872	22375
881.999	22363
882.125	22348
882.252	22421
882.378	22280
882.505	22432
882.631	22207
882.757	22253
882.883	22086
883.01	22105
883.136	21918
883.262	21915
883.388	21979
883.514	22143
883.64	22082
883.766	21926
883.892	21766
884.018	21884
884.143	21998
884.269	21983
884.395	21717
884.52	21770
884.646	21713
884.772	21614
884.897	21557
885.023	21857
885.148	21739
885.274	21895
885.399	21709
885.524	21701
885.65	21652
885.775	21827
885.9	21793
886.025	21785
886.15	21770
886.275	21614
886.4	21618
886.525	21637
886.65	21614
886.775	21618
886.9	21781
887.025	21949
887.149	21599
887.274	21466
887.399	21359
887.523	21435
887.648	21485
887.773	21397
887.897	21428
888.021	21431
888.146	21340
888.27	21500
888.395	21477
888.519	21477
888.643	21492
888.767	21405
888.891	21348
889.015	21260
889.139	21245
889.263	21127
889.387	21389
889.511	21351
889.635	21332
889.759	21226
889.883	21165
890.006	21203
890.13	21317
890.254	21108
890.377	21161
890.501	21070
890.624	20937
890.748	20986
890.871	20956
890.995	20804
891.118	20720
891.241	20952
891.364	20815
891.488	20925
891.611	20758
891.734	20762
891.857	20777
891.98	20845
892.103	20830
892.226	20724
892.349	20697
892.471	20564
892.594	20712
892.717	20765
892.839	20674
892.962	20708
893.085	20804
893.207	20579
893.33	20495
893.452	20533
893.575	20667
893.697	20564
893.819	20792
893.941	20872
894.064	20838
894.186	20571
894.308	20590
894.43	20743
894.552	20796
894.674	20785
894.796	20556
894.918	20644
895.04	20598
895.161	20823
895.283	20754
895.405	20682
895.526	20598
895.648	20606
895.769	20819
895.891	20651
896.012	20746
896.134	20670
896.255	20811
896.376	20579
896.498	20667
896.619	20655
896.74	20731
896.861	20670
896.982	21036
897.103	21066
897.224	20994
897.345	20921
897.466	20819
897.587	20914
897.708	20998
897.828	20914
897.949	20876
898.07	20788
898.19	20914
898.311	20952
898.431	20872
898.552	20857
898.672	20975
898.792	20891
898.913	20868
899.033	20883
899.153	20655
899.273	20571
899.393	20693
899.513	20629
899.633	20556
899.753	20651
899.873	20537
899.993	20629
900.113	20636
900.232	20503
900.352	20590
900.472	20408
900.591	20389
900.711	20377
900.83	20476
900.95	20454
901.069	20507
901.189	20256
901.308	20065
901.427	19909
901.546	20012
901.665	20142
901.784	19917
901.904	19776
902.023	19719
902.141	19571
902.26	19441
902.379	19647
902.498	19472
902.617	19430
902.735	19563
902.854	19487
902.973	19460
903.091	19202
903.21	19156
903.328	19110
903.446	19057
903.565	19012
903.683	18897
903.801	18882
903.919	18890
904.038	18875
904.156	18749
904.274	18806
904.392	18677
904.51	18673
904.627	18764
904.745	18798
904.863	18856
904.981	18433
905.098	18441
905.216	18334
905.334	18369
905.451	18399
905.569	18311
905.686	18388
905.803	18410
905.921	18209
906.038	18266
906.155	18194
906.272	18083
906.389	18030
906.506	17920
906.623	17977
906.74	17878
906.857	17741
906.974	17790
907.091	17958
907.208	18068
907.324	17992
907.441	17707
907.557	17668
907.674	17634
907.79	17558
907.907	17570
908.023	17672
908.139	17638
908.256	17497
908.372	17539
908.488	17570
908.604	17436
908.72	17303
908.836	17429
908.952	17356
909.068	17417
909.184	17414
909.3	17258
909.415	17315
909.531	17292
909.647	16995
909.762	17025
909.878	17102
909.993	17033
910.108	16934
910.224	16968
910.339	17014
910.454	16911
910.57	16767
910.685	16782
910.8	16995
910.915	16927
911.03	16812
911.145	16573
911.259	16531
911.374	16519
911.489	16561
911.604	16493
911.718	16405
911.833	16436
911.947	16249
912.062	16219
912.176	16440
912.291	16394
912.405	16447
912.519	16577
912.633	16554
912.748	16440
912.862	16329
912.976	16207
913.09	16051
913.204	16173
913.318	16158
913.431	16223
913.545	16204
913.659	16272
913.772	16074
913.886	16063
914	15922
914.113	16086
914.226	16188
914.34	15926
914.453	15911
914.566	15922
914.68	15789
914.793	15766
914.906	15591
915.019	15481
915.132	15462
915.245	15523
915.358	15542
915.47	15603
915.583	15542
915.696	15580
915.809	15690
915.921	15595
916.034	15549
916.146	15553
916.259	15507
916.371	15568
916.483	15481
916.595	15397
916.708	15378
916.82	15386
916.932	15340
917.044	15264
917.156	15272
917.268	15233
917.38	15207
917.491	15218
917.603	15150
917.715	15306
917.826	15249
917.938	15138
918.049	14979
918.161	15157
918.272	15249
918.384	15302
918.495	15161
918.606	14990
918.717	14902
918.828	14845
918.939	14994
919.05	14830
919.161	14982
919.272	14735
919.383	14883
919.494	14986
919.604	15146
919.715	14914
919.826	14853
919.936	14823
920.047	15009
920.157	14918
920.267	15058
920.378	15005
920.488	14918
920.598	15036
920.708	15184
920.818	15039
920.928	14979
921.038	15226
921.148	15070
921.258	14941
921.368	14781
921.477	14651
921.587	14640
921.697	14526
921.806	14594
921.916	14469
922.025	14400
922.134	14320
922.244	14256
922.353	14244
922.462	14180
922.571	14111
922.68	13959
922.789	13875
922.898	13955
923.007	13830
923.116	13906
923.224	13894
923.333	13928
923.442	13761
923.55	13894
923.659	13769
923.767	13795
923.876	13769
923.984	13776
924.092	13639
924.201	13666
924.309	13666
924.417	13700
924.525	13552
924.633	13514
924.741	14286
924.849	13422
924.956	13495
925.064	13358
925.172	13293
925.279	13263
925.387	13240
925.494	13339
925.602	13453
925.709	13354
925.816	13228
925.924	13270
926.031	13381
926.138	13251
926.245	13301
926.352	13133
926.459	13304
926.566	13282
926.673	13091
926.779	13084
926.886	13057
926.993	12973
927.099	12867
927.206	12798
927.312	12810
927.419	12894
927.525	12787
927.631	12947
927.737	12753
927.843	12696
927.95	12650
928.056	12623
928.162	12722
928.267	12779
928.373	13301
928.479	12711
928.585	12517
928.69	12658
928.796	12741
928.901	12547
929.007	12369
929.112	12498
929.218	12460
929.323	12467
929.428	12365
929.533	12513
929.638	12338
929.743	12300
929.848	12471
929.953	12353
930.058	12228
930.163	12087
930.267	12098
930.372	12270
930.477	11980
930.581	12289
930.685	12102
930.79	11920
930.894	11855
930.998	11954
931.103	11999
931.207	11649
931.311	11600
931.415	11532
931.519	11307
931.623	11284
