Data from test_V78500241_322.txt Node
Date: Fri Mar 25 15:44:01 CST 2022
User: usil
Spectrometer: V785-0024
Trigger mode: 0
Integration Time (sec): 4.000000E-1
Scans to average: 1
Nonlinearity correction enabled: false
Boxcar width: 0
Storing dark spectrum: false
XAxis mode: Wavelengths
Number of Pixels in Spectrum: 1024
>>>>>Begin Spectral Data<<<<<
801.071	29878
801.214	29843
801.356	29619
801.499	29577
801.641	29570
801.783	29531
801.926	29505
802.068	29585
802.211	29353
802.353	29330
802.496	29258
802.638	29083
802.78	29075
802.923	29117
803.065	29094
803.208	28896
803.35	29044
803.492	29113
803.635	29242
803.777	29269
803.919	29334
804.061	29767
804.204	29478
804.346	29277
804.488	29140
804.63	29326
804.773	29261
804.915	29296
805.057	29341
805.199	29273
805.341	29512
805.483	29452
805.626	29482
805.768	29326
805.91	29490
806.052	29398
806.194	29265
806.336	29672
806.478	29589
806.62	29570
806.762	29608
806.904	29889
807.046	30091
807.188	30041
807.33	29950
807.472	30034
807.614	29790
807.756	29783
807.898	29726
808.04	29691
808.182	29718
808.324	29657
808.465	29627
808.607	29920
808.749	30133
808.891	30224
809.033	30224
809.174	30190
809.316	30163
809.458	30182
809.6	29908
809.741	30163
809.883	30258
810.025	30486
810.166	30372
810.308	30452
810.45	30239
810.591	30372
810.733	30254
810.875	30102
811.016	30095
811.158	29980
811.299	30178
811.441	30342
811.582	30311
811.724	29950
811.865	30007
812.007	30133
812.148	30083
812.29	30155
812.431	30114
812.573	30441
812.714	30437
812.855	30505
812.997	30722
813.138	30867
813.279	30692
813.421	30631
813.562	30612
813.703	30407
813.845	30403
813.986	30045
814.127	29878
814.268	29790
814.41	29885
814.551	29699
814.692	29718
814.833	29783
814.974	29657
815.115	29665
815.256	29562
815.397	29570
815.539	29509
815.68	29509
815.821	29375
815.962	29448
816.103	29638
816.244	29398
816.385	29315
816.526	29265
816.666	29117
816.807	29018
816.948	29060
817.089	29185
817.23	28972
817.371	29010
817.512	29014
817.653	29025
817.793	28873
817.934	28968
818.075	28987
818.216	29010
818.356	28938
818.497	28847
818.638	28596
818.778	28752
818.919	28713
819.06	28755
819.2	28923
819.341	28984
819.481	29075
819.622	29140
819.762	29318
819.903	29372
820.043	29159
820.184	28987
820.324	29113
820.465	29307
820.605	29060
820.746	29086
820.886	28919
821.026	29041
821.167	28915
821.307	29147
821.447	28953
821.588	28820
821.728	28641
821.868	28664
822.008	28607
822.149	28405
822.289	28360
822.429	28120
822.569	28158
822.709	27953
822.849	27949
822.99	27846
823.13	27869
823.27	27876
823.41	27622
823.55	27542
823.69	27804
823.83	27827
823.97	27648
824.11	27408
824.25	27641
824.389	27466
824.529	27603
824.669	27504
824.809	27538
824.949	27591
825.089	27504
825.228	27610
825.368	27302
825.508	27435
825.648	27374
825.787	27230
825.927	27359
826.067	27374
826.206	27378
826.346	27355
826.485	27439
826.625	27363
826.765	27511
826.904	27329
827.044	27207
827.183	27036
827.323	27096
827.462	27089
827.601	27070
827.741	27176
827.88	27001
828.02	26944
828.159	27055
828.298	26933
828.437	27028
828.577	27093
828.716	27047
828.855	26940
828.994	26807
829.134	26697
829.273	26781
829.412	26651
829.551	26488
829.69	26834
829.829	26739
829.968	26796
830.107	26750
830.246	26590
830.385	26705
830.524	26617
830.663	26347
830.802	26560
830.941	26256
831.08	26225
831.219	26240
831.357	26385
831.496	26473
831.635	26336
831.774	26168
831.913	26016
832.051	26115
832.19	26088
832.329	26119
832.467	25978
832.606	25830
832.744	26035
832.883	25932
833.022	25871
833.16	25928
833.299	25913
833.437	25947
833.576	26016
833.714	25947
833.852	26054
833.991	26100
834.129	25894
834.267	25974
834.406	25890
834.544	25970
834.682	25959
834.821	25864
834.959	26069
835.097	25902
835.235	25947
835.373	25890
835.511	25917
835.65	25780
835.788	25818
835.926	25681
836.064	25582
836.202	25643
836.34	25731
836.478	25761
836.615	25658
836.753	25575
836.891	25655
837.029	25799
837.167	25582
837.305	25594
837.443	25521
837.58	25495
837.718	25757
837.856	25632
837.993	25624
838.131	25540
838.269	25415
838.406	25529
838.544	25453
838.681	25232
838.819	25061
838.956	24962
839.094	25000
839.231	25034
839.369	25209
839.506	25247
839.643	25122
839.781	24973
839.918	24890
840.055	24996
840.193	24875
840.33	24890
840.467	24783
840.604	24973
840.742	25152
840.879	24692
841.016	24795
841.153	24745
841.29	24977
841.427	24681
841.564	24856
841.701	24901
841.838	24749
841.975	24757
842.112	24608
842.249	24627
842.385	24620
842.522	24779
842.659	24509
842.796	24582
842.933	24521
843.069	24445
843.206	24505
843.343	24551
843.479	24563
843.616	24509
843.752	24403
843.889	24300
844.025	24426
844.162	24407
844.298	24467
844.435	24300
844.571	24296
844.708	24292
844.844	24399
844.98	24525
845.117	24330
845.253	24182
845.389	24197
845.525	24247
845.661	24022
845.798	24133
845.934	24022
846.07	24022
846.206	24148
846.342	24098
846.478	24007
846.614	23863
846.75	23722
846.886	23741
847.022	23889
847.158	23729
847.294	23756
847.429	23824
847.565	23729
847.701	23992
847.837	23433
847.972	23433
848.108	23573
848.244	23440
848.379	23345
848.515	23296
848.65	23258
848.786	23307
848.921	23303
849.057	23421
849.192	23421
849.328	23311
849.463	23227
849.598	23231
849.734	23136
849.869	23178
850.004	23105
850.14	23067
850.275	23117
850.41	22987
850.545	23018
850.68	23014
850.815	22957
850.95	22957
851.085	23155
851.22	23193
851.355	22957
851.49	23044
851.625	22987
851.76	23037
851.895	22938
852.03	22904
852.165	23044
852.299	23113
852.434	23235
852.569	22999
852.703	22938
852.838	23067
852.973	23212
853.107	23094
853.242	22946
853.376	22805
853.511	22767
853.645	22843
853.78	22900
853.914	22820
854.048	22805
854.183	22831
854.317	22820
854.451	23056
854.585	22797
854.72	22809
854.854	22869
854.988	22691
855.122	22733
855.256	22660
855.39	22835
855.524	22885
855.658	22927
855.792	22809
855.926	22793
856.06	22873
856.194	22908
856.327	22782
856.461	22713
856.595	22645
856.729	22755
856.862	22923
856.996	22877
857.13	22881
857.263	22812
857.397	22976
857.53	22797
857.664	22774
857.797	22965
857.931	22790
858.064	22881
858.197	22984
858.331	22755
858.464	22641
858.597	22565
858.731	22778
858.864	22790
858.997	22660
859.13	22729
859.263	22729
859.396	22797
859.529	22611
859.662	22771
859.795	22725
859.928	22831
860.061	22824
860.194	22930
860.327	22721
860.46	22748
860.592	22869
860.725	22831
860.858	22885
860.99	22767
861.123	22630
861.256	22740
861.388	22828
861.521	23391
861.653	22694
861.786	22630
861.918	22538
862.05	22736
862.183	22748
862.315	22736
862.447	22736
862.58	22809
862.712	22538
862.844	22565
862.976	22481
863.108	22489
863.24	22908
863.372	22405
863.504	22455
863.636	22379
863.768	22504
863.9	22424
864.032	22303
864.164	22348
864.296	22497
864.428	22599
864.559	22512
864.691	22504
864.823	22493
864.954	22436
865.086	22413
865.217	22375
865.349	22261
865.48	22310
865.612	22394
865.743	22436
865.875	22344
866.006	22333
866.137	22352
866.269	22318
866.4	22455
866.531	22215
866.662	22211
866.793	22284
866.924	22348
867.055	22246
867.186	22280
867.317	22067
867.448	22128
867.579	22234
867.71	22238
867.841	22166
867.972	22306
868.103	22291
868.233	22204
868.364	22131
868.495	22333
868.625	22455
868.756	22569
868.886	22379
869.017	22523
869.147	22615
869.278	22641
869.408	22443
869.539	22557
869.669	22523
869.799	22493
869.929	22698
870.06	22607
870.19	22828
870.32	22755
870.45	22744
870.58	22927
870.71	22873
870.84	22991
870.97	22812
871.1	22942
871.23	22927
871.36	23056
871.489	22858
871.619	22987
871.749	23105
871.879	23178
872.008	23151
872.138	23014
872.267	23124
872.397	22835
872.526	22850
872.656	23029
872.785	22919
872.915	23052
873.044	23189
873.173	23143
873.303	23288
873.432	23067
873.561	23197
873.69	23033
873.819	22980
873.948	23098
874.077	23083
874.206	23010
874.335	23132
874.464	23246
874.593	23174
874.722	23273
874.851	23391
874.979	23307
875.108	23379
875.237	23166
875.365	23147
875.494	23368
875.623	23341
875.751	23189
875.88	23387
876.008	23436
876.136	23520
876.265	23729
876.393	23851
876.521	23729
876.65	23741
876.778	23741
876.906	23638
877.034	23592
877.162	23619
877.29	23581
877.418	23524
877.546	23684
877.674	23680
877.802	23707
877.93	23691
878.058	23581
878.185	23528
878.313	23623
878.441	23638
878.568	23368
878.696	23649
878.824	23653
878.951	23722
879.079	23809
879.206	23885
879.333	23767
879.461	23707
879.588	23630
879.715	23729
879.842	23889
879.97	23752
880.097	23326
880.224	23406
880.351	23516
880.478	23455
880.605	23292
880.732	23444
880.859	23691
880.986	23452
881.112	23444
881.239	23395
881.366	23060
881.493	23060
881.619	23018
881.746	23132
881.872	23041
881.999	23006
882.125	23006
882.252	23117
882.378	23098
882.505	23052
882.631	22847
882.757	22809
882.883	22809
883.01	22702
883.136	22717
883.262	22557
883.388	22611
883.514	22622
883.64	22649
883.766	22554
883.892	22382
884.018	22535
884.143	22645
884.269	22721
884.395	22337
884.52	22299
884.646	22341
884.772	22322
884.897	22200
885.023	22333
885.148	22375
885.274	22424
885.399	22333
885.524	22246
885.65	22394
885.775	22371
885.9	22344
886.025	22440
886.15	22421
886.275	22272
886.4	22166
886.525	22196
886.65	22211
886.775	22112
886.9	22386
887.025	22474
887.149	22257
887.274	22109
887.399	22067
887.523	22010
887.648	21964
887.773	21888
887.897	22116
888.021	22147
888.146	22112
888.27	22158
888.395	22112
888.519	22063
888.643	21964
888.767	21983
888.891	21937
889.015	21785
889.139	21934
889.263	21880
889.387	21915
889.511	22074
889.635	21892
889.759	21789
889.883	21789
890.006	21816
890.13	21892
890.254	21770
890.377	21785
890.501	21671
890.624	21477
890.748	21618
890.871	21420
890.995	21405
891.118	21408
891.241	21428
891.364	21454
891.488	21458
891.611	21393
891.734	21355
891.857	21401
891.98	21397
892.103	21416
892.226	21458
892.349	21332
892.471	21272
892.594	21340
892.717	21306
892.839	21272
892.962	21287
893.085	21245
893.207	21230
893.33	21161
893.452	21138
893.575	21214
893.697	21363
893.819	21462
893.941	21462
894.064	21317
894.186	21127
894.308	21138
894.43	21302
894.552	21386
894.674	21317
894.796	21135
894.918	21207
895.04	21165
895.161	21332
895.283	21249
895.405	21233
895.526	21359
895.648	21161
895.769	21325
895.891	21393
896.012	21325
896.134	21291
896.255	21336
896.376	21279
896.498	21378
896.619	21473
896.74	21222
896.861	21294
896.982	21743
897.103	21736
897.224	21526
897.345	21344
897.466	21397
897.587	21450
897.708	21606
897.828	21523
897.949	21481
898.07	21222
898.19	21374
898.311	21420
898.431	21302
898.552	21412
898.672	21466
898.792	21428
898.913	21454
899.033	21195
899.153	21211
899.273	21195
899.393	21081
899.513	21203
899.633	21036
899.753	21085
899.873	21116
899.993	21165
900.113	21104
900.232	21131
900.352	21036
900.472	20861
900.591	20765
900.711	20967
900.83	20868
900.95	20910
901.069	20998
901.189	20826
901.308	20583
901.427	20511
901.546	20434
901.665	20476
901.784	20503
901.904	20286
902.023	20183
902.141	20016
902.26	19993
902.379	20031
902.498	19986
902.617	19989
902.735	20035
902.854	19959
902.973	19913
903.091	19738
903.21	19727
903.328	19628
903.446	19609
903.565	19407
903.683	19468
903.801	19270
903.919	19464
904.038	19358
904.156	19232
904.274	19198
904.392	19198
904.51	19099
904.627	19137
904.745	19217
904.863	19133
904.981	19088
905.098	18837
905.216	18806
905.334	18791
905.451	18894
905.569	18764
905.686	18878
905.803	18806
905.921	18578
906.038	18738
906.155	18745
906.272	18502
906.389	18589
906.506	18315
906.623	18380
906.74	18247
906.857	18232
906.974	18342
907.091	18357
907.208	18448
907.324	18338
907.441	18311
907.557	18133
907.674	18201
907.79	18030
907.907	17996
908.023	18068
908.139	17916
908.256	17908
908.372	17870
908.488	17882
908.604	17767
908.72	17653
908.836	17748
908.952	17710
909.068	17870
909.184	17707
909.3	17733
909.415	17783
909.531	17649
909.647	17353
909.762	17452
909.878	17398
909.993	17410
910.108	17258
910.224	17364
910.339	17368
910.454	17345
910.57	17140
910.685	17242
910.8	17414
910.915	17421
911.03	17208
911.145	17033
911.259	17010
911.374	16946
911.489	16854
911.604	16873
911.718	16694
911.833	16668
911.947	16630
912.062	16497
912.176	16725
912.291	16801
912.405	16816
912.519	16896
912.633	16980
912.748	16706
912.862	16626
912.976	16527
913.09	16371
913.204	16535
913.318	16424
913.431	16584
913.545	16523
913.659	16702
913.772	16459
913.886	16398
914	16337
914.113	16424
914.226	16474
914.34	16310
914.453	16169
914.566	16363
914.68	16230
914.793	16082
914.906	15907
915.019	15918
915.132	15835
915.245	15770
915.358	15895
915.47	15846
915.583	15903
915.696	15835
915.809	16071
915.921	15956
916.034	15861
916.146	15812
916.259	15755
916.371	15827
916.483	15861
916.595	15728
916.708	15663
916.82	15641
916.932	15610
917.044	15679
917.156	15637
917.268	15591
917.38	15568
917.491	15496
917.603	15523
917.715	15606
917.826	15667
917.938	15481
918.049	15306
918.161	15496
918.272	15667
918.384	15496
918.495	15412
918.606	15355
918.717	15207
918.828	15310
918.939	15272
919.05	15123
919.161	15230
919.272	15017
919.383	15020
919.494	15192
919.604	15321
919.715	15283
919.826	15062
919.936	15195
920.047	15268
920.157	15230
920.267	15351
920.378	15176
920.488	15154
920.598	15332
920.708	15466
920.818	15222
920.928	15252
921.038	15428
921.148	15447
921.258	15074
921.368	14937
921.477	14941
921.587	14826
921.697	14735
921.806	14838
921.916	14701
922.025	14465
922.134	14503
922.244	14419
922.353	14602
922.462	14358
922.571	14366
922.68	14180
922.789	14138
922.898	14187
923.007	14130
923.116	14164
923.224	14073
923.333	14008
923.442	14058
923.55	14031
923.659	13913
923.767	14024
923.876	13883
923.984	13959
924.092	13841
924.201	13837
924.309	13887
924.417	13731
924.525	13742
924.633	13757
924.741	14484
924.849	13578
924.956	13765
925.064	13628
925.172	13445
925.279	13552
925.387	13556
925.494	13544
925.602	13594
925.709	13521
925.816	13377
925.924	13407
926.031	13613
926.138	13411
926.245	13453
926.352	13297
926.459	13518
926.566	13468
926.673	13396
926.779	13274
926.886	13221
926.993	13183
927.099	13110
927.206	13038
927.312	13038
927.419	13122
927.525	13141
927.631	12981
927.737	12920
927.843	12871
927.95	12863
928.056	12772
928.162	12772
928.267	12962
928.373	13559
928.479	12935
928.585	12749
928.69	12814
928.796	12886
928.901	12814
929.007	12601
929.112	12688
929.218	12738
929.323	12547
929.428	12574
929.533	12757
929.638	12437
929.743	12532
929.848	12620
929.953	12486
930.058	12395
930.163	12251
930.267	12262
930.372	12399
930.477	12190
930.581	12384
930.685	12266
930.79	12095
930.894	12171
930.998	12117
931.103	12273
931.207	11859
931.311	11741
931.415	11710
931.519	11501
931.623	11486
