Data from test_V78500241_1324.txt Node
Date: Fri Mar 25 15:50:58 CST 2022
User: usil
Spectrometer: V785-0024
Trigger mode: 0
Integration Time (sec): 4.000000E-1
Scans to average: 1
Nonlinearity correction enabled: false
Boxcar width: 0
Storing dark spectrum: false
XAxis mode: Wavelengths
Number of Pixels in Spectrum: 1024
>>>>>Begin Spectral Data<<<<<
801.071	28447
801.214	28428
801.356	28207
801.499	28215
801.641	27972
801.783	27876
801.926	28086
802.068	27922
802.211	27907
802.353	27850
802.496	27747
802.638	27686
802.78	27739
802.923	27538
803.065	27610
803.208	27622
803.35	27778
803.492	27637
803.635	27861
803.777	27793
803.919	27850
804.061	28272
804.204	28105
804.346	27911
804.488	27857
804.63	27918
804.773	27705
804.915	27918
805.057	28002
805.199	28055
805.341	28006
805.483	28013
805.626	28101
805.768	27964
805.91	28051
806.052	28169
806.194	28025
806.336	28188
806.478	28048
806.62	28067
806.762	28261
806.904	28295
807.046	28611
807.188	28538
807.33	28428
807.472	28519
807.614	28550
807.756	28535
807.898	28386
808.04	28451
808.182	28557
808.324	28280
808.465	28417
808.607	28512
808.749	28755
808.891	28820
809.033	28919
809.174	28729
809.316	28759
809.458	28687
809.6	28630
809.741	28915
809.883	28934
810.025	28908
810.166	29064
810.308	29006
810.45	29018
810.591	28866
810.733	28850
810.875	28763
811.016	28557
811.158	28645
811.299	28755
811.441	28976
811.582	28797
811.724	28687
811.865	28778
812.007	28805
812.148	28748
812.29	28847
812.431	28850
812.573	29109
812.714	29204
812.855	29174
812.997	29436
813.138	29524
813.279	29474
813.421	29368
813.562	29292
813.703	29041
813.845	29006
813.986	28736
814.127	28535
814.268	28363
814.41	28527
814.551	28443
814.692	28603
814.833	28538
814.974	28409
815.115	28516
815.256	28474
815.397	28246
815.539	28341
815.68	28287
815.821	28272
815.962	28249
816.103	28211
816.244	28181
816.385	28021
816.526	28006
816.666	27888
816.807	27823
816.948	27793
817.089	27842
817.23	27854
817.371	27667
817.512	27808
817.653	27766
817.793	27774
817.934	27850
818.075	27728
818.216	27816
818.356	27743
818.497	27622
818.638	27591
818.778	27549
818.919	27641
819.06	27545
819.2	27644
819.341	27751
819.481	27816
819.622	27914
819.762	28135
819.903	28002
820.043	27930
820.184	27739
820.324	27899
820.465	27842
820.605	27789
820.746	27922
820.886	27854
821.026	27804
821.167	27842
821.307	27869
821.447	27899
821.588	27724
821.728	27682
821.868	27576
822.008	27359
822.149	27123
822.289	27317
822.429	27131
822.569	26906
822.709	26906
822.849	26754
822.99	26739
823.13	26750
823.27	26632
823.41	26541
823.55	26461
823.69	26522
823.83	26530
823.97	26587
824.11	26389
824.25	26393
824.389	26446
824.529	26613
824.669	26511
824.809	26579
824.949	26537
825.089	26412
825.228	26552
825.368	26332
825.508	26244
825.648	26313
825.787	26332
825.927	26476
826.067	26233
826.206	26381
826.346	26362
826.485	26453
826.625	26324
826.765	26320
826.904	26358
827.044	26161
827.183	26153
827.323	25974
827.462	26202
827.601	26058
827.741	26039
827.88	26031
828.02	25807
828.159	25951
828.298	25947
828.437	26092
828.577	25868
828.716	26092
828.855	25947
828.994	25689
829.134	25666
829.273	25852
829.412	25723
829.551	25666
829.69	25750
829.829	25761
829.968	25837
830.107	25723
830.246	25727
830.385	25594
830.524	25655
830.663	25460
830.802	25476
830.941	25240
831.08	25301
831.219	25301
831.357	25464
831.496	25449
831.635	25346
831.774	25198
831.913	25213
832.051	25160
832.19	25023
832.329	25004
832.467	24985
832.606	24856
832.744	24859
832.883	24897
833.022	24958
833.16	25023
833.299	24981
833.437	25046
833.576	25038
833.714	24992
833.852	25263
833.991	25129
834.129	25110
834.267	25046
834.406	24966
834.544	25114
834.682	25031
834.821	24958
834.959	25266
835.097	24935
835.235	25110
835.373	25152
835.511	25053
835.65	25004
835.788	24821
835.926	24791
836.064	24726
836.202	24741
836.34	24932
836.478	24951
836.615	24924
836.753	24749
836.891	24833
837.029	24829
837.167	24852
837.305	24734
837.443	24757
837.58	24722
837.718	24658
837.856	24665
837.993	24707
838.131	24585
838.269	24540
838.406	24555
838.544	24585
838.681	24395
838.819	24304
838.956	24197
839.094	24155
839.231	24224
839.369	24410
839.506	24597
839.643	24407
839.781	24266
839.918	24228
840.055	24209
840.193	24102
840.33	24057
840.467	24273
840.604	24049
840.742	24311
840.879	23980
841.016	23878
841.153	23935
841.29	24106
841.427	24209
841.564	24159
841.701	24083
841.838	23999
841.975	23988
842.112	23984
842.249	23870
842.385	23908
842.522	23999
842.659	23965
842.796	23752
842.933	23893
843.069	23718
843.206	23760
843.343	23805
843.479	23821
843.616	23882
843.752	23554
843.889	23665
844.025	23764
844.162	23539
844.298	23668
844.435	23657
844.571	23668
844.708	23634
844.844	23699
844.98	23714
845.117	23630
845.253	23455
845.389	23406
845.525	23425
845.661	23459
845.798	23356
845.934	23356
846.07	23471
846.206	23429
846.342	23455
846.478	23326
846.614	23204
846.75	22949
846.886	22930
847.022	23124
847.158	23140
847.294	22991
847.429	23109
847.565	22942
847.701	23395
847.837	22744
847.972	22858
848.108	22801
848.244	22911
848.379	22713
848.515	22717
848.65	22729
848.786	22626
848.921	22694
849.057	22759
849.192	22782
849.328	22596
849.463	22656
849.598	22569
849.734	22516
849.869	22645
850.004	22451
850.14	22508
850.275	22455
850.41	22287
850.545	22295
850.68	22386
850.815	22360
850.95	22303
851.085	22523
851.22	22440
851.355	22318
851.49	22390
851.625	22470
851.76	22325
851.895	22402
852.03	22310
852.165	22382
852.299	22421
852.434	22493
852.569	22535
852.703	22394
852.838	22478
852.973	22542
853.107	22618
853.242	22306
853.376	22284
853.511	22192
853.645	22360
853.78	22299
853.914	22238
854.048	22196
854.183	22386
854.317	22223
854.451	22303
854.585	22261
854.72	22272
854.854	22322
854.988	22223
855.122	22223
855.256	22139
855.39	22223
855.524	22394
855.658	22238
855.792	22223
855.926	22306
856.06	22226
856.194	22272
856.327	22150
856.461	22143
856.595	22128
856.729	22116
856.862	22375
856.996	22166
857.13	22318
857.263	22322
857.397	22166
857.53	22253
857.664	22246
857.797	22363
857.931	22238
858.064	22261
858.197	22333
858.331	22253
858.464	22200
858.597	22143
858.731	22287
858.864	22253
858.997	22204
859.13	22318
859.263	22280
859.396	22211
859.529	22238
859.662	22128
859.795	22188
859.928	22261
860.061	22356
860.194	22322
860.327	22234
860.46	22261
860.592	22234
860.725	22272
860.858	22352
860.99	22329
861.123	22029
861.256	22116
861.388	22246
861.521	22919
861.653	22124
861.786	22002
861.918	22078
862.05	22143
862.183	22234
862.315	22215
862.447	22287
862.58	22234
862.712	21854
862.844	21964
862.976	22070
863.108	22070
863.24	22322
863.372	21884
863.504	21930
863.636	21953
863.768	21922
863.9	21869
864.032	21861
864.164	21911
864.296	21736
864.428	22158
864.559	21964
864.691	22036
864.823	21869
864.954	21991
865.086	21876
865.217	21907
865.349	21785
865.48	21641
865.612	21781
865.743	21964
865.875	21812
866.006	21846
866.137	21850
866.269	21671
866.4	21876
866.531	21686
866.662	21698
866.793	21755
866.924	21743
867.055	21736
867.186	21812
867.317	21774
867.448	21625
867.579	21793
867.71	21698
867.841	21610
867.972	21781
868.103	21732
868.233	21755
868.364	21732
868.495	21835
868.625	22032
868.756	22078
868.886	21937
869.017	21918
869.147	22097
869.278	22090
869.408	22147
869.539	22010
869.669	22063
869.799	21991
869.929	22139
870.06	22051
870.19	22257
870.32	22265
870.45	22246
870.58	22405
870.71	22436
870.84	22474
870.97	22409
871.1	22352
871.23	22474
871.36	22653
871.489	22527
871.619	22485
871.749	22637
871.879	22622
872.008	22523
872.138	22443
872.267	22557
872.397	22478
872.526	22268
872.656	22436
872.785	22402
872.915	22561
873.044	22812
873.173	22698
873.303	22615
873.432	22653
873.561	22717
873.69	22596
873.819	22634
873.948	22641
874.077	22554
874.206	22485
874.335	22546
874.464	22710
874.593	22820
874.722	22782
874.851	22850
874.979	22801
875.108	22877
875.237	22725
875.365	22664
875.494	22752
875.623	22778
875.751	22862
875.88	22854
876.008	22984
876.136	22889
876.265	23227
876.393	23341
876.521	23151
876.65	23337
876.778	23151
876.906	23181
877.034	23239
877.162	23178
877.29	23124
877.418	23105
877.546	23128
877.674	23159
877.802	23147
877.93	23235
878.058	23064
878.185	23025
878.313	23033
878.441	23242
878.568	22972
878.696	23090
878.824	23124
878.951	23208
879.079	23376
879.206	23440
879.333	23330
879.461	23189
879.588	23326
879.715	23318
879.842	23376
879.97	23197
880.097	23033
880.224	23056
880.351	22900
880.478	22980
880.605	23025
880.732	22972
880.859	23147
880.986	22965
881.112	23025
881.239	22786
881.366	22721
881.493	22580
881.619	22588
881.746	22641
881.872	22565
881.999	22489
882.125	22481
882.252	22497
882.378	22432
882.505	22508
882.631	22276
882.757	22249
882.883	22276
883.01	22158
883.136	22207
883.262	22135
883.388	22097
883.514	22379
883.64	22207
883.766	22090
883.892	21956
884.018	21869
884.143	22139
884.269	22322
884.395	21930
884.52	21854
884.646	21854
884.772	21831
884.897	21789
885.023	21861
885.148	21930
885.274	22006
885.399	21991
885.524	21838
885.65	21903
885.775	21751
885.9	21819
886.025	21953
886.15	21941
886.275	21892
886.4	21660
886.525	21816
886.65	21827
886.775	21618
886.9	21934
887.025	22063
887.149	21816
887.274	21618
887.399	21538
887.523	21686
887.648	21545
887.773	21591
887.897	21694
888.021	21797
888.146	21523
888.27	21663
888.395	21633
888.519	21599
888.643	21724
888.767	21610
888.891	21519
889.015	21443
889.139	21534
889.263	21306
889.387	21580
889.511	21625
889.635	21606
889.759	21507
889.883	21351
890.006	21382
890.13	21523
890.254	21321
890.377	21397
890.501	21188
890.624	21180
890.748	21096
890.871	21036
890.995	21077
891.118	20864
891.241	20998
891.364	20960
891.488	21138
891.611	21024
891.734	21024
891.857	20933
891.98	20883
892.103	21108
892.226	21036
892.349	20979
892.471	20765
892.594	20956
892.717	20872
892.839	20765
892.962	20804
893.085	21024
893.207	20906
893.33	20788
893.452	20708
893.575	20792
893.697	20826
893.819	21047
893.941	21024
894.064	21017
894.186	20769
894.308	20708
894.43	20929
894.552	20887
894.674	21009
894.796	20765
894.918	20861
895.04	20796
895.161	20864
895.283	20838
895.405	20682
895.526	20914
895.648	20697
895.769	20796
895.891	20788
896.012	21036
896.134	20788
896.255	20777
896.376	20864
896.498	20769
896.619	20887
896.74	20807
896.861	21013
896.982	21203
897.103	21154
897.224	21146
897.345	20998
897.466	20929
897.587	21096
897.708	21218
897.828	21119
897.949	20918
898.07	20899
898.19	20895
898.311	21112
898.431	21100
898.552	21135
898.672	21062
898.792	21085
898.913	21005
899.033	21017
899.153	20807
899.273	20796
899.393	20701
899.513	20773
899.633	20842
899.753	20845
899.873	20705
899.993	20804
900.113	20667
900.232	20743
900.352	20735
900.472	20609
900.591	20480
900.711	20492
900.83	20400
900.95	20659
901.069	20526
901.189	20438
901.308	20237
901.427	20180
901.546	20043
901.665	20206
901.784	20195
901.904	19986
902.023	19849
902.141	19651
902.26	19632
902.379	19696
902.498	19708
902.617	19571
902.735	19639
902.854	19613
902.973	19464
903.091	19346
903.21	19251
903.328	19225
903.446	19270
903.565	19122
903.683	19080
903.801	19080
903.919	19031
904.038	19000
904.156	18878
904.274	18932
904.392	18791
904.51	18958
904.627	18844
904.745	18924
904.863	18897
904.981	18658
905.098	18532
905.216	18589
905.334	18563
905.451	18479
905.569	18547
905.686	18540
905.803	18646
905.921	18384
906.038	18376
906.155	18338
906.272	18155
906.389	18129
906.506	18152
906.623	18167
906.74	18140
906.857	17897
906.974	17901
907.091	18072
907.208	18186
907.324	18114
907.441	17988
907.557	17691
907.674	17710
907.79	17684
907.907	17748
908.023	17843
908.139	17832
908.256	17840
908.372	17699
908.488	17589
908.604	17501
908.72	17570
908.836	17459
908.952	17474
909.068	17501
909.184	17535
909.3	17497
909.415	17501
909.531	17444
909.647	17235
909.762	17181
909.878	17151
909.993	17166
910.108	17155
910.224	16995
910.339	17242
910.454	16968
910.57	16885
910.685	16858
910.8	17166
910.915	17147
911.03	16987
911.145	16771
911.259	16759
911.374	16694
911.489	16744
911.604	16577
911.718	16531
911.833	16588
911.947	16443
912.062	16375
912.176	16493
912.291	16550
912.405	16386
912.519	16710
912.633	16717
912.748	16398
912.862	16577
912.976	16303
913.09	16257
913.204	16265
913.318	16341
913.431	16398
913.545	16363
913.659	16352
913.772	16276
913.886	16192
914	16135
914.113	16109
914.226	16249
914.34	16185
914.453	15972
914.566	16188
914.68	16101
914.793	16067
914.906	15816
915.019	15629
915.132	15652
915.245	15622
915.358	15713
915.47	15728
915.583	15591
915.696	15743
915.809	15812
915.921	15781
916.034	15679
916.146	15603
916.259	15553
916.371	15644
916.483	15663
916.595	15481
916.708	15603
916.82	15564
916.932	15496
917.044	15488
917.156	15405
917.268	15370
917.38	15412
917.491	15249
917.603	15294
917.715	15386
917.826	15359
917.938	15203
918.049	15138
918.161	15176
918.272	15462
918.384	15393
918.495	15165
918.606	15116
918.717	15020
918.828	15032
918.939	15055
919.05	14998
919.161	15039
919.272	14883
919.383	14918
919.494	14975
919.604	15211
919.715	15039
919.826	14971
919.936	15020
920.047	15100
920.157	15112
920.267	15180
920.378	15070
920.488	14925
920.598	15222
920.708	15241
920.818	15188
920.928	15161
921.038	15279
921.148	15260
921.258	14849
921.368	14921
921.477	14807
921.587	14769
921.697	14655
921.806	14804
921.916	14556
922.025	14537
922.134	14480
922.244	14275
922.353	14446
922.462	14244
922.571	14168
922.68	14084
922.789	14005
922.898	13986
923.007	13989
923.116	14020
923.224	14054
923.333	13978
923.442	13898
923.55	13902
923.659	13986
923.767	13890
923.876	13727
923.984	13852
924.092	13712
924.201	13788
924.309	13772
924.417	13700
924.525	13632
924.633	13685
924.741	14667
924.849	13453
924.956	13620
925.064	13411
925.172	13407
925.279	13335
925.387	13480
925.494	13354
925.602	13430
925.709	13472
925.816	13327
925.924	13358
926.031	13422
926.138	13266
926.245	13320
926.352	13232
926.459	13369
926.566	13449
926.673	13270
926.779	13126
926.886	13133
926.993	12996
927.099	12989
927.206	12966
927.312	12878
927.419	12996
927.525	12894
927.631	12935
927.737	12856
927.843	12764
927.95	12692
928.056	12722
928.162	12825
928.267	12802
928.373	13293
928.479	12871
928.585	12700
928.69	12715
928.796	12673
928.901	12646
929.007	12475
929.112	12642
929.218	12547
929.323	12547
929.428	12460
929.533	12532
929.638	12490
929.743	12456
929.848	12528
929.953	12380
930.058	12289
930.163	12140
930.267	12114
930.372	12327
930.477	12076
930.581	12308
930.685	12205
930.79	12106
930.894	12076
930.998	11999
931.103	12194
931.207	11764
931.311	11703
931.415	11600
931.519	11360
931.623	11414
