Data from test_V78500241_1558.txt Node
Date: Fri Mar 25 15:52:35 CST 2022
User: usil
Spectrometer: V785-0024
Trigger mode: 0
Integration Time (sec): 4.000000E-1
Scans to average: 1
Nonlinearity correction enabled: false
Boxcar width: 0
Storing dark spectrum: false
XAxis mode: Wavelengths
Number of Pixels in Spectrum: 1024
>>>>>Begin Spectral Data<<<<<
801.071	28090
801.214	28021
801.356	27846
801.499	27793
801.641	27671
801.783	27557
801.926	27656
802.068	27766
802.211	27595
802.353	27485
802.496	27481
802.638	27313
802.78	27226
802.923	27264
803.065	27112
803.208	27127
803.35	27264
803.492	27367
803.635	27504
803.777	27351
803.919	27622
804.061	27789
804.204	27580
804.346	27469
804.488	27317
804.63	27515
804.773	27477
804.915	27538
805.057	27606
805.199	27351
805.341	27694
805.483	27622
805.626	27675
805.768	27663
805.91	27618
806.052	27770
806.194	27553
806.336	27785
806.478	27789
806.62	27618
806.762	27637
806.904	27797
807.046	28147
807.188	28048
807.33	28128
807.472	28150
807.614	27960
807.756	28143
807.898	27983
808.04	27717
808.182	27873
808.324	28090
808.465	28040
808.607	28078
808.749	28287
808.891	28329
809.033	28466
809.174	28371
809.316	28207
809.458	28238
809.6	28154
809.741	28348
809.883	28417
810.025	28493
810.166	28626
810.308	28554
810.45	28455
810.591	28546
810.733	28390
810.875	28303
811.016	28112
811.158	28150
811.299	28459
811.441	28466
811.582	28500
811.724	28234
811.865	28265
812.007	28185
812.148	28223
812.29	28386
812.431	28478
812.573	28451
812.714	28660
812.855	28790
812.997	28961
813.138	28911
813.279	28927
813.421	28797
813.562	28626
813.703	28497
813.845	28462
813.986	28337
814.127	28078
814.268	27922
814.41	28070
814.551	27842
814.692	28078
814.833	28048
814.974	27941
815.115	27968
815.256	27663
815.397	27652
815.539	27922
815.68	27728
815.821	27720
815.962	27873
816.103	27747
816.244	27656
816.385	27504
816.526	27553
816.666	27317
816.807	27150
816.948	27291
817.089	27325
817.23	27279
817.371	27283
817.512	27161
817.653	27260
817.793	27359
817.934	27321
818.075	27332
818.216	27237
818.356	27222
818.497	27207
818.638	27013
818.778	27070
818.919	27001
819.06	27047
819.2	27047
819.341	27287
819.481	27123
819.622	27378
819.762	27545
819.903	27599
820.043	27485
820.184	27393
820.324	27310
820.465	27431
820.605	27378
820.746	27507
820.886	27249
821.026	27389
821.167	27447
821.307	27447
821.447	27287
821.588	27165
821.728	27055
821.868	26868
822.008	26834
822.149	26834
822.289	26792
822.429	26598
822.569	26469
822.709	26453
822.849	26195
822.99	26275
823.13	26195
823.27	26248
823.41	26046
823.55	26012
823.69	26126
823.83	26088
823.97	26062
824.11	25765
824.25	25856
824.389	25875
824.529	25989
824.669	25883
824.809	26020
824.949	25974
825.089	25947
825.228	25928
825.368	25841
825.508	25704
825.648	25818
825.787	25826
825.927	25974
826.067	25708
826.206	25719
826.346	25776
826.485	25788
826.625	25780
826.765	25860
826.904	25795
827.044	25506
827.183	25518
827.323	25415
827.462	25571
827.601	25529
827.741	25434
827.88	25510
828.02	25365
828.159	25449
828.298	25567
828.437	25537
828.577	25388
828.716	25518
828.855	25304
828.994	25171
829.134	25156
829.273	25206
829.412	25145
829.551	25038
829.69	25221
829.829	25217
829.968	25282
830.107	25244
830.246	25110
830.385	25004
830.524	25168
830.663	25023
830.802	24894
830.941	24821
831.08	24654
831.219	24700
831.357	24905
831.496	25008
831.635	24768
831.774	24719
831.913	24570
832.051	24650
832.19	24658
832.329	24502
832.467	24551
832.606	24407
832.744	24395
832.883	24418
833.022	24437
833.16	24448
833.299	24544
833.437	24475
833.576	24456
833.714	24486
833.852	24604
833.991	24517
834.129	24703
834.267	24620
834.406	24540
834.544	24505
834.682	24452
834.821	24494
834.959	24665
835.097	24475
835.235	24544
835.373	24582
835.511	24456
835.65	24376
835.788	24251
835.926	24277
836.064	24102
836.202	24148
836.34	24384
836.478	24441
836.615	24342
836.753	24365
836.891	24395
837.029	24342
837.167	24266
837.305	24266
837.443	24152
837.58	24007
837.718	24171
837.856	24098
837.993	24068
838.131	23950
838.269	24095
838.406	24064
838.544	24018
838.681	23790
838.819	23764
838.956	23592
839.094	23623
839.231	23710
839.369	23836
839.506	23874
839.643	23828
839.781	23634
839.918	23520
840.055	23566
840.193	23535
840.33	23638
840.467	23493
840.604	23623
840.742	23756
840.879	23417
841.016	23577
841.153	23543
841.29	23653
841.427	23585
841.564	23547
841.701	23558
841.838	23509
841.975	23452
842.112	23444
842.249	23296
842.385	23376
842.522	23387
842.659	23345
842.796	23204
842.933	23265
843.069	23364
843.206	23250
843.343	23376
843.479	23376
843.616	23261
843.752	23022
843.889	23181
844.025	23174
844.162	22987
844.298	23254
844.435	23140
844.571	23048
844.708	23090
844.844	23341
844.98	23170
845.117	23143
845.253	23094
845.389	22915
845.525	22934
845.661	22869
845.798	22820
845.934	22892
846.07	22736
846.206	22759
846.342	22942
846.478	22892
846.614	22550
846.75	22497
846.886	22504
847.022	22569
847.158	22656
847.294	22538
847.429	22622
847.565	22554
847.701	22733
847.837	22253
847.972	22211
848.108	22466
848.244	22322
848.379	22238
848.515	22074
848.65	22272
848.786	22154
848.921	22200
849.057	22299
849.192	22303
849.328	22276
849.463	22192
849.598	22013
849.734	21945
849.869	22002
850.004	21869
850.14	21854
850.275	21797
850.41	21964
850.545	21994
850.68	21884
850.815	21972
850.95	21804
851.085	22063
851.22	22006
851.355	21953
851.49	21827
851.625	21937
851.76	21869
851.895	21937
852.03	21739
852.165	21899
852.299	21888
852.434	21873
852.569	21903
852.703	21918
852.838	22086
852.973	21983
853.107	22032
853.242	21819
853.376	21831
853.511	21606
853.645	21778
853.78	21922
853.914	21759
854.048	21743
854.183	21625
854.317	21819
854.451	21907
854.585	21637
854.72	21717
854.854	21759
854.988	21652
855.122	21736
855.256	21610
855.39	21663
855.524	21622
855.658	21648
855.792	21663
855.926	21679
856.06	21854
856.194	21739
856.327	21660
856.461	21675
856.595	21545
856.729	21682
856.862	21873
856.996	21690
857.13	21850
857.263	21808
857.397	21705
857.53	21793
857.664	21610
857.797	21918
857.931	21899
858.064	21778
858.197	21759
858.331	21694
858.464	21591
858.597	21663
858.731	21675
858.864	21576
858.997	21534
859.13	21728
859.263	21614
859.396	21743
859.529	21778
859.662	21686
859.795	21743
859.928	21629
860.061	21911
860.194	21937
860.327	21732
860.46	21686
860.592	21835
860.725	21728
860.858	21854
860.99	21736
861.123	21553
861.256	21656
861.388	21713
861.521	22314
861.653	21515
861.786	21504
861.918	21610
862.05	21679
862.183	21701
862.315	21519
862.447	21770
862.58	21622
862.712	21462
862.844	21321
862.976	21469
863.108	21477
863.24	21922
863.372	21424
863.504	21515
863.636	21450
863.768	21450
863.9	21462
864.032	21416
864.164	21344
864.296	21412
864.428	21534
864.559	21591
864.691	21424
864.823	21447
864.954	21389
865.086	21466
865.217	21367
865.349	21294
865.48	21233
865.612	21173
865.743	21424
865.875	21268
866.006	21268
866.137	21435
866.269	21169
866.4	21348
866.531	21317
866.662	21176
866.793	21279
866.924	21325
867.055	21256
867.186	21302
867.317	21131
867.448	21176
867.579	21207
867.71	21218
867.841	21165
867.972	21203
868.103	21279
868.233	21298
868.364	21142
868.495	21294
868.625	21355
868.756	21591
868.886	21340
869.017	21374
869.147	21549
869.278	21587
869.408	21625
869.539	21477
869.669	21568
869.799	21629
869.929	21610
870.06	21606
870.19	21812
870.32	21781
870.45	21785
870.58	21873
870.71	22032
870.84	22067
870.97	21903
871.1	21915
871.23	22105
871.36	22063
871.489	21960
871.619	22063
871.749	21991
871.879	22143
872.008	22158
872.138	22013
872.267	22150
872.397	21994
872.526	21823
872.656	21854
872.785	21899
872.915	21934
873.044	22101
873.173	22139
873.303	22135
873.432	22257
873.561	22234
873.69	22051
873.819	22109
873.948	22143
874.077	22147
874.206	22063
874.335	22177
874.464	22242
874.593	22337
874.722	22234
874.851	22329
874.979	22295
875.108	22405
875.237	22173
875.365	22303
875.494	22310
875.623	22367
875.751	22219
875.88	22257
876.008	22470
876.136	22405
876.265	22850
876.393	22843
876.521	22782
876.65	22752
876.778	22885
876.906	22611
877.034	22736
877.162	22763
877.29	22588
877.418	22683
877.546	22683
877.674	22622
877.802	22725
877.93	22641
878.058	22618
878.185	22660
878.313	22603
878.441	22592
878.568	22451
878.696	22588
878.824	22691
878.951	22812
879.079	22881
879.206	22847
879.333	22892
879.461	22812
879.588	22889
879.715	22755
879.842	23105
879.97	22805
880.097	22577
880.224	22512
880.351	22489
880.478	22637
880.605	22348
880.732	22519
880.859	22683
880.986	22516
881.112	22413
881.239	22417
881.366	22158
881.493	22120
881.619	22090
881.746	22032
881.872	22051
881.999	22032
882.125	22006
882.252	22051
882.378	22086
882.505	22143
882.631	21972
882.757	21785
882.883	21953
883.01	21789
883.136	21705
883.262	21724
883.388	21511
883.514	21781
883.64	21869
883.766	21614
883.892	21500
884.018	21447
884.143	21652
884.269	21880
884.395	21488
884.52	21435
884.646	21435
884.772	21321
884.897	21256
885.023	21473
885.148	21545
885.274	21595
885.399	21450
885.524	21329
885.65	21504
885.775	21329
885.9	21492
886.025	21481
886.15	21443
886.275	21374
886.4	21287
886.525	21306
886.65	21302
886.775	21367
886.9	21485
887.025	21625
887.149	21283
887.274	21287
887.399	21214
887.523	21047
887.648	21207
887.773	21051
887.897	21306
888.021	21138
888.146	21070
888.27	21214
888.395	21287
888.519	21233
888.643	21138
888.767	21222
888.891	21100
889.015	20971
889.139	20952
889.263	20948
889.387	21047
889.511	21192
889.635	21150
889.759	20910
889.883	20872
890.006	21096
890.13	21077
890.254	20914
890.377	20899
890.501	20617
890.624	20724
890.748	20667
890.871	20663
890.995	20499
891.118	20560
891.241	20503
891.364	20575
891.488	20617
891.611	20560
891.734	20598
891.857	20560
891.98	20621
892.103	20587
892.226	20587
892.349	20434
892.471	20298
892.594	20465
892.717	20377
892.839	20404
892.962	20423
893.085	20492
893.207	20278
893.33	20229
893.452	20385
893.575	20552
893.697	20347
893.819	20549
893.941	20670
894.064	20609
894.186	20400
894.308	20298
894.43	20450
894.552	20545
894.674	20609
894.796	20275
894.918	20374
895.04	20313
895.161	20518
895.283	20400
895.405	20355
895.526	20457
895.648	20408
895.769	20465
895.891	20400
896.012	20461
896.134	20590
896.255	20446
896.376	20377
896.498	20393
896.619	20545
896.74	20377
896.861	20583
896.982	20724
897.103	20880
897.224	20701
897.345	20606
897.466	20602
897.587	20549
897.708	20735
897.828	20743
897.949	20511
898.07	20415
898.19	20629
898.311	20663
898.431	20678
898.552	20640
898.672	20632
898.792	20670
898.913	20655
899.033	20564
899.153	20503
899.273	20237
899.393	20419
899.513	20381
899.633	20317
899.753	20358
899.873	20404
899.993	20248
900.113	20374
900.232	20434
900.352	20336
900.472	20282
900.591	20069
900.711	20134
900.83	20145
900.95	20294
901.069	20187
901.189	20126
901.308	19803
901.427	19620
901.546	19533
901.665	19795
901.784	19750
901.904	19438
902.023	19419
902.141	19331
902.26	19384
902.379	19289
902.498	19244
902.617	19209
902.735	19263
902.854	19244
902.973	19141
903.091	19031
903.21	18741
903.328	18825
903.446	18814
903.565	18642
903.683	18772
903.801	18604
903.919	18692
904.038	18646
904.156	18551
904.274	18502
904.392	18483
904.51	18456
904.627	18521
904.745	18559
904.863	18551
904.981	18266
905.098	18079
905.216	18209
905.334	18167
905.451	18159
905.569	18045
905.686	18197
905.803	18194
905.921	17874
906.038	18098
906.155	18011
906.272	17786
906.389	17882
906.506	17646
906.623	17722
906.74	17630
906.857	17554
906.974	17585
907.091	17611
907.208	17764
907.324	17722
907.441	17547
907.557	17452
907.674	17471
907.79	17288
907.907	17356
908.023	17398
908.139	17330
908.256	17410
908.372	17242
908.488	17284
908.604	17128
908.72	17136
908.836	17197
908.952	17060
909.068	17083
909.184	17220
909.3	17121
909.415	17064
909.531	17079
909.647	16965
909.762	16847
909.878	16687
909.993	16653
910.108	16710
910.224	16721
910.339	16839
910.454	16672
910.57	16672
910.685	16618
910.8	16797
910.915	16725
911.03	16615
911.145	16428
911.259	16375
911.374	16394
911.489	16398
911.604	16253
911.718	16112
911.833	16139
911.947	16188
912.062	16036
912.176	16082
912.291	16188
912.405	16230
912.519	16299
912.633	16261
912.748	16196
912.862	16078
912.976	15968
913.09	15838
913.204	15827
913.318	16010
913.431	16093
913.545	15991
913.659	15922
913.772	15922
913.886	15869
914	15732
914.113	15903
914.226	15800
914.34	15789
914.453	15671
914.566	15778
914.68	15671
914.793	15526
914.906	15424
915.019	15386
915.132	15230
915.245	15302
915.358	15310
915.47	15306
915.583	15329
915.696	15359
915.809	15488
915.921	15682
916.034	15298
916.146	15249
916.259	15256
916.371	15351
916.483	15256
916.595	15245
916.708	15150
916.82	15176
916.932	15108
917.044	15108
917.156	15077
917.268	15070
917.38	15062
917.491	14918
917.603	15005
917.715	15112
917.826	15089
917.938	14899
918.049	14823
918.161	14979
918.272	15028
918.384	14998
918.495	14918
918.606	14796
918.717	14617
918.828	14796
918.939	14739
919.05	14758
919.161	14735
919.272	14522
919.383	14571
919.494	14743
919.604	14918
919.715	14788
919.826	14629
919.936	14746
920.047	14727
920.157	14746
920.267	14895
920.378	14727
920.488	14533
920.598	14845
920.708	15032
920.818	14857
920.928	14872
921.038	15062
921.148	14975
921.258	14644
921.368	14583
921.477	14533
921.587	14336
921.697	14309
921.806	14415
921.916	14256
922.025	14157
922.134	14069
922.244	14092
922.353	14119
922.462	13974
922.571	13879
922.68	13784
922.789	13662
922.898	13708
923.007	13734
923.116	13780
923.224	13734
923.333	13769
923.442	13605
923.55	13518
923.659	13670
923.767	13559
923.876	13563
923.984	13556
924.092	13422
924.201	13430
924.309	13472
924.417	13468
924.525	13483
924.633	13396
924.741	14317
924.849	13175
924.956	13335
925.064	13129
925.172	13061
925.279	13206
925.387	13118
925.494	13084
925.602	13266
925.709	13221
925.816	13031
925.924	13012
926.031	13107
926.138	13099
926.245	13099
926.352	12954
926.459	13076
926.566	13050
926.673	12932
926.779	12863
926.886	12970
926.993	12734
927.099	12749
927.206	12665
927.312	12593
927.419	12642
927.525	12730
927.631	12696
927.737	12597
927.843	12540
927.95	12407
928.056	12506
928.162	12471
928.267	12521
928.373	13190
928.479	12700
928.585	12372
928.69	12437
928.796	12593
928.901	12296
929.007	12308
929.112	12391
929.218	12308
929.323	12266
929.428	12262
929.533	12365
929.638	12155
929.743	12155
929.848	12235
929.953	12175
930.058	12098
930.163	11942
930.267	11893
930.372	12072
930.477	11912
930.581	12064
930.685	12038
930.79	11726
930.894	11897
930.998	11684
931.103	11863
931.207	11581
931.311	11452
931.415	11391
931.519	11212
931.623	11185
