Data from test_V78500241_2332.txt Node
Date: Fri Mar 25 15:57:57 CST 2022
User: usil
Spectrometer: V785-0024
Trigger mode: 0
Integration Time (sec): 4.000000E-1
Scans to average: 1
Nonlinearity correction enabled: false
Boxcar width: 0
Storing dark spectrum: false
XAxis mode: Wavelengths
Number of Pixels in Spectrum: 1024
>>>>>Begin Spectral Data<<<<<
801.071	28801
801.214	28923
801.356	28618
801.499	28523
801.641	28367
801.783	28333
801.926	28462
802.068	28325
802.211	28223
802.353	28166
802.496	28303
802.638	28063
802.78	28109
802.923	28112
803.065	27876
803.208	28025
803.35	28120
803.492	28284
803.635	28356
803.777	28295
803.919	28318
804.061	28672
804.204	28462
804.346	28280
804.488	28379
804.63	28413
804.773	28318
804.915	28341
805.057	28546
805.199	28413
805.341	28519
805.483	28409
805.626	28462
805.768	28375
805.91	28489
806.052	28626
806.194	28409
806.336	28691
806.478	28417
806.62	28523
806.762	28607
806.904	28831
807.046	28923
807.188	28869
807.33	29025
807.472	28995
807.614	28839
807.756	29018
807.898	28919
808.04	28630
808.182	28801
808.324	28744
808.465	28801
808.607	29113
808.749	29010
808.891	29212
809.033	29269
809.174	29292
809.316	29128
809.458	29170
809.6	29121
809.741	29284
809.883	29368
810.025	29596
810.166	29490
810.308	29497
810.45	29421
810.591	29406
810.733	29284
810.875	29064
811.016	29056
811.158	29052
811.299	29197
811.441	29455
811.582	29349
811.724	29284
811.865	29239
812.007	29227
812.148	29261
812.29	29254
812.431	29322
812.573	29577
812.714	29642
812.855	29619
812.997	29870
813.138	29980
813.279	29836
813.421	29630
813.562	29775
813.703	29604
813.845	29425
813.986	29216
814.127	28892
814.268	28904
814.41	28873
814.551	28786
814.692	28984
814.833	28858
814.974	28900
815.115	28862
815.256	28812
815.397	28801
815.539	28649
815.68	28618
815.821	28694
815.962	28771
816.103	28668
816.244	28573
816.385	28557
816.526	28436
816.666	28379
816.807	28207
816.948	28249
817.089	28386
817.23	28238
817.371	28284
817.512	28249
817.653	28150
817.793	28158
817.934	28200
818.075	28211
818.216	28181
818.356	28150
818.497	28120
818.638	27911
818.778	27949
818.919	27934
819.06	27994
819.2	28055
819.341	28295
819.481	28128
819.622	28459
819.762	28611
819.903	28481
820.043	28421
820.184	28428
820.324	28291
820.465	28447
820.605	28329
820.746	28322
820.886	28226
821.026	28318
821.167	28333
821.307	28371
821.447	28219
821.588	28158
821.728	27983
821.868	27907
822.008	27774
822.149	27732
822.289	27648
822.429	27389
822.569	27188
822.709	27405
822.849	27283
822.99	27138
823.13	27310
823.27	27062
823.41	27032
823.55	26937
823.69	27070
823.83	27051
823.97	27058
824.11	26750
824.25	26769
824.389	26815
824.529	26933
824.669	26918
824.809	26937
824.949	27051
825.089	26891
825.228	26948
825.368	26853
825.508	26743
825.648	26750
825.787	26743
825.927	26857
826.067	26651
826.206	26674
826.346	26910
826.485	26887
826.625	26796
826.765	26826
826.904	26705
827.044	26613
827.183	26476
827.323	26431
827.462	26556
827.601	26533
827.741	26438
827.88	26545
828.02	26263
828.159	26514
828.298	26362
828.437	26549
828.577	26446
828.716	26453
828.855	26183
828.994	26119
829.134	26142
829.273	26126
829.412	26180
829.551	26164
829.69	26130
829.829	26043
829.968	26138
830.107	26199
830.246	26153
830.385	26084
830.524	26043
830.663	26096
830.802	25795
830.941	25723
831.08	25719
831.219	25887
831.357	25841
831.496	25951
831.635	25719
831.774	25860
831.913	25605
832.051	25571
832.19	25544
832.329	25586
832.467	25430
832.606	25457
832.744	25282
832.883	25384
833.022	25282
833.16	25381
833.299	25559
833.437	25552
833.576	25479
833.714	25392
833.852	25529
833.991	25518
834.129	25597
834.267	25483
834.406	25502
834.544	25373
834.682	25548
834.821	25472
834.959	25559
835.097	25396
835.235	25479
835.373	25479
835.511	25499
835.65	25270
835.788	25403
835.926	25354
836.064	25053
836.202	25152
836.34	25377
836.478	25339
836.615	25228
836.753	25263
836.891	25289
837.029	25285
837.167	25198
837.305	25247
837.443	25118
837.58	25213
837.718	25088
837.856	25107
837.993	25133
838.131	25145
838.269	25004
838.406	25019
838.544	25015
838.681	24738
838.819	24909
838.956	24521
839.094	24486
839.231	24719
839.369	24753
839.506	25095
839.643	24825
839.781	24566
839.918	24490
840.055	24574
840.193	24559
840.33	24426
840.467	24498
840.604	24532
840.742	24814
840.879	24251
841.016	24414
841.153	24315
841.29	24627
841.427	24551
841.564	24616
841.701	24429
841.838	24612
841.975	24369
842.112	24460
842.249	24323
842.385	24239
842.522	24574
842.659	24327
842.796	24300
842.933	24201
843.069	24144
843.206	24106
843.343	24285
843.479	24228
843.616	24315
843.752	24060
843.889	24045
844.025	24133
844.162	23973
844.298	23973
844.435	23980
844.571	23912
844.708	24060
844.844	24125
844.98	24174
845.117	23950
845.253	24011
845.389	23874
845.525	23980
845.661	23916
845.798	23836
845.934	23817
846.07	23634
846.206	23760
846.342	23687
846.478	23714
846.614	23516
846.75	23391
846.886	23421
847.022	23558
847.158	23490
847.294	23501
847.429	23497
847.565	23516
847.701	23630
847.837	23250
847.972	23113
848.108	23356
848.244	23128
848.379	23094
848.515	23018
848.65	22915
848.786	23064
848.921	23060
849.057	23220
849.192	23064
849.328	23090
849.463	23105
849.598	23075
849.734	22896
849.869	22987
850.004	22873
850.14	22847
850.275	22877
850.41	22641
850.545	22820
850.68	22866
850.815	22698
850.95	22854
851.085	22946
851.22	23090
851.355	22866
851.49	22908
851.625	22843
851.76	22774
851.895	22744
852.03	22786
852.165	22706
852.299	22889
852.434	22908
852.569	22850
852.703	22782
852.838	22847
852.973	22953
853.107	22843
853.242	22702
853.376	22615
853.511	22615
853.645	22744
853.78	22831
853.914	22622
854.048	22626
854.183	22687
854.317	22607
854.451	22889
854.585	22603
854.72	22675
854.854	22698
854.988	22607
855.122	22554
855.256	22470
855.39	22660
855.524	22664
855.658	22721
855.792	22634
855.926	22634
856.06	22596
856.194	22763
856.327	22694
856.461	22713
856.595	22588
856.729	22618
856.862	22733
856.996	22656
857.13	22675
857.263	22877
857.397	22782
857.53	22615
857.664	22592
857.797	22702
857.931	22729
858.064	22603
858.197	22706
858.331	22527
858.464	22443
858.597	22512
858.731	22683
858.864	22596
858.997	22706
859.13	22634
859.263	22569
859.396	22615
859.529	22569
859.662	22592
859.795	22577
859.928	22478
860.061	22767
860.194	22767
860.327	22740
860.46	22668
860.592	22774
860.725	22858
860.858	22763
860.99	22729
861.123	22554
861.256	22440
861.388	22641
861.521	23265
861.653	22512
861.786	22421
861.918	22557
862.05	22535
862.183	22500
862.315	22527
862.447	22546
862.58	22561
862.712	22371
862.844	22344
862.976	22542
863.108	22428
863.24	22828
863.372	22318
863.504	22348
863.636	22341
863.768	22451
863.9	22242
864.032	22207
864.164	22459
864.296	22371
864.428	22379
864.559	22284
864.691	22356
864.823	22447
864.954	22322
865.086	22360
865.217	22287
865.349	22150
865.48	22200
865.612	22223
865.743	22462
865.875	22284
866.006	22344
866.137	22291
866.269	22211
866.4	22207
866.531	22131
866.662	22074
866.793	22135
866.924	22135
867.055	22200
867.186	22196
867.317	22128
867.448	22044
867.579	22025
867.71	21983
867.841	22135
867.972	22188
868.103	22215
868.233	22074
868.364	22147
868.495	22306
868.625	22390
868.756	22588
868.886	22295
869.017	22322
869.147	22485
869.278	22455
869.408	22371
869.539	22462
869.669	22508
869.799	22500
869.929	22603
870.06	22550
870.19	22725
870.32	22664
870.45	22603
870.58	22778
870.71	22862
870.84	22896
870.97	22721
871.1	22706
871.23	22927
871.36	22946
871.489	22965
871.619	22965
871.749	22949
871.879	22949
872.008	23067
872.138	22923
872.267	22881
872.397	22892
872.526	22816
872.656	22927
872.785	22672
872.915	23090
873.044	23044
873.173	23029
873.303	22991
873.432	22999
873.561	23064
873.69	22987
873.819	22965
873.948	23223
874.077	23022
874.206	22953
874.335	23041
874.464	23117
874.593	23288
874.722	23200
874.851	23235
874.979	23254
875.108	23212
875.237	23193
875.365	23044
875.494	23102
875.623	23254
875.751	23117
875.88	23162
876.008	23387
876.136	23421
876.265	23554
876.393	23680
876.521	23600
876.65	23760
876.778	23600
876.906	23497
877.034	23497
877.162	23535
877.29	23490
877.418	23493
877.546	23570
877.674	23592
877.802	23551
877.93	23478
878.058	23459
878.185	23455
878.313	23478
878.441	23509
878.568	23387
878.696	23379
878.824	23531
878.951	23630
879.079	23764
879.206	23798
879.333	23543
879.461	23703
879.588	23516
879.715	23718
879.842	23866
879.97	23585
880.097	23364
880.224	23318
880.351	23406
880.478	23429
880.605	23353
880.732	23368
880.859	23710
880.986	23360
881.112	23414
881.239	23254
881.366	23067
881.493	22999
881.619	23037
881.746	22968
881.872	22858
881.999	22965
882.125	22767
882.252	22961
882.378	22828
882.505	22980
882.631	22771
882.757	22675
882.883	22812
883.01	22599
883.136	22557
883.262	22394
883.388	22538
883.514	22573
883.64	22554
883.766	22493
883.892	22344
884.018	22390
884.143	22535
884.269	22554
884.395	22386
884.52	22257
884.646	22333
884.772	22090
884.897	22147
885.023	22348
885.148	22219
885.274	22337
885.399	22356
885.524	22261
885.65	22257
885.775	22051
885.9	22272
886.025	22443
886.15	22341
886.275	22147
886.4	22078
886.525	22242
886.65	22246
886.775	22051
886.9	22356
887.025	22443
887.149	22025
887.274	22051
887.399	21994
887.523	21991
887.648	21975
887.773	21975
887.897	22010
888.021	22059
888.146	21888
888.27	22006
888.395	22150
888.519	21892
888.643	22063
888.767	22051
888.891	21865
889.015	21781
889.139	21918
889.263	21770
889.387	21930
889.511	22006
889.635	21831
889.759	21720
889.883	21793
890.006	21755
890.13	21854
890.254	21660
890.377	21747
890.501	21583
890.624	21473
890.748	21530
890.871	21180
890.995	21291
891.118	21283
891.241	21405
891.364	21386
891.488	21393
891.611	21424
891.734	21241
891.857	21367
891.98	21249
892.103	21306
892.226	21313
892.349	21173
892.471	21043
892.594	21146
892.717	21355
892.839	21207
892.962	21260
893.085	21298
893.207	21180
893.33	21058
893.452	21188
893.575	21298
893.697	21081
893.819	21313
893.941	21428
894.064	21374
894.186	21135
894.308	21081
894.43	21275
894.552	21401
894.674	21294
894.796	21165
894.918	21233
895.04	21157
895.161	21230
895.283	21184
895.405	21108
895.526	21066
895.648	21214
895.769	21165
895.891	21249
896.012	21176
896.134	21321
896.255	21264
896.376	21195
896.498	21188
896.619	21485
896.74	21176
896.861	21336
896.982	21538
897.103	21656
897.224	21526
897.345	21428
897.466	21332
897.587	21466
897.708	21580
897.828	21424
897.949	21401
898.07	21329
898.19	21393
898.311	21534
898.431	21332
898.552	21420
898.672	21450
898.792	21454
898.913	21557
899.033	21431
899.153	21252
899.273	21062
899.393	21058
899.513	21222
899.633	21146
899.753	21207
899.873	21020
899.993	21123
900.113	21089
900.232	21161
900.352	21104
900.472	21047
900.591	20918
900.711	21028
900.83	20891
900.95	21039
901.069	20998
901.189	20765
901.308	20583
901.427	20499
901.546	20560
901.665	20564
901.784	20530
901.904	20434
902.023	20164
902.141	20096
902.26	20012
902.379	20069
902.498	20005
902.617	19970
902.735	20043
902.854	19944
902.973	19818
903.091	19658
903.21	19685
903.328	19658
903.446	19658
903.565	19411
903.683	19518
903.801	19377
903.919	19339
904.038	19304
904.156	19206
904.274	19297
904.392	19232
904.51	19160
904.627	19118
904.745	19289
904.863	19209
904.981	18920
905.098	18795
905.216	18909
905.334	18939
905.451	18844
905.569	18848
905.686	18886
905.803	18913
905.921	18673
906.038	18730
906.155	18715
906.272	18688
906.389	18551
906.506	18448
906.623	18521
906.74	18353
906.857	18273
906.974	18270
907.091	18311
907.208	18593
907.324	18369
907.441	18311
907.557	18045
907.674	18182
907.79	18022
907.907	18121
908.023	18148
908.139	18087
908.256	18007
908.372	17885
908.488	17980
908.604	17847
908.72	17714
908.836	17847
908.952	17748
909.068	17836
909.184	17863
909.3	17775
909.415	17927
909.531	17611
909.647	17649
909.762	17478
909.878	17516
909.993	17558
910.108	17474
910.224	17436
910.339	17532
910.454	17402
910.57	17273
910.685	17170
910.8	17532
910.915	17360
911.03	17341
911.145	17166
911.259	17014
911.374	16957
911.489	17083
911.604	16984
911.718	16771
911.833	16843
911.947	16656
912.062	16721
912.176	16850
912.291	16911
912.405	16889
912.519	16995
912.633	16919
912.748	16904
912.862	16812
912.976	16653
913.09	16577
913.204	16577
913.318	16630
913.431	16702
913.545	16641
913.659	16736
913.772	16523
913.886	16462
914	16398
914.113	16512
914.226	16519
914.34	16421
914.453	16291
914.566	16462
914.68	16238
914.793	16211
914.906	16131
915.019	15998
915.132	15930
915.245	15994
915.358	15899
915.47	15983
915.583	15994
915.696	15956
915.809	16147
915.921	16147
916.034	15922
916.146	15857
916.259	15956
916.371	15987
916.483	15945
916.595	15770
916.708	15838
916.82	15797
916.932	15759
917.044	15800
917.156	15694
917.268	15568
917.38	15614
917.491	15526
917.603	15587
917.715	15720
917.826	15660
917.938	15511
918.049	15572
918.161	15504
918.272	15622
918.384	15660
918.495	15534
918.606	15374
918.717	15310
918.828	15329
918.939	15363
919.05	15245
919.161	15348
919.272	15146
919.383	15302
919.494	15412
919.604	15496
919.715	15401
919.826	15214
919.936	15157
920.047	15378
920.157	15382
920.267	15496
920.378	15348
920.488	15199
920.598	15416
920.708	15584
920.818	15393
920.928	15424
921.038	15584
921.148	15530
921.258	15226
921.368	15154
921.477	15047
921.587	14990
921.697	14963
921.806	15077
921.916	14819
922.025	14724
922.134	14640
922.244	14625
922.353	14739
922.462	14499
922.571	14446
922.68	14278
922.789	14317
922.898	14324
923.007	14320
923.116	14202
923.224	14263
923.333	14092
923.442	14092
923.55	14008
923.659	14134
923.767	14183
923.876	14130
923.984	14119
924.092	13909
924.201	13989
924.309	13970
924.417	14043
924.525	13894
924.633	13906
924.741	14880
924.849	13712
924.956	13871
925.064	13738
925.172	13616
925.279	13696
925.387	13727
925.494	13658
925.602	13811
925.709	13681
925.816	13502
925.924	13605
926.031	13689
926.138	13495
926.245	13605
926.352	13403
926.459	13613
926.566	13655
926.673	13499
926.779	13392
926.886	13388
926.993	13270
927.099	13179
927.206	13187
927.312	13091
927.419	13274
927.525	13217
927.631	13285
927.737	13091
927.843	13053
927.95	12985
928.056	12996
928.162	13050
928.267	13034
928.373	13666
928.479	13091
928.585	12810
928.69	13023
928.796	13069
928.901	12951
929.007	12669
929.112	12894
929.218	12882
929.323	12753
929.428	12711
929.533	12905
929.638	12544
929.743	12627
929.848	12646
929.953	12650
930.058	12559
930.163	12418
930.267	12414
930.372	12467
930.477	12384
930.581	12525
930.685	12414
930.79	12289
930.894	12224
930.998	12273
931.103	12330
931.207	12015
931.311	11870
931.415	11920
931.519	11642
931.623	11657
