Data from test_V78500241_1232.txt Node
Date: Fri Mar 25 15:50:20 CST 2022
User: usil
Spectrometer: V785-0024
Trigger mode: 0
Integration Time (sec): 4.000000E-1
Scans to average: 1
Nonlinearity correction enabled: false
Boxcar width: 0
Storing dark spectrum: false
XAxis mode: Wavelengths
Number of Pixels in Spectrum: 1024
>>>>>Begin Spectral Data<<<<<
801.071	28835
801.214	28634
801.356	28455
801.499	28508
801.641	28360
801.783	28344
801.926	28421
802.068	28196
802.211	28363
802.353	28246
802.496	27972
802.638	28120
802.78	28002
802.923	28010
803.065	28017
803.208	28040
803.35	28177
803.492	28051
803.635	28128
803.777	28090
803.919	28265
804.061	28599
804.204	28268
804.346	28169
804.488	28246
804.63	28299
804.773	28131
804.915	28280
805.057	28337
805.199	28314
805.341	28360
805.483	28413
805.626	28478
805.768	28325
805.91	28363
806.052	28401
806.194	28322
806.336	28584
806.478	28580
806.62	28512
806.762	28542
806.904	28611
807.046	28976
807.188	28839
807.33	28923
807.472	29041
807.614	28847
807.756	28885
807.898	28752
808.04	28759
808.182	28748
808.324	28915
808.465	28767
808.607	29041
808.749	29151
808.891	29193
809.033	29311
809.174	29220
809.316	29166
809.458	29094
809.6	29166
809.741	29303
809.883	29239
810.025	29414
810.166	29398
810.308	29398
810.45	29554
810.591	29425
810.733	29162
810.875	29094
811.016	29147
811.158	28942
811.299	29193
811.441	29265
811.582	29353
811.724	29098
811.865	29098
812.007	29022
812.148	29239
812.29	29162
812.431	29212
812.573	29558
812.714	29619
812.855	29627
812.997	29764
813.138	29935
813.279	29718
813.421	29665
813.562	29608
813.703	29551
813.845	29436
813.986	29105
814.127	28839
814.268	28850
814.41	28908
814.551	28877
814.692	28957
814.833	28759
814.974	28866
815.115	28835
815.256	28721
815.397	28809
815.539	28664
815.68	28550
815.821	28675
815.962	28717
816.103	28615
816.244	28519
816.385	28535
816.526	28398
816.666	28310
816.807	28230
816.948	28360
817.089	28322
817.23	28226
817.371	28223
817.512	28196
817.653	28234
817.793	28173
817.934	28173
818.075	28242
818.216	28143
818.356	28143
818.497	28059
818.638	27983
818.778	28048
818.919	27956
819.06	28128
819.2	28112
819.341	28265
819.481	28086
819.622	28303
819.762	28440
819.903	28436
820.043	28398
820.184	28379
820.324	28246
820.465	28303
820.605	28409
820.746	28272
820.886	28135
821.026	28436
821.167	28219
821.307	28409
821.447	28322
821.588	28055
821.728	28021
821.868	27865
822.008	27739
822.149	27587
822.289	27549
822.429	27458
822.569	27378
822.709	27310
822.849	27176
822.99	27180
823.13	27192
823.27	27070
823.41	26910
823.55	26921
823.69	27123
823.83	27096
823.97	27005
824.11	26811
824.25	26895
824.389	26891
824.529	26937
824.669	26944
824.809	26960
824.949	27104
825.089	26967
825.228	26842
825.368	26785
825.508	26765
825.648	26804
825.787	26819
825.927	26845
826.067	26735
826.206	26693
826.346	26663
826.485	26727
826.625	26678
826.765	26960
826.904	26788
827.044	26541
827.183	26423
827.323	26469
827.462	26457
827.601	26503
827.741	26514
827.88	26541
828.02	26355
828.159	26533
828.298	26518
828.437	26571
828.577	26362
828.716	26568
828.855	26419
828.994	26218
829.134	26107
829.273	26176
829.412	26073
829.551	26195
829.69	26229
829.829	26119
829.968	26259
830.107	26218
830.246	26244
830.385	26195
830.524	26122
830.663	25989
830.802	25909
830.941	25868
831.08	25666
831.219	25921
831.357	25784
831.496	26092
831.635	25696
831.774	25803
831.913	25647
832.051	25571
832.19	25518
832.329	25616
832.467	25533
832.606	25388
832.744	25392
832.883	25540
833.022	25441
833.16	25502
833.299	25346
833.437	25384
833.576	25567
833.714	25567
833.852	25586
833.991	25563
834.129	25571
834.267	25499
834.406	25506
834.544	25514
834.682	25449
834.821	25521
834.959	25761
835.097	25453
835.235	25601
835.373	25472
835.511	25441
835.65	25491
835.788	25415
835.926	25202
836.064	25164
836.202	25194
836.34	25278
836.478	25377
836.615	25217
836.753	25350
836.891	25441
837.029	25354
837.167	25304
837.305	25289
837.443	25236
837.58	25183
837.718	25190
837.856	25263
837.993	25050
838.131	25145
838.269	24977
838.406	25095
838.544	24901
838.681	24783
838.819	24787
838.956	24604
839.094	24559
839.231	24661
839.369	24833
839.506	24966
839.643	24844
839.781	24658
839.918	24566
840.055	24585
840.193	24570
840.33	24570
840.467	24399
840.604	24505
840.742	24852
840.879	24330
841.016	24467
841.153	24369
841.29	24601
841.427	24597
841.564	24490
841.701	24452
841.838	24395
841.975	24391
842.112	24365
842.249	24365
842.385	24197
842.522	24456
842.659	24350
842.796	24243
842.933	24190
843.069	24285
843.206	24174
843.343	24277
843.479	24201
843.616	24315
843.752	23923
843.889	24083
844.025	24133
844.162	23946
844.298	24182
844.435	23920
844.571	24114
844.708	23980
844.844	24190
844.98	24159
845.117	24136
845.253	24011
845.389	23878
845.525	23923
845.661	23832
845.798	23760
845.934	23942
846.07	23790
846.206	23809
846.342	23817
846.478	23718
846.614	23699
846.75	23372
846.886	23406
847.022	23471
847.158	23383
847.294	23417
847.429	23406
847.565	23524
847.701	23672
847.837	23197
847.972	23212
848.108	23296
848.244	23273
848.379	23102
848.515	23022
848.65	23136
848.786	23044
848.921	22999
849.057	23094
849.192	23121
849.328	23140
849.463	22923
849.598	23006
849.734	22938
849.869	22881
850.004	22828
850.14	22847
850.275	22824
850.41	22748
850.545	22763
850.68	22850
850.815	22919
850.95	22824
851.085	23006
851.22	22908
851.355	22740
851.49	22733
851.625	22748
851.76	22805
851.895	22763
852.03	22740
852.165	22812
852.299	22858
852.434	22892
852.569	22930
852.703	22774
852.838	22828
852.973	22923
853.107	22877
853.242	22675
853.376	22599
853.511	22512
853.645	22611
853.78	22630
853.914	22702
854.048	22607
854.183	22523
854.317	22698
854.451	22782
854.585	22516
854.72	22687
854.854	22820
854.988	22649
855.122	22550
855.256	22470
855.39	22607
855.524	22645
855.658	22615
855.792	22603
855.926	22592
856.06	22672
856.194	22717
856.327	22550
856.461	22622
856.595	22622
856.729	22580
856.862	22664
856.996	22675
857.13	22786
857.263	22744
857.397	22721
857.53	22649
857.664	22672
857.797	22706
857.931	22744
858.064	22504
858.197	22702
858.331	22634
858.464	22557
858.597	22436
858.731	22721
858.864	22710
858.997	22573
859.13	22538
859.263	22641
859.396	22668
859.529	22672
859.662	22512
859.795	22531
859.928	22618
860.061	22763
860.194	22934
860.327	22691
860.46	22656
860.592	22641
860.725	22755
860.858	22793
860.99	22687
861.123	22588
861.256	22645
861.388	22645
861.521	23440
861.653	22569
861.786	22447
861.918	22455
862.05	22440
862.183	22664
862.315	22691
862.447	22592
862.58	22527
862.712	22382
862.844	22379
862.976	22379
863.108	22436
863.24	22683
863.372	22272
863.504	22455
863.636	22379
863.768	22390
863.9	22306
864.032	22169
864.164	22238
864.296	22196
864.428	22352
864.559	22375
864.691	22417
864.823	22386
864.954	22192
865.086	22341
865.217	22306
865.349	22230
865.48	22276
865.612	22230
865.743	22356
865.875	22204
866.006	22249
866.137	22177
866.269	22207
866.4	22158
866.531	22109
866.662	22147
866.793	22086
866.924	22105
867.055	22188
867.186	22219
867.317	22067
867.448	22097
867.579	22006
867.71	22059
867.841	22078
867.972	21930
868.103	22055
868.233	22215
868.364	22143
868.495	22234
868.625	22390
868.756	22455
868.886	22325
869.017	22291
869.147	22516
869.278	22618
869.408	22451
869.539	22287
869.669	22428
869.799	22405
869.929	22649
870.06	22546
870.19	22645
870.32	22603
870.45	22710
870.58	22660
870.71	22965
870.84	22774
870.97	22816
871.1	22771
871.23	23083
871.36	22946
871.489	22843
871.619	22927
871.749	22927
871.879	23064
872.008	23079
872.138	22995
872.267	23018
872.397	22908
872.526	22691
872.656	22801
872.785	22675
872.915	23025
873.044	23117
873.173	22911
873.303	22946
873.432	23067
873.561	23098
873.69	22991
873.819	22866
873.948	23022
874.077	23064
874.206	22881
874.335	23048
874.464	23052
874.593	23094
874.722	23052
874.851	23151
874.979	23128
875.108	23258
875.237	23075
875.365	23064
875.494	23193
875.623	23349
875.751	23227
875.88	23181
876.008	23265
876.136	23231
876.265	23684
876.393	23691
876.521	23611
876.65	23661
876.778	23562
876.906	23463
877.034	23665
877.162	23516
877.29	23474
877.418	23474
877.546	23539
877.674	23642
877.802	23505
877.93	23459
878.058	23535
878.185	23349
878.313	23471
878.441	23433
878.568	23330
878.696	23459
878.824	23353
878.951	23608
879.079	23623
879.206	23790
879.333	23729
879.461	23570
879.588	23741
879.715	23684
879.842	23828
879.97	23665
880.097	23398
880.224	23360
880.351	23376
880.478	23524
880.605	23311
880.732	23356
880.859	23558
880.986	23414
881.112	23379
881.239	23299
881.366	23075
881.493	23048
881.619	22949
881.746	22957
881.872	22877
881.999	22984
882.125	22774
882.252	22892
882.378	22858
882.505	23018
882.631	22831
882.757	22771
882.883	22706
883.01	22485
883.136	22592
883.262	22367
883.388	22428
883.514	22599
883.64	22637
883.766	22500
883.892	22352
884.018	22333
884.143	22451
884.269	22592
884.395	22276
884.52	22090
884.646	22261
884.772	22154
884.897	22097
885.023	22223
885.148	22303
885.274	22291
885.399	22272
885.524	22276
885.65	22284
885.775	22207
885.9	22223
886.025	22295
886.15	22185
886.275	22112
886.4	22230
886.525	22223
886.65	22090
886.775	22097
886.9	22371
887.025	22447
887.149	22181
887.274	22029
887.399	22010
887.523	22010
887.648	21861
887.773	21797
887.897	22021
888.021	22032
888.146	21880
888.27	21941
888.395	22120
888.519	22010
888.643	21983
888.767	22048
888.891	21915
889.015	21720
889.139	21888
889.263	21804
889.387	21869
889.511	21903
889.635	21800
889.759	21747
889.883	21759
890.006	21705
890.13	21728
890.254	21625
890.377	21694
890.501	21580
890.624	21492
890.748	21679
890.871	21405
890.995	21386
891.118	21211
891.241	21302
891.364	21264
891.488	21344
891.611	21264
891.734	21348
891.857	21359
891.98	21214
892.103	21393
892.226	21207
892.349	21207
892.471	21017
892.594	21135
892.717	21252
892.839	21100
892.962	21237
893.085	21207
893.207	21214
893.33	21256
893.452	21100
893.575	21249
893.697	21047
893.819	21317
893.941	21428
894.064	21291
894.186	21108
894.308	21100
894.43	21161
894.552	21287
894.674	21370
894.796	21142
894.918	21176
895.04	21119
895.161	21268
895.283	21089
895.405	21180
895.526	21173
895.648	21135
895.769	21131
895.891	20986
896.012	21195
896.134	21214
896.255	21112
896.376	21081
896.498	21081
896.619	21176
896.74	21184
896.861	21211
896.982	21549
897.103	21568
897.224	21401
897.345	21389
897.466	21302
897.587	21374
897.708	21431
897.828	21306
897.949	21207
898.07	21142
898.19	21222
898.311	21317
898.431	21264
898.552	21230
898.672	21416
898.792	21454
898.913	21260
899.033	21245
899.153	21207
899.273	20960
899.393	21116
899.513	21131
899.633	21047
899.753	21093
899.873	20952
899.993	21192
900.113	21020
900.232	21096
900.352	20990
900.472	20864
900.591	20765
900.711	20876
900.83	20830
900.95	20979
901.069	20918
901.189	20727
901.308	20590
901.427	20511
901.546	20488
901.665	20351
901.784	20446
901.904	20267
902.023	20294
902.141	19906
902.26	20084
902.379	20054
902.498	20008
902.617	19898
902.735	19917
902.854	19982
902.973	19757
903.091	19643
903.21	19571
903.328	19476
903.446	19518
903.565	19468
903.683	19438
903.801	19316
903.919	19278
904.038	19225
904.156	19141
904.274	19145
904.392	19156
904.51	18970
904.627	19088
904.745	19114
904.863	19160
904.981	18973
905.098	18760
905.216	18814
905.334	18897
905.451	18856
905.569	18764
905.686	18783
905.803	18753
905.921	18544
906.038	18760
906.155	18589
906.272	18452
906.389	18475
906.506	18338
906.623	18353
906.74	18372
906.857	18186
906.974	18327
907.091	18399
907.208	18483
907.324	18391
907.441	18220
907.557	18167
907.674	18041
907.79	17996
907.907	18072
908.023	18053
908.139	18003
908.256	17904
908.372	17901
908.488	17840
908.604	17783
908.72	17661
908.836	17714
908.952	17707
909.068	17863
909.184	17836
909.3	17691
909.415	17729
909.531	17710
909.647	17429
909.762	17497
909.878	17402
909.993	17383
910.108	17326
910.224	17345
910.339	17364
910.454	17254
910.57	17189
910.685	17193
910.8	17330
910.915	17322
911.03	17303
911.145	17128
911.259	17048
911.374	17045
911.489	16991
911.604	16892
911.718	16778
911.833	16759
911.947	16672
912.062	16592
912.176	16733
912.291	16748
912.405	16656
912.519	16854
912.633	16896
912.748	16790
912.862	16816
912.976	16691
913.09	16493
913.204	16569
913.318	16634
913.431	16645
913.545	16691
913.659	16569
913.772	16512
913.886	16421
914	16405
914.113	16436
914.226	16394
914.34	16440
914.453	16196
914.566	16284
914.68	16249
914.793	16185
914.906	16010
915.019	15968
915.132	15876
915.245	15930
915.358	15968
915.47	15903
915.583	15930
915.696	15960
915.809	16101
915.921	15998
916.034	15873
916.146	15816
916.259	15812
916.371	15888
916.483	15812
916.595	15717
916.708	15717
916.82	15762
916.932	15660
917.044	15739
917.156	15667
917.268	15568
917.38	15599
917.491	15492
917.603	15511
917.715	15629
917.826	15538
917.938	15523
918.049	15439
918.161	15507
918.272	15705
918.384	15622
918.495	15412
918.606	15287
918.717	15272
918.828	15294
918.939	15321
919.05	15260
919.161	15344
919.272	15146
919.383	15142
919.494	15344
919.604	15561
919.715	15298
919.826	15142
919.936	15180
920.047	15207
920.157	15245
920.267	15420
920.378	15211
920.488	15138
920.598	15420
920.708	15443
920.818	15401
920.928	15370
921.038	15466
921.148	15435
921.258	15195
921.368	15146
921.477	14971
921.587	14975
921.697	14838
921.806	14845
921.916	14826
922.025	14621
922.134	14621
922.244	14621
922.353	14640
922.462	14476
922.571	14412
922.68	14259
922.789	14164
922.898	14237
923.007	14180
923.116	14267
923.224	14187
923.333	14240
923.442	14103
923.55	14115
923.659	14005
923.767	13986
923.876	13974
923.984	14039
924.092	13970
924.201	13928
924.309	13864
924.417	13936
924.525	13894
924.633	13921
924.741	14571
924.849	13613
924.956	13833
925.064	13643
925.172	13594
925.279	13597
925.387	13674
925.494	13518
925.602	13761
925.709	13655
925.816	13571
925.924	13510
926.031	13651
926.138	13601
926.245	13510
926.352	13476
926.459	13605
926.566	13590
926.673	13449
926.779	13350
926.886	13354
926.993	13209
927.099	13179
927.206	13118
927.312	13160
927.419	13263
927.525	13236
927.631	13202
927.737	13004
927.843	12970
927.95	12848
928.056	12886
928.162	12985
928.267	13012
928.373	13605
928.479	13004
928.585	12837
928.69	12905
928.796	12939
928.901	12802
929.007	12650
929.112	12783
929.218	12840
929.323	12681
929.428	12631
929.533	12821
929.638	12707
929.743	12616
929.848	12673
929.953	12700
930.058	12486
930.163	12365
930.267	12380
930.372	12437
930.477	12311
930.581	12471
930.685	12437
930.79	12114
930.894	12258
930.998	12171
931.103	12315
931.207	11996
931.311	11882
931.415	11817
931.519	11577
931.623	11623
