Data from test_V78500241_2671.txt Node
Date: Fri Mar 25 16:00:18 CST 2022
User: usil
Spectrometer: V785-0024
Trigger mode: 0
Integration Time (sec): 4.000000E-1
Scans to average: 1
Nonlinearity correction enabled: false
Boxcar width: 0
Storing dark spectrum: false
XAxis mode: Wavelengths
Number of Pixels in Spectrum: 1024
>>>>>Begin Spectral Data<<<<<
801.071	28824
801.214	28801
801.356	28634
801.499	28573
801.641	28409
801.783	28489
801.926	28436
802.068	28550
802.211	28333
802.353	28306
802.496	28234
802.638	28226
802.78	27903
802.923	28036
803.065	27930
803.208	28078
803.35	28249
803.492	28394
803.635	28200
803.777	28268
803.919	28401
804.061	28588
804.204	28409
804.346	28371
804.488	28390
804.63	28432
804.773	28303
804.915	28352
805.057	28421
805.199	28455
805.341	28428
805.483	28470
805.626	28421
805.768	28447
805.91	28394
806.052	28599
806.194	28360
806.336	28668
806.478	28611
806.62	28561
806.762	28691
806.904	28812
807.046	29071
807.188	28991
807.33	29014
807.472	29052
807.614	28980
807.756	28934
807.898	28824
808.04	28801
808.182	28679
808.324	28900
808.465	28869
808.607	29227
808.749	29246
808.891	29193
809.033	29421
809.174	29242
809.316	29181
809.458	29261
809.6	29258
809.741	29326
809.883	29368
810.025	29535
810.166	29505
810.308	29615
810.45	29490
810.591	29341
810.733	29330
810.875	29273
811.016	29307
811.158	29109
811.299	29318
811.441	29425
811.582	29585
811.724	29311
811.865	29231
812.007	29181
812.148	29265
812.29	29326
812.431	29474
812.573	29668
812.714	29699
812.855	29790
812.997	29802
813.138	29920
813.279	30041
813.421	29764
813.562	29866
813.703	29493
813.845	29368
813.986	29193
814.127	29151
814.268	28980
814.41	28873
814.551	28965
814.692	28984
814.833	28744
814.974	29056
815.115	29022
815.256	28957
815.397	28778
815.539	28812
815.68	28786
815.821	28599
815.962	28664
816.103	28888
816.244	28596
816.385	28607
816.526	28603
816.666	28329
816.807	28265
816.948	28318
817.089	28363
817.23	28352
817.371	28246
817.512	28230
817.653	28101
817.793	28181
817.934	28268
818.075	28303
818.216	28280
818.356	28268
818.497	28135
818.638	28040
818.778	28029
818.919	28051
819.06	28185
819.2	28173
819.341	28257
819.481	28226
819.622	28310
819.762	28713
819.903	28626
820.043	28455
820.184	28443
820.324	28447
820.465	28481
820.605	28455
820.746	28344
820.886	28265
821.026	28371
821.167	28337
821.307	28401
821.447	28177
821.588	28078
821.728	28025
821.868	27926
822.008	27736
822.149	27720
822.289	27591
822.429	27561
822.569	27393
822.709	27443
822.849	27249
822.99	27283
823.13	27359
823.27	27237
823.41	27013
823.55	27009
823.69	27176
823.83	27104
823.97	27154
824.11	26906
824.25	26998
824.389	26887
824.529	26925
824.669	26948
824.809	27066
824.949	27005
825.089	26952
825.228	27020
825.368	26788
825.508	26701
825.648	26731
825.787	26750
825.927	26792
826.067	26640
826.206	26724
826.346	26944
826.485	26929
826.625	26914
826.765	26899
826.904	26842
827.044	26590
827.183	26773
827.323	26560
827.462	26640
827.601	26495
827.741	26469
827.88	26689
828.02	26473
828.159	26431
828.298	26492
828.437	26526
828.577	26453
828.716	26499
828.855	26423
828.994	26294
829.134	26195
829.273	26263
829.412	26157
829.551	26153
829.69	26161
829.829	26286
829.968	26221
830.107	26252
830.246	26233
830.385	26138
830.524	25986
830.663	26027
830.802	25989
830.941	25784
831.08	25681
831.219	25928
831.357	25845
831.496	26107
831.635	25864
831.774	25681
831.913	25734
832.051	25590
832.19	25609
832.329	25727
832.467	25525
832.606	25457
832.744	25518
832.883	25373
833.022	25373
833.16	25445
833.299	25578
833.437	25575
833.576	25651
833.714	25495
833.852	25719
833.991	25597
834.129	25586
834.267	25594
834.406	25324
834.544	25590
834.682	25635
834.821	25506
834.959	25696
835.097	25407
835.235	25620
835.373	25396
835.511	25552
835.65	25346
835.788	25282
835.926	25381
836.064	25152
836.202	25232
836.34	25365
836.478	25438
836.615	25392
836.753	25510
836.891	25354
837.029	25411
837.167	25221
837.305	25327
837.443	25213
837.58	25160
837.718	25278
837.856	25266
837.993	25168
838.131	25316
838.269	24973
838.406	25168
838.544	25008
838.681	24810
838.819	24798
838.956	24768
839.094	24684
839.231	24669
839.369	24932
839.506	25008
839.643	24989
839.781	24673
839.918	24612
840.055	24715
840.193	24707
840.33	24658
840.467	24464
840.604	24646
840.742	24909
840.879	24388
841.016	24429
841.153	24338
841.29	24661
841.427	24494
841.564	24490
841.701	24593
841.838	24555
841.975	24460
842.112	24429
842.249	24391
842.385	24369
842.522	24479
842.659	24414
842.796	24350
842.933	24266
843.069	24346
843.206	24254
843.343	24365
843.479	24266
843.616	24308
843.752	24106
843.889	24110
844.025	24197
844.162	24038
844.298	24129
844.435	24072
844.571	24022
844.708	24068
844.844	24414
844.98	24144
845.117	24121
845.253	24114
845.389	24011
845.525	24007
845.661	23916
845.798	23878
845.934	23935
846.07	23920
846.206	23813
846.342	23897
846.478	23882
846.614	23551
846.75	23459
846.886	23570
847.022	23684
847.158	23524
847.294	23414
847.429	23714
847.565	23440
847.701	23840
847.837	23273
847.972	23356
848.108	23318
848.244	23315
848.379	23208
848.515	23121
848.65	23041
848.786	23124
848.921	23124
849.057	23239
849.192	23334
849.328	23265
849.463	23185
849.598	22995
849.734	23025
849.869	22915
850.004	22862
850.14	22873
850.275	22820
850.41	22824
850.545	22786
850.68	22873
850.815	22904
850.95	22816
851.085	22957
851.22	23067
851.355	22968
851.49	22934
851.625	22816
851.76	22721
851.895	22816
852.03	22782
852.165	22866
852.299	22885
852.434	22911
852.569	22949
852.703	22877
852.838	22980
852.973	22953
853.107	22980
853.242	22987
853.376	22858
853.511	22546
853.645	22596
853.78	22866
853.914	22736
854.048	22637
854.183	22611
854.317	22664
854.451	22896
854.585	22752
854.72	22744
854.854	22831
854.988	22679
855.122	22828
855.256	22584
855.39	22767
855.524	22820
855.658	22778
855.792	22786
855.926	22634
856.06	22854
856.194	22748
856.327	22713
856.461	22687
856.595	22615
856.729	22668
856.862	22831
856.996	22778
857.13	22790
857.263	22850
857.397	22873
857.53	22641
857.664	22774
857.797	22645
857.931	22786
858.064	22675
858.197	22748
858.331	22656
858.464	22622
858.597	22554
858.731	22634
858.864	22637
858.997	22725
859.13	22687
859.263	22668
859.396	22782
859.529	22660
859.662	22691
859.795	22599
859.928	22717
860.061	22889
860.194	22877
860.327	22748
860.46	22839
860.592	22900
860.725	22805
860.858	22835
860.99	22763
861.123	22679
861.256	22679
861.388	22843
861.521	23509
861.653	22721
861.786	22466
861.918	22538
862.05	22516
862.183	22637
862.315	22717
862.447	22755
862.58	22660
862.712	22424
862.844	22337
862.976	22523
863.108	22432
863.24	22877
863.372	22474
863.504	22272
863.636	22409
863.768	22519
863.9	22390
864.032	22455
864.164	22508
864.296	22481
864.428	22443
864.559	22516
864.691	22508
864.823	22421
864.954	22470
865.086	22398
865.217	22432
865.349	22246
865.48	22291
865.612	22215
865.743	22451
865.875	22291
866.006	22333
866.137	22363
866.269	22219
866.4	22265
866.531	22196
866.662	22120
866.793	22325
866.924	22234
867.055	22196
867.186	22177
867.317	22272
867.448	22147
867.579	22207
867.71	22219
867.841	22211
867.972	22280
868.103	22211
868.233	22158
868.364	22303
868.495	22249
868.625	22386
868.756	22512
868.886	22436
869.017	22474
869.147	22607
869.278	22554
869.408	22432
869.539	22443
869.669	22546
869.799	22489
869.929	22694
870.06	22546
870.19	22702
870.32	22752
870.45	22850
870.58	22778
870.71	23048
870.84	22923
870.97	22831
871.1	22889
871.23	22995
871.36	23014
871.489	22927
871.619	23029
871.749	23064
871.879	23155
872.008	23181
872.138	23151
872.267	23094
872.397	22957
872.526	22908
872.656	22915
872.785	22858
872.915	22980
873.044	23067
873.173	23033
873.303	23303
873.432	23174
873.561	23140
873.69	23140
873.819	23242
873.948	23003
874.077	23140
874.206	23048
874.335	23102
874.464	23159
874.593	23303
874.722	23189
874.851	23315
874.979	23383
875.108	23429
875.237	23204
875.365	23037
875.494	23208
875.623	23421
875.751	23254
875.88	23330
876.008	23391
876.136	23490
876.265	23699
876.393	23832
876.521	23764
876.65	23745
876.778	23577
876.906	23440
877.034	23535
877.162	23611
877.29	23551
877.418	23630
877.546	23665
877.674	23714
877.802	23615
877.93	23611
878.058	23566
878.185	23455
878.313	23581
878.441	23596
878.568	23482
878.696	23535
878.824	23623
878.951	23733
879.079	23927
879.206	23901
879.333	23752
879.461	23615
879.588	23805
879.715	23802
879.842	23904
879.97	23722
880.097	23520
880.224	23463
880.351	23528
880.478	23414
880.605	23433
880.732	23497
880.859	23585
880.986	23501
881.112	23425
881.239	23368
881.366	23147
881.493	23071
881.619	23022
881.746	23010
881.872	23124
881.999	23052
882.125	22858
882.252	23067
882.378	22858
882.505	23117
882.631	22831
882.757	22908
882.883	22805
883.01	22675
883.136	22637
883.262	22535
883.388	22538
883.514	22702
883.64	22691
883.766	22557
883.892	22497
884.018	22516
884.143	22645
884.269	22771
884.395	22318
884.52	22337
884.646	22424
884.772	22265
884.897	22310
885.023	22375
885.148	22322
885.274	22554
885.399	22322
885.524	22325
885.65	22337
885.775	22329
885.9	22196
886.025	22363
886.15	22382
886.275	22265
886.4	22154
886.525	22352
886.65	22139
886.775	22219
886.9	22462
887.025	22615
887.149	22238
887.274	22101
887.399	22021
887.523	22048
887.648	22002
887.773	22051
887.897	22211
888.021	22131
888.146	22029
888.27	22162
888.395	22051
888.519	22109
888.643	22029
888.767	22070
888.891	22021
889.015	21800
889.139	21949
889.263	21827
889.387	21987
889.511	22044
889.635	22063
889.759	21846
889.883	21816
890.006	21873
890.13	21888
890.254	21675
890.377	21800
890.501	21561
890.624	21526
890.748	21698
890.871	21389
890.995	21393
891.118	21435
891.241	21336
891.364	21488
891.488	21469
891.611	21397
891.734	21507
891.857	21435
891.98	21492
892.103	21557
892.226	21416
892.349	21359
892.471	21119
892.594	21332
892.717	21272
892.839	21302
892.962	21279
893.085	21405
893.207	21329
893.33	21070
893.452	21302
893.575	21363
893.697	21249
893.819	21382
893.941	21439
894.064	21351
894.186	21256
894.308	21245
894.43	21329
894.552	21496
894.674	21393
894.796	21123
894.918	21275
895.04	21268
895.161	21332
895.283	21306
895.405	21112
895.526	21298
895.648	21298
895.769	21344
895.891	21268
896.012	21367
896.134	21329
896.255	21317
896.376	21195
896.498	21275
896.619	21218
896.74	21252
896.861	21317
896.982	21507
897.103	21625
897.224	21431
897.345	21291
897.466	21386
897.587	21530
897.708	21553
897.828	21545
897.949	21454
898.07	21192
898.19	21329
898.311	21485
898.431	21370
898.552	21359
898.672	21526
898.792	21568
898.913	21401
899.033	21386
899.153	21241
899.273	21100
899.393	21218
899.513	21108
899.633	21184
899.753	21157
899.873	21058
899.993	21165
900.113	21055
900.232	21226
900.352	21180
900.472	20929
900.591	20921
900.711	21001
900.83	20834
900.95	21020
901.069	21112
901.189	20724
901.308	20629
901.427	20533
901.546	20503
901.665	20438
901.784	20594
901.904	20370
902.023	20233
902.141	20054
902.26	20081
902.379	20084
902.498	20024
902.617	19974
902.735	20058
902.854	20024
902.973	19818
903.091	19666
903.21	19670
903.328	19643
903.446	19548
903.565	19575
903.683	19419
903.801	19320
903.919	19464
904.038	19445
904.156	19293
904.274	19244
904.392	19179
904.51	19168
904.627	19206
904.745	19301
904.863	19327
904.981	18985
905.098	18916
905.216	18909
905.334	19023
905.451	18939
905.569	18890
905.686	18882
905.803	18856
905.921	18639
906.038	18776
906.155	18703
906.272	18559
906.389	18532
906.506	18395
906.623	18407
906.74	18498
906.857	18334
906.974	18262
907.091	18441
907.208	18429
907.324	18464
907.441	18296
907.557	18178
907.674	18205
907.79	18083
907.907	18159
908.023	18186
908.139	18110
908.256	18091
908.372	18041
908.488	18003
908.604	17977
908.72	17756
908.836	17779
908.952	17798
909.068	17939
909.184	17752
909.3	17874
909.415	17920
909.531	17798
909.647	17592
909.762	17642
909.878	17570
909.993	17547
910.108	17474
910.224	17482
910.339	17486
910.454	17360
910.57	17292
910.685	17307
910.8	17512
910.915	17440
911.03	17254
911.145	17162
911.259	17151
911.374	17029
911.489	17010
911.604	17003
911.718	16896
911.833	16919
911.947	16668
912.062	16660
912.176	16862
912.291	16793
912.405	16831
912.519	17029
912.633	16980
912.748	16809
912.862	16797
912.976	16508
913.09	16558
913.204	16637
913.318	16603
913.431	16653
913.545	16694
913.659	16797
913.772	16607
913.886	16386
914	16409
914.113	16523
914.226	16634
914.34	16504
914.453	16246
914.566	16413
914.68	16390
914.793	16280
914.906	16078
915.019	16036
915.132	16067
915.245	15918
915.358	15979
915.47	15945
915.583	16032
915.696	16105
915.809	16150
915.921	16002
916.034	15895
916.146	16025
916.259	15854
916.371	15934
916.483	15846
916.595	15899
916.708	15812
916.82	15804
916.932	15755
917.044	15701
917.156	15800
917.268	15698
917.38	15705
917.491	15747
917.603	15553
917.715	15732
917.826	15850
917.938	15564
918.049	15500
918.161	15637
918.272	15656
918.384	15709
918.495	15564
918.606	15428
918.717	15321
918.828	15378
918.939	15420
919.05	15306
919.161	15370
919.272	15176
919.383	15195
919.494	15336
919.604	15485
919.715	15245
919.826	15211
919.936	15252
920.047	15397
920.157	15317
920.267	15519
920.378	15237
920.488	15344
920.598	15568
920.708	15641
920.818	15500
920.928	15458
921.038	15629
921.148	15519
921.258	15306
921.368	15226
921.477	15089
921.587	14979
921.697	14986
921.806	15058
921.916	14864
922.025	14773
922.134	14720
922.244	14629
922.353	14689
922.462	14610
922.571	14480
922.68	14286
922.789	14244
922.898	14351
923.007	14252
923.116	14339
923.224	14328
923.333	14218
923.442	14214
923.55	14111
923.659	14195
923.767	14164
923.876	14153
923.984	14195
924.092	13989
924.201	14027
924.309	14111
924.417	14020
924.525	13928
924.633	13997
924.741	14921
924.849	13696
924.956	13902
925.064	13746
925.172	13727
925.279	13632
925.387	13734
925.494	13704
925.602	13772
925.709	13742
925.816	13548
925.924	13510
926.031	13616
926.138	13655
926.245	13636
926.352	13529
926.459	13601
926.566	13616
926.673	13563
926.779	13324
926.886	13422
926.993	13331
927.099	13346
927.206	13141
927.312	13168
927.419	13255
927.525	13213
927.631	13202
927.737	13031
927.843	13031
927.95	12878
928.056	13099
928.162	13019
928.267	13141
928.373	13537
928.479	13095
928.585	12814
928.69	12970
928.796	12996
928.901	12802
929.007	12772
929.112	12897
929.218	12817
929.323	12798
929.428	12673
929.533	12848
929.638	12715
929.743	12673
929.848	12768
929.953	12639
930.058	12544
930.163	12452
930.267	12498
930.372	12544
930.477	12391
930.581	12612
930.685	12395
930.79	12308
930.894	12327
930.998	12285
931.103	12426
931.207	11969
931.311	11969
931.415	11843
931.519	11573
931.623	11581
