Data from test_V78500241_1043.txt Node
Date: Fri Mar 25 15:49:01 CST 2022
User: usil
Spectrometer: V785-0024
Trigger mode: 0
Integration Time (sec): 4.000000E-1
Scans to average: 1
Nonlinearity correction enabled: false
Boxcar width: 0
Storing dark spectrum: false
XAxis mode: Wavelengths
Number of Pixels in Spectrum: 1024
>>>>>Begin Spectral Data<<<<<
801.071	28093
801.214	28059
801.356	27797
801.499	27808
801.641	27576
801.783	27633
801.926	27694
802.068	27675
802.211	27595
802.353	27427
802.496	27340
802.638	27336
802.78	27287
802.923	27378
803.065	27222
803.208	27237
803.35	27340
803.492	27427
803.635	27473
803.777	27272
803.919	27523
804.061	27907
804.204	27557
804.346	27291
804.488	27294
804.63	27488
804.773	27420
804.915	27405
805.057	27549
805.199	27382
805.341	27656
805.483	27778
805.626	27622
805.768	27549
805.91	27644
806.052	27606
806.194	27580
806.336	27854
806.478	27705
806.62	27603
806.762	27766
806.904	27953
807.046	28192
807.188	27934
807.33	28067
807.472	28173
807.614	28013
807.756	28006
807.898	27926
808.04	27930
808.182	28040
808.324	27911
808.465	28029
808.607	28139
808.749	28295
808.891	28436
809.033	28443
809.174	28398
809.316	28272
809.458	28322
809.6	28337
809.741	28466
809.883	28535
810.025	28588
810.166	28550
810.308	28641
810.45	28493
810.591	28455
810.733	28299
810.875	28325
811.016	28192
811.158	28128
811.299	28314
811.441	28512
811.582	28398
811.724	28166
811.865	28322
812.007	28295
812.148	28367
812.29	28401
812.431	28405
812.573	28641
812.714	28866
812.855	28812
812.997	28862
813.138	29044
813.279	28869
813.421	28850
813.562	28812
813.703	28694
813.845	28538
813.986	28219
814.127	28131
814.268	27968
814.41	27987
814.551	27975
814.692	28101
814.833	27914
814.974	28002
815.115	28059
815.256	27835
815.397	27994
815.539	27694
815.68	27701
815.821	27713
815.962	27838
816.103	27713
816.244	27705
816.385	27720
816.526	27614
816.666	27492
816.807	27306
816.948	27420
817.089	27386
817.23	27287
817.371	27260
817.512	27302
817.653	27298
817.793	27287
817.934	27283
818.075	27249
818.216	27310
818.356	27317
818.497	27211
818.638	26948
818.778	27074
818.919	27093
819.06	27081
819.2	27074
819.341	27477
819.481	27180
819.622	27610
819.762	27656
819.903	27534
820.043	27534
820.184	27408
820.324	27439
820.465	27378
820.605	27382
820.746	27450
820.886	27329
821.026	27279
821.167	27313
821.307	27435
821.447	27264
821.588	27329
821.728	27024
821.868	27043
822.008	26864
822.149	26804
822.289	26655
822.429	26564
822.569	26495
822.709	26552
822.849	26313
822.99	26187
823.13	26122
823.27	26267
823.41	26210
823.55	25833
823.69	26103
823.83	26301
823.97	26001
824.11	25894
824.25	25913
824.389	26012
824.529	26012
824.669	25970
824.809	26046
824.949	26103
825.089	26081
825.228	25982
825.368	25734
825.508	25761
825.648	25795
825.787	25871
825.927	25928
826.067	25830
826.206	25849
826.346	25959
826.485	25879
826.625	25734
826.765	25791
826.904	26020
827.044	25655
827.183	25586
827.323	25578
827.462	25624
827.601	25411
827.741	25567
827.88	25613
828.02	25381
828.159	25464
828.298	25537
828.437	25491
828.577	25438
828.716	25567
828.855	25407
828.994	25274
829.134	25266
829.273	25316
829.412	25240
829.551	25141
829.69	25221
829.829	25327
829.968	25228
830.107	25396
830.246	25145
830.385	25027
830.524	25148
830.663	25019
830.802	24840
830.941	24928
831.08	24783
831.219	24852
831.357	24837
831.496	25069
831.635	24871
831.774	24696
831.913	24627
832.051	24608
832.19	24566
832.329	24616
832.467	24483
832.606	24391
832.744	24384
832.883	24513
833.022	24536
833.16	24509
833.299	24521
833.437	24490
833.576	24483
833.714	24570
833.852	24532
833.991	24700
834.129	24741
834.267	24700
834.406	24612
834.544	24665
834.682	24399
834.821	24513
834.959	24673
835.097	24426
835.235	24604
835.373	24452
835.511	24551
835.65	24399
835.788	24490
835.926	24133
836.064	24155
836.202	24258
836.34	24319
836.478	24403
836.615	24361
836.753	24365
836.891	24479
837.029	24353
837.167	24346
837.305	24285
837.443	24289
837.58	24224
837.718	24292
837.856	24171
837.993	24095
838.131	24167
838.269	24022
838.406	24251
838.544	23992
838.681	23954
838.819	23809
838.956	23729
839.094	23672
839.231	23695
839.369	23885
839.506	24136
839.643	23908
839.781	23832
839.918	23615
840.055	23798
840.193	23581
840.33	23581
840.467	23646
840.604	23710
840.742	23821
840.879	23482
841.016	23577
841.153	23547
841.29	23737
841.427	23387
841.564	23539
841.701	23630
841.838	23592
841.975	23547
842.112	23592
842.249	23490
842.385	23368
842.522	23592
842.659	23299
842.796	23330
842.933	23376
843.069	23235
843.206	23364
843.343	23406
843.479	23353
843.616	23356
843.752	23220
843.889	23094
844.025	23197
844.162	23044
844.298	23162
844.435	23159
844.571	23113
844.708	23117
844.844	23299
844.98	23200
845.117	23117
845.253	22999
845.389	22904
845.525	23060
845.661	22946
845.798	22949
845.934	22869
846.07	22824
846.206	22877
846.342	22984
846.478	22816
846.614	22668
846.75	22565
846.886	22637
847.022	22675
847.158	22577
847.294	22569
847.429	22588
847.565	22691
847.701	22729
847.837	22303
847.972	22223
848.108	22322
848.244	22394
848.379	22238
848.515	22109
848.65	22112
848.786	22112
848.921	22287
849.057	22344
849.192	22265
849.328	22112
849.463	22253
849.598	22143
849.734	22067
849.869	22074
850.004	21941
850.14	22070
850.275	21941
850.41	21880
850.545	21911
850.68	22029
850.815	21968
850.95	21861
851.085	22188
851.22	22147
851.355	21937
851.49	21960
851.625	21915
851.76	21972
851.895	21911
852.03	21888
852.165	21934
852.299	21949
852.434	22090
852.569	21953
852.703	21975
852.838	22025
852.973	22002
853.107	22128
853.242	21960
853.376	21747
853.511	21682
853.645	21724
853.78	21937
853.914	21838
854.048	21713
854.183	21641
854.317	21774
854.451	21835
854.585	21762
854.72	21831
854.854	21819
854.988	21698
855.122	21694
855.256	21557
855.39	21648
855.524	21876
855.658	21694
855.792	21778
855.926	21800
856.06	21816
856.194	21888
856.327	21713
856.461	21698
856.595	21606
856.729	21724
856.862	21903
856.996	21800
857.13	21975
857.263	21660
857.397	21770
857.53	21774
857.664	21751
857.797	21793
857.931	21972
858.064	21812
858.197	21831
858.331	21549
858.464	21827
858.597	21603
858.731	21743
858.864	21743
858.997	21762
859.13	21759
859.263	21660
859.396	21816
859.529	21701
859.662	21743
859.795	21675
859.928	21717
860.061	22086
860.194	21968
860.327	21781
860.46	21739
860.592	21968
860.725	21816
860.858	21838
860.99	21797
861.123	21606
861.256	21709
861.388	21819
861.521	22379
861.653	21526
861.786	21580
861.918	21496
862.05	21679
862.183	21622
862.315	21743
862.447	21873
862.58	21694
862.712	21420
862.844	21378
862.976	21561
863.108	21572
863.24	21934
863.372	21416
863.504	21477
863.636	21488
863.768	21420
863.9	21473
864.032	21397
864.164	21325
864.296	21568
864.428	21564
864.559	21523
864.691	21618
864.823	21477
864.954	21374
865.086	21367
865.217	21355
865.349	21348
865.48	21450
865.612	21405
865.743	21542
865.875	21405
866.006	21412
866.137	21401
866.269	21401
866.4	21245
866.531	21325
866.662	21313
866.793	21397
866.924	21294
867.055	21443
867.186	21283
867.317	21180
867.448	21272
867.579	21355
867.71	21256
867.841	21233
867.972	21332
868.103	21313
868.233	21469
868.364	21382
868.495	21363
868.625	21599
868.756	21671
868.886	21519
869.017	21538
869.147	21717
869.278	21713
869.408	21622
869.539	21622
869.669	21743
869.799	21526
869.929	21610
870.06	21675
870.19	21842
870.32	21899
870.45	21838
870.58	21895
870.71	22048
870.84	22093
870.97	21991
871.1	22036
871.23	22109
871.36	22158
871.489	22078
871.619	22131
871.749	22150
871.879	22242
872.008	22150
872.138	22143
872.267	22074
872.397	22013
872.526	21968
872.656	22059
872.785	21945
872.915	22284
873.044	22177
873.173	22226
873.303	22249
873.432	22337
873.561	22325
873.69	22215
873.819	22280
873.948	22185
874.077	22234
874.206	22185
874.335	22166
874.464	22276
874.593	22447
874.722	22375
874.851	22363
874.979	22394
875.108	22386
875.237	22394
875.365	22306
875.494	22295
875.623	22447
875.751	22379
875.88	22466
876.008	22474
876.136	22580
876.265	22809
876.393	22938
876.521	22828
876.65	22816
876.778	22812
876.906	22694
877.034	22653
877.162	22778
877.29	22759
877.418	22908
877.546	22740
877.674	22767
877.802	22656
877.93	22771
878.058	22645
878.185	22733
878.313	22641
878.441	22797
878.568	22664
878.696	22535
878.824	22839
878.951	22873
879.079	22915
879.206	23025
879.333	22927
879.461	22778
879.588	22991
879.715	22862
879.842	23067
879.97	22835
880.097	22672
880.224	22569
880.351	22584
880.478	22618
880.605	22462
880.732	22531
880.859	22793
880.986	22497
881.112	22656
881.239	22432
881.366	22421
881.493	22230
881.619	22131
881.746	22143
881.872	22105
881.999	22082
882.125	22093
882.252	22154
882.378	22040
882.505	22268
882.631	21987
882.757	21789
882.883	21850
883.01	21869
883.136	21728
883.262	21781
883.388	21648
883.514	21926
883.64	21838
883.766	21747
883.892	21728
884.018	21526
884.143	21705
884.269	21800
884.395	21576
884.52	21317
884.646	21595
884.772	21302
884.897	21386
885.023	21450
885.148	21473
885.274	21561
885.399	21660
885.524	21519
885.65	21481
885.775	21355
885.9	21439
886.025	21625
886.15	21610
886.275	21382
886.4	21317
886.525	21435
886.65	21435
886.775	21378
886.9	21568
887.025	21652
887.149	21420
887.274	21329
887.399	21279
887.523	21367
887.648	21112
887.773	21108
887.897	21272
888.021	21260
888.146	21123
888.27	21374
888.395	21249
888.519	21298
888.643	21260
888.767	21306
888.891	21138
889.015	21039
889.139	21085
889.263	20895
889.387	21123
889.511	21237
889.635	21093
889.759	21123
889.883	21043
890.006	20952
890.13	21112
890.254	20864
890.377	21013
890.501	20826
890.624	20781
890.748	20906
890.871	20617
890.995	20549
891.118	20480
891.241	20511
891.364	20689
891.488	20731
891.611	20560
891.734	20560
891.857	20564
891.98	20609
892.103	20663
892.226	20621
892.349	20564
892.471	20320
892.594	20427
892.717	20484
892.839	20450
892.962	20476
893.085	20583
893.207	20465
893.33	20396
893.452	20473
893.575	20621
893.697	20488
893.819	20640
893.941	20651
894.064	20537
894.186	20495
894.308	20267
894.43	20545
894.552	20667
894.674	20461
894.796	20324
894.918	20431
895.04	20476
895.161	20537
895.283	20511
895.405	20339
895.526	20549
895.648	20598
895.769	20514
895.891	20454
896.012	20655
896.134	20568
896.255	20480
896.376	20438
896.498	20484
896.619	20503
896.74	20385
896.861	20663
896.982	20857
897.103	20880
897.224	20667
897.345	20644
897.466	20617
897.587	20762
897.708	20769
897.828	20743
897.949	20518
898.07	20598
898.19	20606
898.311	20716
898.431	20583
898.552	20724
898.672	20781
898.792	20670
898.913	20560
899.033	20609
899.153	20473
899.273	20431
899.393	20454
899.513	20495
899.633	20396
899.753	20461
899.873	20431
899.993	20480
900.113	20457
900.232	20324
900.352	20355
900.472	20240
900.591	20256
900.711	20233
900.83	20210
900.95	20195
901.069	20313
901.189	20035
901.308	19940
901.427	19734
901.546	19925
901.665	19742
901.784	19852
901.904	19696
902.023	19430
902.141	19381
902.26	19343
902.379	19327
902.498	19217
902.617	19266
902.735	19320
902.854	19194
902.973	19282
903.091	18928
903.21	19038
903.328	18916
903.446	18913
903.565	18859
903.683	18867
903.801	18620
903.919	18772
904.038	18738
904.156	18544
904.274	18654
904.392	18494
904.51	18502
904.627	18464
904.745	18574
904.863	18532
904.981	18258
905.098	18159
905.216	18114
905.334	18243
905.451	18262
905.569	18182
905.686	18140
905.803	18140
905.921	17977
906.038	18049
906.155	17965
906.272	17775
906.389	17935
906.506	17832
906.623	17821
906.74	17680
906.857	17638
906.974	17634
907.091	17672
907.208	17821
907.324	17802
907.441	17573
907.557	17566
907.674	17493
907.79	17425
907.907	17482
908.023	17387
908.139	17482
908.256	17398
908.372	17448
908.488	17330
908.604	17162
908.72	17227
908.836	17071
908.952	17159
909.068	17193
909.184	17258
909.3	17109
909.415	17273
909.531	17227
909.647	16873
909.762	16866
909.878	16786
909.993	16900
910.108	16873
910.224	16820
910.339	16801
910.454	16755
910.57	16622
910.685	16634
910.8	16908
910.915	16809
911.03	16630
911.145	16485
911.259	16375
911.374	16447
911.489	16329
911.604	16348
911.718	16207
911.833	16200
911.947	16185
912.062	16135
912.176	16158
912.291	16162
912.405	16082
912.519	16299
912.633	16325
912.748	16223
912.862	16196
912.976	16063
913.09	15907
913.204	15869
913.318	15964
913.431	16177
913.545	16112
913.659	16040
913.772	15979
913.886	15831
914	15774
914.113	15831
914.226	16010
914.34	15922
914.453	15603
914.566	15808
914.68	15789
914.793	15656
914.906	15458
915.019	15370
915.132	15363
915.245	15325
915.358	15317
915.47	15458
915.583	15435
915.696	15431
915.809	15504
915.921	15458
916.034	15310
916.146	15249
916.259	15173
916.371	15367
916.483	15401
916.595	15233
916.708	15203
916.82	15226
916.932	15161
917.044	15108
917.156	15100
917.268	15032
917.38	15055
917.491	15020
917.603	15005
917.715	15150
917.826	15058
917.938	14956
918.049	14861
918.161	14998
918.272	15161
918.384	15119
918.495	15009
918.606	14777
918.717	14788
918.828	14777
918.939	14823
919.05	14708
919.161	14777
919.272	14640
919.383	14613
919.494	14838
919.604	14979
919.715	14804
919.826	14610
919.936	14712
920.047	14785
920.157	14705
920.267	14986
920.378	14804
920.488	14678
920.598	14914
920.708	15062
920.818	14963
920.928	14941
921.038	15070
921.148	15024
921.258	14590
921.368	14610
921.477	14522
921.587	14446
921.697	14362
921.806	14492
921.916	14370
922.025	14229
922.134	14164
922.244	14088
922.353	14176
922.462	13909
922.571	13944
922.68	13833
922.789	13738
922.898	13734
923.007	13696
923.116	13890
923.224	13746
923.333	13693
923.442	13521
923.55	13567
923.659	13620
923.767	13723
923.876	13525
923.984	13738
924.092	13510
924.201	13563
924.309	13472
924.417	13419
924.525	13415
924.633	13411
924.741	14115
924.849	13190
924.956	13335
925.064	13202
925.172	13137
925.279	13084
925.387	13122
925.494	13114
925.602	13339
925.709	13255
925.816	13046
925.924	13107
926.031	13114
926.138	13152
926.245	13084
926.352	13027
926.459	13156
926.566	13133
926.673	13042
926.779	12859
926.886	13061
926.993	12696
927.099	12745
927.206	12654
927.312	12631
927.419	12692
927.525	12722
927.631	12760
927.737	12688
927.843	12635
927.95	12502
928.056	12544
928.162	12536
928.267	12601
928.373	13129
928.479	12642
928.585	12365
928.69	12475
928.796	12566
928.901	12422
929.007	12296
929.112	12418
929.218	12395
929.323	12334
929.428	12228
929.533	12388
929.638	12273
929.743	12148
929.848	12235
929.953	12228
930.058	12152
930.163	11984
930.267	11958
930.372	12015
930.477	11901
930.581	12087
930.685	11984
930.79	11729
930.894	11889
930.998	11790
931.103	11859
931.207	11520
931.311	11516
931.415	11349
931.519	11216
931.623	11235
