Data from test_V78500241_1888.txt Node
Date: Fri Mar 25 15:54:52 CST 2022
User: usil
Spectrometer: V785-0024
Trigger mode: 0
Integration Time (sec): 4.000000E-1
Scans to average: 1
Nonlinearity correction enabled: false
Boxcar width: 0
Storing dark spectrum: false
XAxis mode: Wavelengths
Number of Pixels in Spectrum: 1024
>>>>>Begin Spectral Data<<<<<
801.071	28451
801.214	28531
801.356	28352
801.499	28284
801.641	28135
801.783	28211
801.926	28226
802.068	28162
802.211	28074
802.353	27926
802.496	27914
802.638	27854
802.78	27781
802.923	27736
803.065	27698
803.208	27766
803.35	27846
803.492	27918
803.635	28093
803.777	27972
803.919	27998
804.061	28329
804.204	28059
804.346	27895
804.488	27934
804.63	28036
804.773	27895
804.915	28207
805.057	28268
805.199	28173
805.341	28051
805.483	28177
805.626	28295
805.768	28181
805.91	28325
806.052	28143
806.194	28215
806.336	28325
806.478	28242
806.62	28139
806.762	28291
806.904	28542
807.046	28683
807.188	28717
807.33	28672
807.472	28755
807.614	28584
807.756	28580
807.898	28702
808.04	28554
808.182	28645
808.324	28569
808.465	28569
808.607	28706
808.749	28908
808.891	28991
809.033	29079
809.174	28942
809.316	28835
809.458	29033
809.6	28896
809.741	29014
809.883	29079
810.025	29235
810.166	29143
810.308	29048
810.45	29288
810.591	29185
810.733	28999
810.875	28938
811.016	28812
811.158	28873
811.299	29140
811.441	29056
811.582	29178
811.724	28934
811.865	28820
812.007	28900
812.148	28946
812.29	28934
812.431	29079
812.573	29368
812.714	29554
812.855	29524
812.997	29520
813.138	29623
813.279	29509
813.421	29505
813.562	29292
813.703	29147
813.845	29117
813.986	28839
814.127	28656
814.268	28771
814.41	28854
814.551	28622
814.692	28809
814.833	28500
814.974	28607
815.115	28626
815.256	28535
815.397	28516
815.539	28516
815.68	28325
815.821	28215
815.962	28310
816.103	28447
816.244	28413
816.385	28268
816.526	28200
816.666	28097
816.807	27903
816.948	27998
817.089	28109
817.23	27994
817.371	27842
817.512	28051
817.653	27846
817.793	27861
817.934	28021
818.075	27941
818.216	27819
818.356	27903
818.497	27850
818.638	27641
818.778	27679
818.919	27823
819.06	27656
819.2	27827
819.341	27930
819.481	28010
819.622	28032
819.762	28177
819.903	28124
820.043	28162
820.184	28109
820.324	28048
820.465	28067
820.605	28101
820.746	27968
820.886	27869
821.026	28101
821.167	27892
821.307	28124
821.447	27956
821.588	27926
821.728	27652
821.868	27526
822.008	27405
822.149	27420
822.289	27412
822.429	27017
822.569	27055
822.709	27119
822.849	26861
822.99	26861
823.13	26781
823.27	26830
823.41	26651
823.55	26625
823.69	26739
823.83	26693
823.97	26602
824.11	26560
824.25	26408
824.389	26590
824.529	26549
824.669	26560
824.809	26571
824.949	26583
825.089	26720
825.228	26594
825.368	26400
825.508	26358
825.648	26450
825.787	26526
825.927	26427
826.067	26301
826.206	26438
826.346	26473
826.485	26492
826.625	26473
826.765	26609
826.904	26419
827.044	26149
827.183	26271
827.323	26172
827.462	26187
827.601	26172
827.741	26180
827.88	26244
828.02	26020
828.159	26073
828.298	26183
828.437	26176
828.577	26107
828.716	26180
828.855	26001
828.994	25932
829.134	25875
829.273	25959
829.412	25795
829.551	25784
829.69	25822
829.829	25860
829.968	25864
830.107	25894
830.246	25791
830.385	25822
830.524	25803
830.663	25609
830.802	25586
830.941	25301
831.08	25384
831.219	25533
831.357	25495
831.496	25582
831.635	25521
831.774	25232
831.913	25327
832.051	25251
832.19	25080
832.329	25160
832.467	25232
832.606	24992
832.744	25088
832.883	25133
833.022	25187
833.16	25080
833.299	25148
833.437	25190
833.576	25236
833.714	25225
833.852	25148
833.991	25282
834.129	25206
834.267	25270
834.406	25221
834.544	25088
834.682	25168
834.821	25187
834.959	25377
835.097	25164
835.235	25194
835.373	25076
835.511	25190
835.65	25156
835.788	25034
835.926	24871
836.064	24795
836.202	24833
836.34	25042
836.478	25107
836.615	24913
836.753	24951
836.891	25038
837.029	25065
837.167	24935
837.305	24795
837.443	24932
837.58	24715
837.718	24795
837.856	24783
837.993	24730
838.131	24791
838.269	24707
838.406	24825
838.544	24741
838.681	24490
838.819	24536
838.956	24346
839.094	24285
839.231	24220
839.369	24460
839.506	24681
839.643	24498
839.781	24251
839.918	24163
840.055	24220
840.193	24171
840.33	24076
840.467	24270
840.604	24197
840.742	24494
840.879	24064
841.016	24213
841.153	24125
841.29	24178
841.427	24220
841.564	24266
841.701	24342
841.838	24034
841.975	24079
842.112	24182
842.249	24034
842.385	23920
842.522	24182
842.659	24114
842.796	24068
842.933	23946
843.069	23984
843.206	23973
843.343	23874
843.479	23916
843.616	23878
843.752	23714
843.889	23714
844.025	23961
844.162	23691
844.298	23809
844.435	23695
844.571	23687
844.708	23699
844.844	23904
844.98	23832
845.117	23920
845.253	23585
845.389	23623
845.525	23642
845.661	23596
845.798	23414
845.934	23619
846.07	23512
846.206	23410
846.342	23589
846.478	23372
846.614	23246
846.75	23117
846.886	23044
847.022	23318
847.158	23189
847.294	23204
847.429	23353
847.565	23102
847.701	23307
847.837	22866
847.972	22843
848.108	22991
848.244	22892
848.379	22721
848.515	22733
848.65	22748
848.786	22653
848.921	22801
849.057	22854
849.192	22862
849.328	22908
849.463	22748
849.598	22740
849.734	22653
849.869	22637
850.004	22512
850.14	22588
850.275	22542
850.41	22478
850.545	22523
850.68	22519
850.815	22489
850.95	22588
851.085	22668
851.22	22508
851.355	22656
851.49	22493
851.625	22474
851.76	22481
851.895	22508
852.03	22557
852.165	22440
852.299	22550
852.434	22687
852.569	22451
852.703	22504
852.838	22634
852.973	22702
853.107	22615
853.242	22402
853.376	22314
853.511	22287
853.645	22272
853.78	22550
853.914	22344
854.048	22306
854.183	22333
854.317	22306
854.451	22455
854.585	22421
854.72	22356
854.854	22493
854.988	22287
855.122	22299
855.256	22249
855.39	22325
855.524	22367
855.658	22402
855.792	22504
855.926	22405
856.06	22329
856.194	22398
856.327	22451
856.461	22215
856.595	22390
856.729	22478
856.862	22325
856.996	22246
857.13	22436
857.263	22451
857.397	22413
857.53	22306
857.664	22360
857.797	22303
857.931	22462
858.064	22341
858.197	22394
858.331	22299
858.464	22223
858.597	22352
858.731	22249
858.864	22276
858.997	22367
859.13	22409
859.263	22360
859.396	22478
859.529	22318
859.662	22261
859.795	22318
859.928	22348
860.061	22470
860.194	22554
860.327	22386
860.46	22443
860.592	22489
860.725	22459
860.858	22455
860.99	22291
861.123	22322
861.256	22284
861.388	22196
861.521	23067
861.653	22090
861.786	22173
861.918	22188
862.05	22287
862.183	22230
862.315	22303
862.447	22333
862.58	22341
862.712	22124
862.844	22078
862.976	22196
863.108	22139
863.24	22538
863.372	21983
863.504	21960
863.636	22074
863.768	22017
863.9	21979
864.032	21994
864.164	22082
864.296	22124
864.428	22105
864.559	22063
864.691	22010
864.823	21949
864.954	22059
865.086	21964
865.217	21975
865.349	21819
865.48	21861
865.612	21983
865.743	22074
865.875	21941
866.006	21926
866.137	22010
866.269	21964
866.4	21778
866.531	21797
866.662	21911
866.793	21850
866.924	21918
867.055	21930
867.186	21873
867.317	21869
867.448	21682
867.579	21743
867.71	21717
867.841	21785
867.972	21865
868.103	21911
868.233	21865
868.364	21781
868.495	21907
868.625	22013
868.756	22097
868.886	22040
869.017	22169
869.147	22162
869.278	22234
869.408	22139
869.539	22013
869.669	22150
869.799	22143
869.929	22249
870.06	22131
870.19	22371
870.32	22329
870.45	22459
870.58	22561
870.71	22440
870.84	22565
870.97	22523
871.1	22466
871.23	22649
871.36	22679
871.489	22694
871.619	22763
871.749	22698
871.879	22740
872.008	22740
872.138	22668
872.267	22569
872.397	22531
872.526	22459
872.656	22577
872.785	22538
872.915	22694
873.044	22793
873.173	22603
873.303	22713
873.432	22828
873.561	22729
873.69	22683
873.819	22752
873.948	22694
874.077	22637
874.206	22679
874.335	22641
874.464	22843
874.593	23048
874.722	22847
874.851	22949
874.979	22934
875.108	22965
875.237	22908
875.365	22843
875.494	22881
875.623	23056
875.751	22771
875.88	22934
876.008	22995
876.136	23003
876.265	23364
876.393	23372
876.521	23322
876.65	23353
876.778	23303
876.906	23364
877.034	23288
877.162	23273
877.29	23200
877.418	23197
877.546	23181
877.674	23181
877.802	23204
877.93	23341
878.058	23185
878.185	23105
878.313	23322
878.441	23200
878.568	23090
878.696	23124
878.824	23318
878.951	23280
879.079	23391
879.206	23478
879.333	23391
879.461	23311
879.588	23398
879.715	23566
879.842	23592
879.97	23349
880.097	23113
880.224	23079
880.351	23162
880.478	23060
880.605	23067
880.732	23193
880.859	23307
880.986	23056
881.112	23102
881.239	22881
881.366	22858
881.493	22755
881.619	22687
881.746	22603
881.872	22710
881.999	22618
882.125	22596
882.252	22622
882.378	22626
882.505	22694
882.631	22546
882.757	22303
882.883	22382
883.01	22322
883.136	22173
883.262	22306
883.388	22181
883.514	22390
883.64	22360
883.766	22287
883.892	22207
884.018	22173
884.143	22177
884.269	22318
884.395	22044
884.52	21865
884.646	21907
884.772	21865
884.897	21827
885.023	22025
885.148	22006
885.274	22154
885.399	21994
885.524	21972
885.65	21922
885.775	22051
885.9	21846
886.025	22013
886.15	22029
886.275	21876
886.4	21888
886.525	21907
886.65	21915
886.775	21865
886.9	21998
887.025	22223
887.149	21941
887.274	21720
887.399	21789
887.523	21865
887.648	21583
887.773	21682
887.897	21789
888.021	21770
888.146	21709
888.27	21785
888.395	21937
888.519	21698
888.643	21694
888.767	21747
888.891	21679
889.015	21519
889.139	21553
889.263	21450
889.387	21583
889.511	21724
889.635	21622
889.759	21507
889.883	21462
890.006	21625
890.13	21557
890.254	21408
890.377	21428
890.501	21241
890.624	21112
890.748	21218
890.871	21154
890.995	21199
891.118	21085
891.241	21093
891.364	21161
891.488	21173
891.611	21039
891.734	21100
891.857	21161
891.98	20998
892.103	21093
892.226	21081
892.349	21017
892.471	20845
892.594	20952
892.717	21009
892.839	20918
892.962	20979
893.085	21047
893.207	20986
893.33	20804
893.452	20891
893.575	20960
893.697	20971
893.819	21066
893.941	21093
894.064	21001
894.186	20800
894.308	20979
894.43	20979
894.552	21066
894.674	21085
894.796	20777
894.918	20975
895.04	20853
895.161	20998
895.283	20982
895.405	20842
895.526	20902
895.648	20960
895.769	20956
895.891	20998
896.012	20941
896.134	20975
896.255	20937
896.376	20944
896.498	20956
896.619	20933
896.74	20792
896.861	21051
896.982	21161
897.103	21260
897.224	21268
897.345	21268
897.466	21074
897.587	21131
897.708	21176
897.828	21146
897.949	21055
898.07	21001
898.19	21020
898.311	21131
898.431	21043
898.552	21058
898.672	21142
898.792	21241
898.913	21173
899.033	20899
899.153	20777
899.273	20804
899.393	20937
899.513	20971
899.633	20815
899.753	20849
899.873	20705
899.993	20941
900.113	20811
900.232	20727
900.352	20697
900.472	20758
900.591	20648
900.711	20598
900.83	20579
900.95	20678
901.069	20712
901.189	20488
901.308	20339
901.427	20256
901.546	20320
901.665	20267
901.784	20161
901.904	19993
902.023	19890
902.141	19849
902.26	19647
902.379	19784
902.498	19841
902.617	19689
902.735	19753
902.854	19719
902.973	19651
903.091	19339
903.21	19392
903.328	19362
903.446	19308
903.565	19133
903.683	19198
903.801	19164
903.919	19027
904.038	19050
904.156	18958
904.274	18985
904.392	18817
904.51	18859
904.627	18848
904.745	18890
904.863	18894
904.981	18741
905.098	18650
905.216	18642
905.334	18513
905.451	18604
905.569	18525
905.686	18601
905.803	18582
905.921	18486
906.038	18540
906.155	18372
906.272	18334
906.389	18281
906.506	18129
906.623	18106
906.74	18178
906.857	18030
906.974	17904
907.091	18125
907.208	18205
907.324	18163
907.441	18019
907.557	17882
907.674	17893
907.79	17672
907.907	17752
908.023	17901
908.139	17847
908.256	17714
908.372	17783
908.488	17695
908.604	17608
908.72	17391
908.836	17596
908.952	17512
909.068	17535
909.184	17596
909.3	17486
909.415	17661
909.531	17516
909.647	17239
909.762	17220
909.878	17246
909.993	17288
910.108	17212
910.224	17132
910.339	17193
910.454	17113
910.57	17117
910.685	16991
910.8	17299
910.915	17193
911.03	17010
911.145	16889
911.259	16881
911.374	16736
911.489	16729
911.604	16691
911.718	16500
911.833	16577
911.947	16459
912.062	16337
912.176	16569
912.291	16588
912.405	16550
912.519	16672
912.633	16809
912.748	16542
912.862	16443
912.976	16367
913.09	16322
913.204	16299
913.318	16367
913.431	16424
913.545	16409
913.659	16447
913.772	16337
913.886	16158
914	16150
914.113	16181
914.226	16337
914.34	16158
914.453	16082
914.566	16192
914.68	16067
914.793	16063
914.906	15785
915.019	15751
915.132	15671
915.245	15774
915.358	15720
915.47	15743
915.583	15770
915.696	15785
915.809	15880
915.921	15827
916.034	15671
916.146	15599
916.259	15587
916.371	15717
916.483	15625
916.595	15603
916.708	15553
916.82	15606
916.932	15580
917.044	15485
917.156	15561
917.268	15447
917.38	15386
917.491	15313
917.603	15313
917.715	15458
917.826	15454
917.938	15397
918.049	15169
918.161	15230
918.272	15359
918.384	15416
918.495	15272
918.606	15157
918.717	15108
918.828	15131
918.939	15089
919.05	14998
919.161	15146
919.272	14773
919.383	14963
919.494	15100
919.604	15348
919.715	15066
919.826	14971
919.936	14975
920.047	15150
920.157	15081
920.267	15211
920.378	15100
920.488	14952
920.598	15226
920.708	15386
920.818	15176
920.928	15249
921.038	15306
921.148	15207
921.258	15055
921.368	14994
921.477	14792
921.587	14731
921.697	14579
921.806	14781
921.916	14629
922.025	14457
922.134	14427
922.244	14370
922.353	14473
922.462	14377
922.571	14214
922.68	14161
922.789	14027
922.898	14119
923.007	14008
923.116	14058
923.224	14107
923.333	14001
923.442	13921
923.55	13868
923.659	13898
923.767	13959
923.876	13852
923.984	13970
924.092	13750
924.201	13826
924.309	13860
924.417	13841
924.525	13753
924.633	13662
924.741	14552
924.849	13476
924.956	13636
925.064	13582
925.172	13460
925.279	13464
925.387	13552
925.494	13388
925.602	13681
925.709	13491
925.816	13354
925.924	13346
926.031	13472
926.138	13350
926.245	13548
926.352	13259
926.459	13350
926.566	13411
926.673	13304
926.779	13232
926.886	13091
926.993	13072
927.099	13031
927.206	13031
927.312	12913
927.419	13046
927.525	13099
927.631	13072
927.737	12909
927.843	12802
927.95	12787
928.056	12802
928.162	12817
928.267	12897
928.373	13441
928.479	12882
928.585	12623
928.69	12856
928.796	12772
928.901	12662
929.007	12517
929.112	12700
929.218	12597
929.323	12604
929.428	12521
929.533	12593
929.638	12418
929.743	12483
929.848	12566
929.953	12532
930.058	12388
930.163	12190
930.267	12140
930.372	12289
930.477	12220
930.581	12391
930.685	12258
930.79	12057
930.894	12136
930.998	12049
931.103	12205
931.207	11866
931.311	11733
931.415	11619
931.519	11463
931.623	11383
