Data from test_V78500241_3110.txt Node
Date: Fri Mar 25 16:03:20 CST 2022
User: usil
Spectrometer: V785-0024
Trigger mode: 0
Integration Time (sec): 4.000000E-1
Scans to average: 1
Nonlinearity correction enabled: false
Boxcar width: 0
Storing dark spectrum: false
XAxis mode: Wavelengths
Number of Pixels in Spectrum: 1024
>>>>>Begin Spectral Data<<<<<
801.071	28379
801.214	28394
801.356	28188
801.499	28131
801.641	28044
801.783	28082
801.926	28067
802.068	27979
802.211	28013
802.353	27934
802.496	27876
802.638	27705
802.78	27641
802.923	27591
803.065	27526
803.208	27728
803.35	27797
803.492	27842
803.635	27850
803.777	27831
803.919	27827
804.061	28253
804.204	27972
804.346	27797
804.488	27869
804.63	27827
804.773	27785
804.915	27876
805.057	28013
805.199	27975
805.341	27930
805.483	28017
805.626	27991
805.768	27876
805.91	28109
806.052	28154
806.194	28002
806.336	28322
806.478	28188
806.62	28097
806.762	28109
806.904	28261
807.046	28637
807.188	28508
807.33	28660
807.472	28630
807.614	28497
807.756	28531
807.898	28386
808.04	28341
808.182	28363
808.324	28527
808.465	28436
808.607	28592
808.749	28866
808.891	28831
809.033	28843
809.174	28892
809.316	28759
809.458	28702
809.6	28767
809.741	28892
809.883	28908
810.025	29048
810.166	29014
810.308	29083
810.45	29094
810.591	28881
810.733	28786
810.875	28816
811.016	28710
811.158	28809
811.299	28911
811.441	28820
811.582	28866
811.724	28752
811.865	28801
812.007	28717
812.148	28740
812.29	28782
812.431	28892
812.573	29109
812.714	29075
812.855	29292
812.997	29444
813.138	29501
813.279	29349
813.421	29341
813.562	29280
813.703	29212
813.845	29117
813.986	28653
814.127	28546
814.268	28474
814.41	28546
814.551	28436
814.692	28405
814.833	28348
814.974	28436
815.115	28371
815.256	28481
815.397	28424
815.539	28230
815.68	28230
815.821	28325
815.962	28367
816.103	28272
816.244	28124
816.385	27918
816.526	27911
816.666	27956
816.807	27751
816.948	27793
817.089	27934
817.23	27732
817.371	27671
817.512	27724
817.653	27686
817.793	27720
817.934	27827
818.075	27785
818.216	27743
818.356	27739
818.497	27599
818.638	27454
818.778	27694
818.919	27485
819.06	27637
819.2	27705
819.341	27812
819.481	27812
819.622	28002
819.762	28120
819.903	28086
820.043	27918
820.184	27922
820.324	27838
820.465	28025
820.605	27922
820.746	27861
820.886	27724
821.026	27911
821.167	27793
821.307	27972
821.447	27838
821.588	27561
821.728	27599
821.868	27431
822.008	27294
822.149	27416
822.289	27233
822.429	27024
822.569	26990
822.709	26960
822.849	26906
822.99	26720
823.13	26830
823.27	26800
823.41	26606
823.55	26549
823.69	26746
823.83	26446
823.97	26556
824.11	26282
824.25	26347
824.389	26450
824.529	26537
824.669	26355
824.809	26503
824.949	26613
825.089	26396
825.228	26587
825.368	26309
825.508	26278
825.648	26298
825.787	26332
825.927	26393
826.067	26317
826.206	26142
826.346	26374
826.485	26320
826.625	26237
826.765	26282
826.904	26225
827.044	26153
827.183	25986
827.323	26100
827.462	26107
827.601	26115
827.741	25909
827.88	26103
828.02	25791
828.159	25928
828.298	26050
828.437	26054
828.577	25799
828.716	25974
828.855	25917
828.994	25784
829.134	25658
829.273	25795
829.412	25582
829.551	25613
829.69	25681
829.829	25715
829.968	25639
830.107	25734
830.246	25742
830.385	25647
830.524	25616
830.663	25381
830.802	25339
830.941	25289
831.08	25187
831.219	25388
831.357	25373
831.496	25377
831.635	25228
831.774	25198
831.913	25164
832.051	24947
832.19	25206
832.329	25122
832.467	25000
832.606	24867
832.744	24901
832.883	24878
833.022	24989
833.16	24947
833.299	25031
833.437	25000
833.576	24989
833.714	25126
833.852	25065
833.991	25179
834.129	25099
834.267	25050
834.406	24992
834.544	25019
834.682	24996
834.821	25023
834.959	25148
835.097	25027
835.235	25114
835.373	24981
835.511	25027
835.65	24916
835.788	24817
835.926	24757
836.064	24650
836.202	24696
836.34	24894
836.478	24924
836.615	24734
836.753	24867
836.891	24840
837.029	24890
837.167	24700
837.305	24825
837.443	24631
837.58	24760
837.718	24791
837.856	24745
837.993	24722
838.131	24703
838.269	24551
838.406	24779
838.544	24426
838.681	24319
838.819	24327
838.956	24076
839.094	24087
839.231	24239
839.369	24372
839.506	24521
839.643	24395
839.781	24136
839.918	24030
840.055	24079
840.193	24148
840.33	24060
840.467	24053
840.604	24129
840.742	24292
840.879	23874
841.016	23882
841.153	23897
841.29	24098
841.427	24038
841.564	24144
841.701	24076
841.838	23984
841.975	23950
842.112	23950
842.249	23916
842.385	23805
842.522	24007
842.659	23931
842.796	23729
842.933	23699
843.069	23824
843.206	23840
843.343	23942
843.479	23836
843.616	23790
843.752	23512
843.889	23649
844.025	23741
844.162	23474
844.298	23703
844.435	23505
844.571	23558
844.708	23687
844.844	23710
844.98	23893
845.117	23691
845.253	23543
845.389	23596
845.525	23547
845.661	23455
845.798	23296
845.934	23425
846.07	23273
846.206	23383
846.342	23448
846.478	23280
846.614	23083
846.75	22976
846.886	22968
847.022	23105
847.158	22946
847.294	23037
847.429	23018
847.565	22980
847.701	23356
847.837	22828
847.972	22824
848.108	22812
848.244	22942
848.379	22637
848.515	22599
848.65	22630
848.786	22630
848.921	22603
849.057	22820
849.192	22771
849.328	22702
849.463	22626
849.598	22618
849.734	22550
849.869	22413
850.004	22424
850.14	22516
850.275	22322
850.41	22462
850.545	22299
850.68	22421
850.815	22512
850.95	22257
851.085	22694
851.22	22497
851.355	22405
851.49	22344
851.625	22451
851.76	22405
851.895	22352
852.03	22314
852.165	22306
852.299	22557
852.434	22413
852.569	22432
852.703	22497
852.838	22451
852.973	22569
853.107	22607
853.242	22428
853.376	22226
853.511	22063
853.645	22154
853.78	22375
853.914	22333
854.048	22200
854.183	22265
854.317	22306
854.451	22428
854.585	22287
854.72	22166
854.854	22371
854.988	22169
855.122	22337
855.256	22082
855.39	22223
855.524	22314
855.658	22242
855.792	22318
855.926	22310
856.06	22234
856.194	22325
856.327	22325
856.461	22158
856.595	22150
856.729	22284
856.862	22379
856.996	22299
857.13	22223
857.263	22428
857.397	22382
857.53	22215
857.664	22185
857.797	22398
857.931	22348
858.064	22303
858.197	22333
858.331	22177
858.464	22105
858.597	22074
858.731	22204
858.864	22112
858.997	22192
859.13	22249
859.263	22169
859.396	22398
859.529	22287
859.662	22185
859.795	22162
859.928	22181
860.061	22341
860.194	22421
860.327	22310
860.46	22234
860.592	22291
860.725	22402
860.858	22360
860.99	22242
861.123	22150
861.256	22226
861.388	22223
861.521	22862
861.653	22070
861.786	21994
861.918	22059
862.05	22086
862.183	22105
862.315	22143
862.447	22291
862.58	22055
862.712	21903
862.844	21869
862.976	22021
863.108	22074
863.24	22287
863.372	21812
863.504	22006
863.636	21934
863.768	21991
863.9	21987
864.032	21884
864.164	21915
864.296	21903
864.428	21972
864.559	21964
864.691	21937
864.823	21911
864.954	21842
865.086	21945
865.217	21736
865.349	21778
865.48	21800
865.612	21800
865.743	21945
865.875	21827
866.006	21861
866.137	21850
866.269	21770
866.4	21755
866.531	21713
866.662	21694
866.793	21751
866.924	21622
867.055	21705
867.186	21766
867.317	21774
867.448	21614
867.579	21614
867.71	21675
867.841	21743
867.972	21766
868.103	21694
868.233	21857
868.364	21789
868.495	21831
868.625	21949
868.756	22196
868.886	21979
869.017	21850
869.147	22303
869.278	22067
869.408	21983
869.539	21994
869.669	22067
869.799	22059
869.929	22143
870.06	21991
870.19	22131
870.32	22318
870.45	22291
870.58	22432
870.71	22603
870.84	22417
870.97	22462
871.1	22417
871.23	22531
871.36	22527
871.489	22402
871.619	22489
871.749	22485
871.879	22557
872.008	22683
872.138	22580
872.267	22550
872.397	22493
872.526	22409
872.656	22481
872.785	22405
872.915	22710
873.044	22763
873.173	22546
873.303	22580
873.432	22672
873.561	22687
873.69	22725
873.819	22493
873.948	22668
874.077	22664
874.206	22656
874.335	22675
874.464	22736
874.593	22835
874.722	22786
874.851	22862
874.979	22885
875.108	22946
875.237	22626
875.365	22702
875.494	22672
875.623	22862
875.751	22721
875.88	22725
876.008	22908
876.136	22987
876.265	23284
876.393	23318
876.521	23322
876.65	23337
876.778	23303
876.906	23143
877.034	23189
877.162	23242
877.29	23121
877.418	23353
877.546	23250
877.674	23250
877.802	23239
877.93	23105
878.058	23143
878.185	23124
878.313	23003
878.441	23067
878.568	23044
878.696	23197
878.824	23185
878.951	23239
879.079	23280
879.206	23353
879.333	23353
879.461	23330
879.588	23208
879.715	23322
879.842	23429
879.97	23170
880.097	23033
880.224	22987
880.351	23086
880.478	23143
880.605	22965
880.732	22957
880.859	23261
880.986	23071
881.112	22995
881.239	22797
881.366	22812
881.493	22622
881.619	22554
881.746	22641
881.872	22569
881.999	22504
882.125	22470
882.252	22637
882.378	22580
882.505	22672
882.631	22485
882.757	22166
882.883	22325
883.01	22352
883.136	22238
883.262	22158
883.388	21994
883.514	22287
883.64	22268
883.766	22223
883.892	22067
884.018	22124
884.143	22181
884.269	22329
884.395	21983
884.52	21831
884.646	21876
884.772	21861
884.897	21736
885.023	21812
885.148	22055
885.274	22112
885.399	21964
885.524	21857
885.65	21964
885.775	21895
885.9	21793
886.025	21960
886.15	22002
886.275	21876
886.4	21785
886.525	21823
886.65	21816
886.775	21732
886.9	21983
887.025	22032
887.149	21766
887.274	21526
887.399	21580
887.523	21679
887.648	21488
887.773	21458
887.897	21751
888.021	21629
888.146	21686
888.27	21656
888.395	21709
888.519	21690
888.643	21641
888.767	21770
888.891	21606
889.015	21435
889.139	21568
889.263	21420
889.387	21397
889.511	21717
889.635	21599
889.759	21519
889.883	21485
890.006	21424
890.13	21526
890.254	21397
890.377	21428
890.501	21260
890.624	21123
890.748	21355
890.871	20986
890.995	21039
891.118	21039
891.241	20994
891.364	21020
891.488	21233
891.611	20929
891.734	20887
891.857	21032
891.98	20986
892.103	20956
892.226	21074
892.349	21077
892.471	20834
892.594	20899
892.717	20883
892.839	20746
892.962	20857
893.085	21020
893.207	20849
893.33	20735
893.452	20804
893.575	20895
893.697	20804
893.819	20914
893.941	21108
894.064	20921
894.186	20769
894.308	20758
894.43	20967
894.552	21066
894.674	21138
894.796	20746
894.918	20758
895.04	20864
895.161	20948
895.283	20819
895.405	20724
895.526	20895
895.648	20891
895.769	20849
895.891	20857
896.012	20899
896.134	20735
896.255	20815
896.376	20765
896.498	20823
896.619	20857
896.74	20807
896.861	20864
896.982	21123
897.103	21230
897.224	21169
897.345	21184
897.466	20998
897.587	21123
897.708	21287
897.828	21157
897.949	20952
898.07	20918
898.19	20910
898.311	21051
898.431	21032
898.552	21062
898.672	21127
898.792	21047
898.913	20990
899.033	20887
899.153	20899
899.273	20716
899.393	20910
899.513	20857
899.633	20807
899.753	20857
899.873	20708
899.993	20830
900.113	20708
900.232	20838
900.352	20788
900.472	20663
900.591	20625
900.711	20476
900.83	20492
900.95	20670
901.069	20777
901.189	20495
901.308	20393
901.427	20183
901.546	20191
901.665	20199
901.784	20275
901.904	19997
902.023	19921
902.141	19742
902.26	19784
902.379	19689
902.498	19772
902.617	19677
902.735	19681
902.854	19670
902.973	19556
903.091	19358
903.21	19384
903.328	19304
903.446	19183
903.565	19251
903.683	19069
903.801	19110
903.919	19065
904.038	19095
904.156	18958
904.274	19050
904.392	19065
904.51	18817
904.627	18977
904.745	18943
904.863	18943
904.981	18658
905.098	18635
905.216	18578
905.334	18563
905.451	18551
905.569	18650
905.686	18589
905.803	18650
905.921	18414
906.038	18532
906.155	18429
906.272	18235
906.389	18308
906.506	18022
906.623	18106
906.74	18079
906.857	18026
906.974	17920
907.091	18216
907.208	18327
907.324	18068
907.441	17954
907.557	17904
907.674	17748
907.79	17748
907.907	17760
908.023	17794
908.139	17836
908.256	17737
908.372	17802
908.488	17570
908.604	17444
908.72	17539
908.836	17467
908.952	17619
909.068	17539
909.184	17558
909.3	17505
909.415	17634
909.531	17486
909.647	17261
909.762	17242
909.878	17162
909.993	17296
910.108	17261
910.224	17174
910.339	17204
910.454	16995
910.57	16995
910.685	17060
910.8	17269
910.915	17117
911.03	16949
911.145	16805
911.259	16816
911.374	16805
911.489	16774
911.604	16664
911.718	16516
911.833	16516
911.947	16462
912.062	16360
912.176	16588
912.291	16527
912.405	16546
912.519	16717
912.633	16767
912.748	16531
912.862	16596
912.976	16390
913.09	16284
913.204	16226
913.318	16276
913.431	16398
913.545	16413
913.659	16398
913.772	16344
913.886	16124
914	16109
914.113	16211
914.226	16242
914.34	16287
914.453	16017
914.566	16162
914.68	15922
914.793	15979
914.906	15838
915.019	15732
915.132	15690
915.245	15724
915.358	15755
915.47	15755
915.583	15732
915.696	15781
915.809	15873
915.921	15888
916.034	15610
916.146	15701
916.259	15652
916.371	15675
916.483	15709
916.595	15530
916.708	15561
916.82	15492
916.932	15458
917.044	15534
917.156	15435
917.268	15393
917.38	15450
917.491	15428
917.603	15428
917.715	15412
917.826	15477
917.938	15294
918.049	15275
918.161	15389
918.272	15420
918.384	15325
918.495	15188
918.606	15089
918.717	15043
918.828	15085
918.939	15188
919.05	15028
919.161	15028
919.272	14868
919.383	14929
919.494	15184
919.604	15298
919.715	15047
919.826	14937
919.936	15024
920.047	15173
920.157	15070
920.267	15264
920.378	15097
920.488	15001
920.598	15222
920.708	15336
920.818	15195
920.928	15192
921.038	15370
921.148	15294
921.258	14937
921.368	14948
921.477	14838
921.587	14796
921.697	14758
921.806	14864
921.916	14659
922.025	14530
922.134	14454
922.244	14358
922.353	14473
922.462	14282
922.571	14180
922.68	14062
922.789	14069
922.898	14115
923.007	14016
923.116	14092
923.224	14096
923.333	13986
923.442	13860
923.55	13970
923.659	13913
923.767	13909
923.876	13803
923.984	13890
924.092	13913
924.201	13833
924.309	13852
924.417	13750
924.525	13700
924.633	13772
924.741	14442
924.849	13533
924.956	13750
925.064	13476
925.172	13559
925.279	13480
925.387	13468
925.494	13480
925.602	13651
925.709	13495
925.816	13335
925.924	13419
926.031	13491
926.138	13354
926.245	13480
926.352	13339
926.459	13518
926.566	13449
926.673	13297
926.779	13244
926.886	13217
926.993	13080
927.099	13015
927.206	12920
927.312	12947
927.419	13000
927.525	12962
927.631	12973
927.737	12886
927.843	12806
927.95	12677
928.056	12817
928.162	12859
928.267	12859
928.373	13407
928.479	12825
928.585	12696
928.69	12852
928.796	12787
928.901	12738
929.007	12521
929.112	12673
929.218	12620
929.323	12635
929.428	12513
929.533	12669
929.638	12353
929.743	12486
929.848	12540
929.953	12422
930.058	12486
930.163	12171
930.267	12228
930.372	12296
930.477	12171
930.581	12353
930.685	12220
930.79	12083
930.894	12190
930.998	12072
931.103	12254
931.207	11779
931.311	11718
931.415	11729
931.519	11421
931.623	11505
