Data from test_V78500241_3448.txt Node
Date: Fri Mar 25 16:05:41 CST 2022
User: usil
Spectrometer: V785-0024
Trigger mode: 0
Integration Time (sec): 4.000000E-1
Scans to average: 1
Nonlinearity correction enabled: false
Boxcar width: 0
Storing dark spectrum: false
XAxis mode: Wavelengths
Number of Pixels in Spectrum: 1024
>>>>>Begin Spectral Data<<<<<
801.071	28915
801.214	28820
801.356	28531
801.499	28493
801.641	28489
801.783	28367
801.926	28466
802.068	28497
802.211	28306
802.353	28325
802.496	28246
802.638	28040
802.78	28006
802.923	27983
803.065	28013
803.208	28105
803.35	28101
803.492	28272
803.635	28470
803.777	28352
803.919	28261
804.061	28653
804.204	28322
804.346	28329
804.488	28265
804.63	28356
804.773	28493
804.915	28428
805.057	28672
805.199	28432
805.341	28596
805.483	28546
805.626	28512
805.768	28493
805.91	28588
806.052	28580
806.194	28546
806.336	28653
806.478	28531
806.62	28455
806.762	28653
806.904	28763
807.046	29155
807.188	28987
807.33	29090
807.472	29098
807.614	28991
807.756	28820
807.898	28816
808.04	28885
808.182	28801
808.324	28892
808.465	28927
808.607	29231
808.749	29239
808.891	29471
809.033	29387
809.174	29246
809.316	29277
809.458	29292
809.6	29208
809.741	29318
809.883	29383
810.025	29509
810.166	29551
810.308	29668
810.45	29455
810.591	29493
810.733	29265
810.875	29246
811.016	29284
811.158	29136
811.299	29459
811.441	29444
811.582	29425
811.724	29414
811.865	29265
812.007	29375
812.148	29326
812.29	29425
812.431	29524
812.573	29726
812.714	29764
812.855	29775
812.997	30057
813.138	30007
813.279	29847
813.421	29798
813.562	29570
813.703	29520
813.845	29589
813.986	29189
814.127	29079
814.268	28881
814.41	29090
814.551	29014
814.692	29121
814.833	28831
814.974	28934
815.115	28923
815.256	28828
815.397	28816
815.539	28877
815.68	28778
815.821	28687
815.962	28904
816.103	28790
816.244	28637
816.385	28573
816.526	28618
816.666	28401
816.807	28204
816.948	28405
817.089	28322
817.23	28314
817.371	28333
817.512	28348
817.653	28211
817.793	28200
817.934	28341
818.075	28223
818.216	28284
818.356	28291
818.497	28169
818.638	28055
818.778	27998
818.919	27991
819.06	28265
819.2	28128
819.341	28341
819.481	28443
819.622	28523
819.762	28622
819.903	28550
820.043	28550
820.184	28481
820.324	28409
820.465	28409
820.605	28424
820.746	28489
820.886	28284
821.026	28398
821.167	28470
821.307	28428
821.447	28352
821.588	28280
821.728	28223
821.868	28055
822.008	27835
822.149	27835
822.289	27705
822.429	27622
822.569	27538
822.709	27523
822.849	27294
822.99	27340
823.13	27344
823.27	27378
823.41	27077
823.55	26971
823.69	27275
823.83	27020
823.97	27085
824.11	27093
824.25	26910
824.389	26963
824.529	27036
824.669	26891
824.809	27093
824.949	27005
825.089	27074
825.228	26994
825.368	26773
825.508	26830
825.648	26819
825.787	26910
825.927	26868
826.067	26758
826.206	26838
826.346	26906
826.485	27032
826.625	26727
826.765	27028
826.904	26963
827.044	26609
827.183	26636
827.323	26484
827.462	26667
827.601	26632
827.741	26446
827.88	26712
828.02	26438
828.159	26446
828.298	26575
828.437	26560
828.577	26484
828.716	26640
828.855	26492
828.994	26305
829.134	26355
829.273	26301
829.412	26332
829.551	26202
829.69	26233
829.829	26271
829.968	26320
830.107	26351
830.246	26195
830.385	26100
830.524	26111
830.663	26111
830.802	25966
830.941	25944
831.08	25715
831.219	25947
831.357	25925
831.496	26111
831.635	25921
831.774	25917
831.913	25708
832.051	25635
832.19	25731
832.329	25670
832.467	25597
832.606	25491
832.744	25518
832.883	25567
833.022	25491
833.16	25529
833.299	25506
833.437	25518
833.576	25571
833.714	25594
833.852	25548
833.991	25658
834.129	25689
834.267	25693
834.406	25624
834.544	25491
834.682	25533
834.821	25575
834.959	25571
835.097	25529
835.235	25594
835.373	25563
835.511	25586
835.65	25613
835.788	25434
835.926	25240
836.064	25213
836.202	25301
836.34	25529
836.478	25548
836.615	25430
836.753	25438
836.891	25544
837.029	25487
837.167	25415
837.305	25278
837.443	25247
837.58	25137
837.718	25270
837.856	25339
837.993	25110
838.131	25263
838.269	25198
838.406	25156
838.544	24970
838.681	24920
838.819	24928
838.956	24688
839.094	24631
839.231	24764
839.369	24943
839.506	25133
839.643	24943
839.781	24715
839.918	24753
840.055	24715
840.193	24658
840.33	24589
840.467	24418
840.604	24700
840.742	24806
840.879	24342
841.016	24490
841.153	24452
841.29	24597
841.427	24532
841.564	24703
841.701	24623
841.838	24623
841.975	24589
842.112	24525
842.249	24422
842.385	24384
842.522	24574
842.659	24513
842.796	24308
842.933	24448
843.069	24441
843.206	24342
843.343	24441
843.479	24338
843.616	24372
843.752	24140
843.889	24110
844.025	24342
844.162	24102
844.298	24216
844.435	24144
844.571	24178
844.708	24121
844.844	24342
844.98	24323
845.117	24121
845.253	24121
845.389	24026
845.525	23988
845.661	24102
845.798	23885
845.934	23821
846.07	23927
846.206	23954
846.342	24076
846.478	23878
846.614	23535
846.75	23615
846.886	23611
847.022	23691
847.158	23551
847.294	23566
847.429	23707
847.565	23642
847.701	23965
847.837	23345
847.972	23239
848.108	23448
848.244	23421
848.379	23204
848.515	23315
848.65	23041
848.786	23124
848.921	23140
849.057	23284
849.192	23239
849.328	23311
849.463	23147
849.598	23014
849.734	23041
849.869	22991
850.004	23041
850.14	23003
850.275	22858
850.41	22919
850.545	22862
850.68	22930
850.815	22938
850.95	23113
851.085	23086
851.22	22953
851.355	22991
851.49	22930
851.625	22968
851.76	23010
851.895	22869
852.03	22778
852.165	22972
852.299	23025
852.434	23041
852.569	22934
852.703	23033
852.838	22957
852.973	23140
853.107	23086
853.242	22892
853.376	22896
853.511	22664
853.645	22706
853.78	22866
853.914	22706
854.048	22847
854.183	22759
854.317	22790
854.451	22957
854.585	22831
854.72	22797
854.854	22881
854.988	22618
855.122	22850
855.256	22637
855.39	22767
855.524	22877
855.658	22797
855.792	22736
855.926	22748
856.06	22866
856.194	22774
856.327	22877
856.461	22668
856.595	22759
856.729	22755
856.862	22980
856.996	22694
857.13	22797
857.263	22953
857.397	22790
857.53	22824
857.664	22816
857.797	22816
857.931	22927
858.064	22774
858.197	22877
858.331	22820
858.464	22710
858.597	22672
858.731	22759
858.864	22694
858.997	22683
859.13	22805
859.263	22790
859.396	22809
859.529	22797
859.662	22873
859.795	22729
859.928	22790
860.061	22961
860.194	22995
860.327	22896
860.46	22869
860.592	22896
860.725	22949
860.858	22889
860.99	22721
861.123	22687
861.256	22839
861.388	22793
861.521	23364
861.653	22713
861.786	22538
861.918	22542
862.05	22626
862.183	22634
862.315	22679
862.447	22790
862.58	22637
862.712	22462
862.844	22360
862.976	22512
863.108	22706
863.24	23006
863.372	22478
863.504	22500
863.636	22466
863.768	22485
863.9	22603
864.032	22462
864.164	22519
864.296	22466
864.428	22607
864.559	22573
864.691	22508
864.823	22554
864.954	22508
865.086	22531
865.217	22367
865.349	22341
865.48	22424
865.612	22295
865.743	22535
865.875	22303
866.006	22379
866.137	22417
866.269	22402
866.4	22325
866.531	22371
866.662	22124
866.793	22314
866.924	22299
867.055	22215
867.186	22265
867.317	22356
867.448	22143
867.579	22162
867.71	22139
867.841	22322
867.972	22348
868.103	22299
868.233	22333
868.364	22257
868.495	22455
868.625	22500
868.756	22637
868.886	22398
869.017	22417
869.147	22679
869.278	22683
869.408	22535
869.539	22504
869.669	22622
869.799	22455
869.929	22736
870.06	22672
870.19	22946
870.32	22896
870.45	22953
870.58	22854
870.71	23010
870.84	22957
870.97	22831
871.1	22866
871.23	23029
871.36	23109
871.489	23090
871.619	23014
871.749	23151
871.879	23189
872.008	23212
872.138	23044
872.267	23250
872.397	23200
872.526	22972
872.656	22987
872.785	23010
872.915	23197
873.044	23132
873.173	23124
873.303	23155
873.432	23330
873.561	23185
873.69	23239
873.819	23105
873.948	23250
874.077	23235
874.206	23189
874.335	23132
874.464	23299
874.593	23315
874.722	23368
874.851	23421
874.979	23463
875.108	23421
875.237	23341
875.365	23273
875.494	23433
875.623	23372
875.751	23288
875.88	23417
876.008	23551
876.136	23520
876.265	23775
876.393	23946
876.521	23832
876.65	23752
876.778	23748
876.906	23726
877.034	23729
877.162	23767
877.29	23611
877.418	23802
877.546	23657
877.674	23687
877.802	23703
877.93	23680
878.058	23554
878.185	23505
878.313	23691
878.441	23665
878.568	23570
878.696	23589
878.824	23638
878.951	23718
879.079	23920
879.206	24003
879.333	23840
879.461	23710
879.588	23923
879.715	23805
879.842	24026
879.97	23638
880.097	23406
880.224	23490
880.351	23535
880.478	23524
880.605	23528
880.732	23478
880.859	23726
880.986	23581
881.112	23505
881.239	23436
881.366	23284
881.493	23060
881.619	22976
881.746	23143
881.872	23033
881.999	23075
882.125	23083
882.252	23071
882.378	23147
882.505	23121
882.631	23010
882.757	22763
882.883	22885
883.01	22828
883.136	22725
883.262	22653
883.388	22626
883.514	22782
883.64	22767
883.766	22550
883.892	22470
884.018	22565
884.143	22664
884.269	22630
884.395	22596
884.52	22409
884.646	22379
884.772	22363
884.897	22333
885.023	22337
885.148	22390
885.274	22470
885.399	22500
885.524	22333
885.65	22299
885.775	22386
885.9	22360
886.025	22417
886.15	22417
886.275	22318
886.4	22188
886.525	22306
886.65	22318
886.775	22276
886.9	22409
887.025	22584
887.149	22314
887.274	22154
887.399	22249
887.523	22143
887.648	22051
887.773	21903
887.897	22322
888.021	22268
888.146	22067
888.27	22234
888.395	22090
888.519	22200
888.643	22120
888.767	22261
888.891	21861
889.015	21983
889.139	22044
889.263	21972
889.387	22006
889.511	22086
889.635	22097
889.759	21831
889.883	21937
890.006	22055
890.13	21812
890.254	21808
890.377	21827
890.501	21705
890.624	21625
890.748	21667
890.871	21519
890.995	21557
891.118	21439
891.241	21622
891.364	21367
891.488	21618
891.611	21462
891.734	21469
891.857	21561
891.98	21458
892.103	21500
892.226	21507
892.349	21500
892.471	21207
892.594	21412
892.717	21370
892.839	21374
892.962	21367
893.085	21428
893.207	21317
893.33	21252
893.452	21279
893.575	21348
893.697	21397
893.819	21469
893.941	21530
894.064	21378
894.186	21230
894.308	21173
894.43	21359
894.552	21481
894.674	21439
894.796	21302
894.918	21329
895.04	21218
895.161	21310
895.283	21393
895.405	21199
895.526	21256
895.648	21321
895.769	21329
895.891	21382
896.012	21488
896.134	21287
896.255	21401
896.376	21344
896.498	21275
896.619	21359
896.74	21230
896.861	21291
896.982	21641
897.103	21739
897.224	21564
897.345	21530
897.466	21511
897.587	21603
897.708	21644
897.828	21538
897.949	21485
898.07	21340
898.19	21439
898.311	21511
898.431	21454
898.552	21435
898.672	21553
898.792	21625
898.913	21500
899.033	21378
899.153	21405
899.273	21233
899.393	21340
899.513	21237
899.633	21173
899.753	21142
899.873	21131
899.993	21355
900.113	21188
900.232	21108
900.352	21096
900.472	21009
900.591	20975
900.711	21047
900.83	20952
900.95	21013
901.069	21135
901.189	20891
901.308	20640
901.427	20511
901.546	20590
901.665	20632
901.784	20590
901.904	20495
902.023	20366
902.141	20206
902.26	20119
902.379	20229
902.498	20126
902.617	20058
902.735	20180
902.854	20081
902.973	19940
903.091	19814
903.21	19780
903.328	19791
903.446	19693
903.565	19651
903.683	19514
903.801	19472
903.919	19392
904.038	19533
904.156	19289
904.274	19301
904.392	19202
904.51	19091
904.627	19236
904.745	19381
904.863	19335
904.981	18973
905.098	19023
905.216	18897
905.334	19042
905.451	18962
905.569	18886
905.686	18973
905.803	18871
905.921	18661
906.038	18753
906.155	18837
906.272	18597
906.389	18642
906.506	18494
906.623	18502
906.74	18426
906.857	18494
906.974	18357
907.091	18525
907.208	18631
907.324	18399
907.441	18285
907.557	18205
907.674	18114
907.79	18140
907.907	18152
908.023	18270
908.139	18159
908.256	18121
908.372	18019
908.488	18095
908.604	17927
908.72	17923
908.836	18038
908.952	17912
909.068	17954
909.184	17992
909.3	17897
909.415	17771
909.531	17950
909.647	17547
909.762	17642
909.878	17520
909.993	17581
910.108	17562
910.224	17486
910.339	17551
910.454	17345
910.57	17364
910.685	17269
910.8	17733
910.915	17558
911.03	17356
911.145	17227
911.259	17170
911.374	17181
911.489	17109
911.604	17033
911.718	17041
911.833	16881
911.947	16885
912.062	16725
912.176	16835
912.291	16972
912.405	16938
912.519	17025
912.633	16976
912.748	16980
912.862	16946
912.976	16710
913.09	16584
913.204	16721
913.318	16797
913.431	16915
913.545	16698
913.659	16797
913.772	16729
913.886	16500
914	16516
914.113	16569
914.226	16668
914.34	16596
914.453	16428
914.566	16470
914.68	16443
914.793	16257
914.906	16101
915.019	16150
915.132	15884
915.245	16116
915.358	16162
915.47	15994
915.583	16059
915.696	16040
915.809	16173
915.921	16154
916.034	15994
916.146	15968
916.259	16017
916.371	16025
916.483	15907
916.595	15831
916.708	15816
916.82	15831
916.932	15774
917.044	15774
917.156	15774
917.268	15751
917.38	15873
917.491	15652
917.603	15755
917.715	15732
917.826	15736
917.938	15606
918.049	15447
918.161	15618
918.272	15812
918.384	15709
918.495	15587
918.606	15428
918.717	15355
918.828	15481
918.939	15397
919.05	15374
919.161	15321
919.272	15165
919.383	15283
919.494	15454
919.604	15625
919.715	15420
919.826	15348
919.936	15370
920.047	15401
920.157	15382
920.267	15488
920.378	15310
920.488	15256
920.598	15496
920.708	15564
920.818	15488
920.928	15504
921.038	15572
921.148	15584
921.258	15340
921.368	15241
921.477	15097
921.587	15043
921.697	14952
921.806	15131
921.916	14853
922.025	14731
922.134	14731
922.244	14655
922.353	14853
922.462	14511
922.571	14495
922.68	14385
922.789	14324
922.898	14320
923.007	14233
923.116	14438
923.224	14393
923.333	14267
923.442	14221
923.55	14126
923.659	14263
923.767	14218
923.876	14069
923.984	14164
924.092	13951
924.201	14138
924.309	14126
924.417	14123
924.525	13989
924.633	14039
924.741	14834
924.849	13765
924.956	13833
925.064	13761
925.172	13693
925.279	13731
925.387	13799
925.494	13780
925.602	13833
925.709	13696
925.816	13533
925.924	13632
926.031	13753
926.138	13582
926.245	13761
926.352	13563
926.459	13704
926.566	13761
926.673	13540
926.779	13457
926.886	13495
926.993	13377
927.099	13270
927.206	13232
927.312	13198
927.419	13278
927.525	13171
927.631	13282
927.737	13107
927.843	13046
927.95	12954
928.056	13042
928.162	13110
928.267	13122
928.373	13715
928.479	13072
928.585	12810
928.69	13023
928.796	13019
928.901	12856
929.007	12798
929.112	12863
929.218	12837
929.323	12817
929.428	12757
929.533	12856
929.638	12745
929.743	12677
929.848	12703
929.953	12745
930.058	12574
930.163	12486
930.267	12323
930.372	12559
930.477	12414
930.581	12654
930.685	12525
930.79	12346
930.894	12163
930.998	12319
931.103	12315
931.207	12015
931.311	11885
931.415	11832
931.519	11688
931.623	11668
