Data from test_V78500241_1318.txt Node
Date: Fri Mar 25 15:50:55 CST 2022
User: usil
Spectrometer: V785-0024
Trigger mode: 0
Integration Time (sec): 4.000000E-1
Scans to average: 1
Nonlinearity correction enabled: false
Boxcar width: 0
Storing dark spectrum: false
XAxis mode: Wavelengths
Number of Pixels in Spectrum: 1024
>>>>>Begin Spectral Data<<<<<
801.071	27812
801.214	27747
801.356	27671
801.499	27549
801.641	27435
801.783	27454
801.926	27382
802.068	27367
802.211	27302
802.353	27294
802.496	27176
802.638	27096
802.78	27017
802.923	26990
803.065	27024
803.208	27089
803.35	27039
803.492	27142
803.635	27237
803.777	27100
803.919	27283
804.061	27561
804.204	27370
804.346	27241
804.488	27116
804.63	27237
804.773	27165
804.915	27264
805.057	27481
805.199	27424
805.341	27405
805.483	27454
805.626	27359
805.768	27424
805.91	27397
806.052	27504
806.194	27408
806.336	27625
806.478	27530
806.62	27523
806.762	27530
806.904	27625
807.046	27934
807.188	27945
807.33	27930
807.472	27945
807.614	27713
807.756	27816
807.898	27797
808.04	27622
808.182	27713
808.324	27861
808.465	27698
808.607	27892
808.749	27983
808.891	28105
809.033	28257
809.174	28192
809.316	28048
809.458	28010
809.6	28246
809.741	28204
809.883	28306
810.025	28398
810.166	28337
810.308	28516
810.45	28356
810.591	28341
810.733	28139
810.875	28090
811.016	28048
811.158	28044
811.299	28181
811.441	28398
811.582	28207
811.724	28147
811.865	28154
812.007	28082
812.148	28044
812.29	28013
812.431	28223
812.573	28299
812.714	28580
812.855	28516
812.997	28592
813.138	28820
813.279	28694
813.421	28577
813.562	28523
813.703	28360
813.845	28261
813.986	28196
814.127	27918
814.268	27778
814.41	27800
814.551	27724
814.692	27888
814.833	27736
814.974	27800
815.115	27781
815.256	27599
815.397	27656
815.539	27690
815.68	27576
815.821	27439
815.962	27587
816.103	27576
816.244	27466
816.385	27450
816.526	27355
816.666	27024
816.807	27081
816.948	27203
817.089	27180
817.23	27154
817.371	27066
817.512	27089
817.653	27100
817.793	26887
817.934	26975
818.075	27013
818.216	27062
818.356	27169
818.497	26921
818.638	26864
818.778	26758
818.919	26807
819.06	26910
819.2	26982
819.341	26982
819.481	26990
819.622	27199
819.762	27291
819.903	27264
820.043	27306
820.184	27256
820.324	27157
820.465	27272
820.605	27344
820.746	27123
820.886	26944
821.026	27154
821.167	27077
821.307	27192
821.447	27211
821.588	27013
821.728	26902
821.868	26727
822.008	26590
822.149	26457
822.289	26476
822.429	26176
822.569	26195
822.709	26267
822.849	26020
822.99	26168
823.13	26180
823.27	26107
823.41	25898
823.55	25852
823.69	25917
823.83	25887
823.97	25856
824.11	25544
824.25	25624
824.389	25715
824.529	25750
824.669	25666
824.809	25685
824.949	25894
825.089	25807
825.228	25655
825.368	25567
825.508	25525
825.648	25723
825.787	25544
825.927	25651
826.067	25415
826.206	25590
826.346	25632
826.485	25590
826.625	25544
826.765	25753
826.904	25578
827.044	25236
827.183	25221
827.323	25232
827.462	25331
827.601	25308
827.741	25324
827.88	25236
828.02	25244
828.159	25308
828.298	25282
828.437	25312
828.577	25038
828.716	25232
828.855	25084
828.994	25008
829.134	25046
829.273	24890
829.412	25076
829.551	24985
829.69	25015
829.829	24882
829.968	25107
830.107	25164
830.246	24924
830.385	24764
830.524	24814
830.663	24802
830.802	24631
830.941	24433
831.08	24555
831.219	24585
831.357	24642
831.496	24852
831.635	24559
831.774	24582
831.913	24456
832.051	24429
832.19	24330
832.329	24315
832.467	24224
832.606	24220
832.744	24174
832.883	24102
833.022	24262
833.16	24285
833.299	24224
833.437	24247
833.576	24365
833.714	24266
833.852	24239
833.991	24319
834.129	24403
834.267	24304
834.406	24319
834.544	24441
834.682	24296
834.821	24372
834.959	24445
835.097	24281
835.235	24365
835.373	24258
835.511	24209
835.65	24060
835.788	24125
835.926	24038
836.064	23984
836.202	24038
836.34	24106
836.478	24273
836.615	23977
836.753	24095
836.891	24273
837.029	24235
837.167	24022
837.305	24068
837.443	24076
837.58	23866
837.718	24083
837.856	23969
837.993	23775
838.131	23923
838.269	23832
838.406	23885
838.544	23722
838.681	23554
838.819	23687
838.956	23440
839.094	23360
839.231	23592
839.369	23589
839.506	23783
839.643	23680
839.781	23433
839.918	23509
840.055	23376
840.193	23433
840.33	23315
840.467	23322
840.604	23425
840.742	23676
840.879	23197
841.016	23273
841.153	23220
841.29	23448
841.427	23250
841.564	23410
841.701	23356
841.838	23277
841.975	23315
842.112	23265
842.249	23208
842.385	23067
842.522	23417
842.659	23200
842.796	22991
842.933	23003
843.069	23128
843.206	23060
843.343	23239
843.479	23193
843.616	23022
843.752	22889
843.889	22892
844.025	23052
844.162	22763
844.298	23044
844.435	22843
844.571	22778
844.708	22911
844.844	22976
844.98	23113
845.117	22976
845.253	22828
845.389	22790
845.525	22790
845.661	22820
845.798	22519
845.934	22596
846.07	22664
846.206	22653
846.342	22793
846.478	22474
846.614	22489
846.75	22181
846.886	22253
847.022	22382
847.158	22367
847.294	22276
847.429	22291
847.565	22325
847.701	22561
847.837	22097
847.972	22032
848.108	22150
848.244	22177
848.379	22006
848.515	22097
848.65	21827
848.786	22021
848.921	21987
849.057	22036
849.192	21994
849.328	21949
849.463	21915
849.598	21918
849.734	21895
849.869	21770
850.004	21694
850.14	21682
850.275	21648
850.41	21728
850.545	21660
850.68	21591
850.815	21732
850.95	21747
851.085	21895
851.22	21854
851.355	21785
851.49	21644
851.625	21724
851.76	21682
851.895	21606
852.03	21648
852.165	21701
852.299	21717
852.434	21823
852.569	21762
852.703	21781
852.838	21842
852.973	21781
853.107	21850
853.242	21717
853.376	21492
853.511	21511
853.645	21549
853.78	21690
853.914	21485
854.048	21568
854.183	21485
854.317	21466
854.451	21690
854.585	21450
854.72	21458
854.854	21633
854.988	21488
855.122	21671
855.256	21481
855.39	21428
855.524	21663
855.658	21675
855.792	21485
855.926	21622
856.06	21622
856.194	21538
856.327	21530
856.461	21382
856.595	21466
856.729	21507
856.862	21629
856.996	21580
857.13	21656
857.263	21641
857.397	21663
857.53	21641
857.664	21614
857.797	21485
857.931	21633
858.064	21580
858.197	21641
858.331	21606
858.464	21507
858.597	21351
858.731	21610
858.864	21538
858.997	21435
859.13	21466
859.263	21473
859.396	21641
859.529	21526
859.662	21580
859.795	21534
859.928	21507
860.061	21671
860.194	21679
860.327	21629
860.46	21504
860.592	21633
860.725	21641
860.858	21675
860.99	21641
861.123	21462
861.256	21511
861.388	21431
861.521	22078
861.653	21359
861.786	21237
861.918	21454
862.05	21408
862.183	21298
862.315	21572
862.447	21507
862.58	21485
862.712	21310
862.844	21154
862.976	21226
863.108	21302
863.24	21629
863.372	21195
863.504	21226
863.636	21275
863.768	21348
863.9	21249
864.032	21154
864.164	21146
864.296	21218
864.428	21287
864.559	21393
864.691	21355
864.823	21241
864.954	21310
865.086	21256
865.217	21077
865.349	21070
865.48	21085
865.612	21165
865.743	21233
865.875	21081
866.006	21013
866.137	21131
866.269	21058
866.4	21058
866.531	21195
866.662	21051
866.793	21024
866.924	20979
867.055	21169
867.186	20998
867.317	20971
867.448	21005
867.579	21081
867.71	21009
867.841	20952
867.972	21104
868.103	21043
868.233	21119
868.364	21001
868.495	21214
868.625	21355
868.756	21382
868.886	21180
869.017	21344
869.147	21485
869.278	21530
869.408	21207
869.539	21310
869.669	21466
869.799	21378
869.929	21519
870.06	21408
870.19	21519
870.32	21633
870.45	21675
870.58	21679
870.71	21812
870.84	21865
870.97	21823
871.1	21671
871.23	21854
871.36	21911
871.489	21720
871.619	21819
871.749	21812
871.879	21983
872.008	21956
872.138	21781
872.267	21880
872.397	21732
872.526	21705
872.656	21781
872.785	21644
872.915	21903
873.044	21960
873.173	21915
873.303	21876
873.432	22010
873.561	22017
873.69	21949
873.819	21945
873.948	22021
874.077	21922
874.206	21823
874.335	21892
874.464	22097
874.593	22143
874.722	22051
874.851	22150
874.979	22230
875.108	22093
875.237	22063
875.365	21991
875.494	22067
875.623	22226
875.751	22082
875.88	22090
876.008	22424
876.136	22234
876.265	22538
876.393	22649
876.521	22649
876.65	22577
876.778	22459
876.906	22550
877.034	22497
877.162	22599
877.29	22478
877.418	22462
877.546	22550
877.674	22462
877.802	22538
877.93	22607
878.058	22481
878.185	22409
878.313	22432
878.441	22516
878.568	22371
878.696	22470
878.824	22500
878.951	22523
879.079	22710
879.206	22809
879.333	22809
879.461	22569
879.588	22573
879.715	22698
879.842	22717
879.97	22698
880.097	22325
880.224	22322
880.351	22318
880.478	22238
880.605	22363
880.732	22356
880.859	22668
880.986	22341
881.112	22333
881.239	22150
881.366	22067
881.493	21934
881.619	21945
881.746	21915
881.872	21930
881.999	21941
882.125	21713
882.252	21903
882.378	21903
882.505	22048
882.631	21793
882.757	21629
882.883	21663
883.01	21644
883.136	21648
883.262	21500
883.388	21515
883.514	21511
883.64	21633
883.766	21420
883.892	21363
884.018	21408
884.143	21496
884.269	21671
884.395	21367
884.52	21241
884.646	21340
884.772	21085
884.897	21211
885.023	21264
885.148	21340
885.274	21458
885.399	21382
885.524	21195
885.65	21241
885.775	21291
885.9	21195
886.025	21317
886.15	21287
886.275	21222
886.4	21138
886.525	21165
886.65	21043
886.775	21154
886.9	21203
887.025	21374
887.149	21066
887.274	20864
887.399	20925
887.523	20963
887.648	20944
887.773	21013
887.897	21085
888.021	21001
888.146	20910
888.27	21180
888.395	21051
888.519	21005
888.643	20979
888.767	21096
888.891	20960
889.015	20735
889.139	20876
889.263	20849
889.387	20937
889.511	20994
889.635	20777
889.759	20705
889.883	20796
890.006	20743
890.13	20823
890.254	20708
890.377	20788
890.501	20667
890.624	20484
890.748	20537
890.871	20332
890.995	20431
891.118	20290
891.241	20324
891.364	20427
891.488	20381
891.611	20332
891.734	20385
891.857	20461
891.98	20317
892.103	20427
892.226	20377
892.349	20370
892.471	20122
892.594	20252
892.717	20282
892.839	20138
892.962	20347
893.085	20271
893.207	20362
893.33	20176
893.452	20138
893.575	20396
893.697	20267
893.819	20298
893.941	20583
894.064	20469
894.186	20248
894.308	20309
894.43	20275
894.552	20442
894.674	20298
894.796	20084
894.918	20138
895.04	20275
895.161	20343
895.283	20305
895.405	20256
895.526	20214
895.648	20328
895.769	20347
895.891	20286
896.012	20332
896.134	20366
896.255	20290
896.376	20240
896.498	20252
896.619	20317
896.74	20339
896.861	20244
896.982	20655
897.103	20636
897.224	20431
897.345	20476
897.466	20377
897.587	20446
897.708	20587
897.828	20560
897.949	20415
898.07	20248
898.19	20305
898.311	20480
898.431	20400
898.552	20419
898.672	20609
898.792	20522
898.913	20545
899.033	20396
899.153	20248
899.273	20286
899.393	20362
899.513	20237
899.633	20275
899.753	20161
899.873	20176
899.993	20199
900.113	20126
900.232	20240
900.352	20259
900.472	20115
900.591	20001
900.711	20054
900.83	20043
900.95	20054
901.069	20134
901.189	19890
901.308	19670
901.427	19647
901.546	19700
901.665	19578
901.784	19677
901.904	19476
902.023	19407
902.141	19232
902.26	19107
902.379	19301
902.498	19171
902.617	19095
902.735	19225
902.854	18981
902.973	18977
903.091	18829
903.21	18776
903.328	18749
903.446	18711
903.565	18547
903.683	18555
903.801	18429
903.919	18475
904.038	18456
904.156	18327
904.274	18281
904.392	18296
904.51	18251
904.627	18330
904.745	18403
904.863	18319
904.981	18079
905.098	18098
905.216	17984
905.334	18053
905.451	17965
905.569	18022
905.686	18091
905.803	17931
905.921	17794
906.038	17942
906.155	17703
906.272	17802
906.389	17729
906.506	17509
906.623	17600
906.74	17440
906.857	17444
906.974	17452
907.091	17585
907.208	17596
907.324	17596
907.441	17520
907.557	17261
907.674	17299
907.79	17200
907.907	17277
908.023	17258
908.139	17250
908.256	17200
908.372	17090
908.488	17124
908.604	17041
908.72	16919
908.836	16984
908.952	17003
909.068	16930
909.184	17132
909.3	16862
909.415	17064
909.531	16972
909.647	16664
909.762	16675
909.878	16706
909.993	16664
910.108	16649
910.224	16459
910.339	16675
910.454	16660
910.57	16497
910.685	16504
910.8	16687
910.915	16656
911.03	16379
911.145	16337
911.259	16371
911.374	16318
911.489	16234
911.604	16109
911.718	15998
911.833	16124
911.947	16002
912.062	15854
912.176	16002
912.291	16101
912.405	16002
912.519	16169
912.633	16185
912.748	15941
912.862	15998
912.976	15759
913.09	15660
913.204	15823
913.318	15842
913.431	15949
913.545	15918
913.659	16002
913.772	15755
913.886	15698
914	15679
914.113	15759
914.226	15774
914.34	15671
914.453	15580
914.566	15701
914.68	15530
914.793	15530
914.906	15355
915.019	15184
915.132	15218
915.245	15226
915.358	15264
915.47	15222
915.583	15169
915.696	15325
915.809	15298
915.921	15329
916.034	15119
916.146	15226
916.259	15226
916.371	15294
916.483	15268
916.595	15062
916.708	15085
916.82	15074
916.932	15108
917.044	15093
917.156	15005
917.268	14872
917.38	14937
917.491	14845
917.603	14902
917.715	14986
917.826	14956
917.938	14933
918.049	14796
918.161	14864
918.272	14998
918.384	15043
918.495	14857
918.606	14651
918.717	14617
918.828	14674
918.939	14716
919.05	14613
919.161	14655
919.272	14499
919.383	14590
919.494	14765
919.604	14823
919.715	14613
919.826	14587
919.936	14621
920.047	14659
920.157	14636
920.267	14796
920.378	14724
920.488	14545
920.598	14754
920.708	14864
920.818	14876
920.928	14746
921.038	14842
921.148	14887
921.258	14598
921.368	14568
921.477	14377
921.587	14389
921.697	14202
921.806	14339
921.916	14271
922.025	14100
922.134	14046
922.244	14016
922.353	13959
922.462	13974
922.571	13765
922.68	13670
922.789	13601
922.898	13719
923.007	13658
923.116	13582
923.224	13605
923.333	13651
923.442	13491
923.55	13480
923.659	13544
923.767	13559
923.876	13457
923.984	13552
924.092	13384
924.201	13464
924.309	13339
924.417	13419
924.525	13358
924.633	13384
924.741	14176
924.849	13057
924.956	13251
925.064	13091
925.172	13019
925.279	13015
925.387	13107
925.494	13057
925.602	13149
925.709	13095
925.816	12993
925.924	12867
926.031	13118
926.138	13015
926.245	13095
926.352	12875
926.459	13152
926.566	13084
926.673	12920
926.779	12791
926.886	12814
926.993	12741
927.099	12673
927.206	12585
927.312	12593
927.419	12616
927.525	12544
927.631	12650
927.737	12517
927.843	12506
927.95	12414
928.056	12395
928.162	12414
928.267	12464
928.373	12966
928.479	12540
928.585	12190
928.69	12384
928.796	12391
928.901	12346
929.007	12136
929.112	12323
929.218	12319
929.323	12228
929.428	12171
929.533	12296
929.638	12068
929.743	12243
929.848	12129
929.953	12140
930.058	11996
930.163	11824
930.267	11859
930.372	11958
930.477	11847
930.581	12011
930.685	11958
930.79	11828
930.894	11745
930.998	11714
931.103	11904
931.207	11436
931.311	11471
931.415	11318
931.519	11208
931.623	11079
