Data from test_V78500241_1946.txt Node
Date: Fri Mar 25 15:55:16 CST 2022
User: usil
Spectrometer: V785-0024
Trigger mode: 0
Integration Time (sec): 4.000000E-1
Scans to average: 1
Nonlinearity correction enabled: false
Boxcar width: 0
Storing dark spectrum: false
XAxis mode: Wavelengths
Number of Pixels in Spectrum: 1024
>>>>>Begin Spectral Data<<<<<
801.071	28904
801.214	28790
801.356	28363
801.499	28447
801.641	28500
801.783	28367
801.926	28504
802.068	28306
802.211	28409
802.353	28310
802.496	28093
802.638	28090
802.78	27994
802.923	28044
803.065	27983
803.208	28006
803.35	28230
803.492	28116
803.635	28261
803.777	28185
803.919	28356
804.061	28713
804.204	28348
804.346	28341
804.488	28306
804.63	28303
804.773	28223
804.915	28348
805.057	28348
805.199	28322
805.341	28360
805.483	28531
805.626	28379
805.768	28466
805.91	28523
806.052	28592
806.194	28352
806.336	28653
806.478	28668
806.62	28512
806.762	28672
806.904	28809
807.046	29006
807.188	28854
807.33	28816
807.472	29006
807.614	28972
807.756	28930
807.898	28771
808.04	28698
808.182	28733
808.324	28866
808.465	28896
808.607	29044
808.749	29132
808.891	29303
809.033	29433
809.174	29227
809.316	29132
809.458	29025
809.6	29041
809.741	29242
809.883	29200
810.025	29482
810.166	29482
810.308	29531
810.45	29440
810.591	29322
810.733	29212
810.875	29143
811.016	29018
811.158	29033
811.299	29216
811.441	29235
811.582	29303
811.724	29067
811.865	29033
812.007	29014
812.148	29121
812.29	29178
812.431	29448
812.573	29402
812.714	29414
812.855	29703
812.997	29813
813.138	29828
813.279	29756
813.421	29608
813.562	29630
813.703	29516
813.845	29353
813.986	29079
814.127	28946
814.268	28908
814.41	28991
814.551	28721
814.692	28839
814.833	28946
814.974	28839
815.115	28908
815.256	28713
815.397	28706
815.539	28767
815.68	28694
815.821	28508
815.962	28668
816.103	28618
816.244	28641
816.385	28443
816.526	28508
816.666	28314
816.807	28207
816.948	28348
817.089	28276
817.23	28268
817.371	28135
817.512	28051
817.653	28105
817.793	28173
817.934	28200
818.075	28242
818.216	28131
818.356	28029
818.497	27964
818.638	27869
818.778	27941
818.919	27994
819.06	28029
819.2	28246
819.341	28238
819.481	28223
819.622	28363
819.762	28603
819.903	28443
820.043	28356
820.184	28192
820.324	28409
820.465	28367
820.605	28192
820.746	28325
820.886	28257
821.026	28371
821.167	28303
821.307	28398
821.447	28303
821.588	28223
821.728	28006
821.868	27842
822.008	27701
822.149	27698
822.289	27656
822.429	27443
822.569	27405
822.709	27279
822.849	27165
822.99	27233
823.13	27020
823.27	27100
823.41	27131
823.55	26834
823.69	26975
823.83	27055
823.97	26952
824.11	26697
824.25	26689
824.389	26921
824.529	26834
824.669	26773
824.809	26994
824.949	26952
825.089	26815
825.228	26899
825.368	26686
825.508	26648
825.648	26697
825.787	26781
825.927	26746
826.067	26689
826.206	26727
826.346	26796
826.485	26773
826.625	26655
826.765	26781
826.904	26762
827.044	26629
827.183	26461
827.323	26400
827.462	26526
827.601	26473
827.741	26290
827.88	26427
828.02	26317
828.159	26469
828.298	26419
828.437	26453
828.577	26317
828.716	26526
828.855	26374
828.994	26054
829.134	26115
829.273	26073
829.412	26122
829.551	26050
829.69	26161
829.829	26191
829.968	26240
830.107	26202
830.246	26145
830.385	25970
830.524	25932
830.663	25963
830.802	25719
830.941	25666
831.08	25738
831.219	25734
831.357	25902
831.496	25841
831.635	25757
831.774	25681
831.913	25594
832.051	25506
832.19	25483
832.329	25460
832.467	25521
832.606	25430
832.744	25289
832.883	25373
833.022	25285
833.16	25415
833.299	25381
833.437	25373
833.576	25502
833.714	25445
833.852	25460
833.991	25510
834.129	25552
834.267	25521
834.406	25392
834.544	25327
834.682	25460
834.821	25377
834.959	25681
835.097	25392
835.235	25308
835.373	25388
835.511	25464
835.65	25228
835.788	25266
835.926	25084
836.064	25179
836.202	25069
836.34	25331
836.478	25377
836.615	25255
836.753	25358
836.891	25282
837.029	25240
837.167	25278
837.305	25080
837.443	25103
837.58	25129
837.718	25236
837.856	25156
837.993	25008
838.131	25107
838.269	24920
838.406	24977
838.544	24973
838.681	24760
838.819	24768
838.956	24627
839.094	24578
839.231	24532
839.369	24741
839.506	24882
839.643	24779
839.781	24650
839.918	24540
840.055	24505
840.193	24433
840.33	24422
840.467	24551
840.604	24525
840.742	24791
840.879	24281
841.016	24376
841.153	24323
841.29	24623
841.427	24445
841.564	24426
841.701	24407
841.838	24494
841.975	24494
842.112	24353
842.249	24372
842.385	24228
842.522	24433
842.659	24285
842.796	24201
842.933	24247
843.069	23996
843.206	24129
843.343	24190
843.479	24292
843.616	24292
843.752	23950
843.889	23939
844.025	24072
844.162	24003
844.298	24102
844.435	23958
844.571	24011
844.708	23992
844.844	24087
844.98	24152
845.117	24201
845.253	23984
845.389	23954
845.525	23863
845.661	23828
845.798	23783
845.934	23836
846.07	23745
846.206	23748
846.342	23764
846.478	23562
846.614	23433
846.75	23387
846.886	23505
847.022	23547
847.158	23581
847.294	23463
847.429	23535
847.565	23364
847.701	23665
847.837	23227
847.972	23048
848.108	23204
848.244	23261
848.379	23113
848.515	23029
848.65	22987
848.786	23056
848.921	23071
849.057	23147
849.192	23117
849.328	23064
849.463	22908
849.598	22930
849.734	22953
849.869	22873
850.004	22778
850.14	22858
850.275	22793
850.41	22809
850.545	22694
850.68	22778
850.815	22820
850.95	22767
851.085	22877
851.22	22908
851.355	22634
851.49	22744
851.625	22801
851.76	22786
851.895	22668
852.03	22687
852.165	22782
852.299	22847
852.434	22816
852.569	22908
852.703	22733
852.838	22873
852.973	22923
853.107	22900
853.242	22801
853.376	22675
853.511	22497
853.645	22527
853.78	22706
853.914	22611
854.048	22584
854.183	22542
854.317	22721
854.451	22698
854.585	22702
854.72	22615
854.854	22607
854.988	22519
855.122	22577
855.256	22497
855.39	22512
855.524	22599
855.658	22702
855.792	22599
855.926	22687
856.06	22615
856.194	22752
856.327	22596
856.461	22497
856.595	22626
856.729	22561
856.862	22748
856.996	22660
857.13	22641
857.263	22687
857.397	22645
857.53	22557
857.664	22634
857.797	22660
857.931	22729
858.064	22660
858.197	22683
858.331	22630
858.464	22535
858.597	22535
858.731	22504
858.864	22569
858.997	22519
859.13	22580
859.263	22611
859.396	22717
859.529	22588
859.662	22417
859.795	22402
859.928	22599
860.061	22740
860.194	22740
860.327	22687
860.46	22523
860.592	22759
860.725	22797
860.858	22668
860.99	22615
861.123	22455
861.256	22542
861.388	22565
861.521	23444
861.653	22565
861.786	22352
861.918	22413
862.05	22417
862.183	22565
862.315	22645
862.447	22637
862.58	22527
862.712	22287
862.844	22272
862.976	22371
863.108	22424
863.24	22820
863.372	22253
863.504	22322
863.636	22322
863.768	22360
863.9	22451
864.032	22246
864.164	22242
864.296	22363
864.428	22428
864.559	22261
864.691	22398
864.823	22226
864.954	22303
865.086	22207
865.217	22200
865.349	22078
865.48	22181
865.612	22166
865.743	22169
865.875	22162
866.006	22177
866.137	22204
866.269	22226
866.4	22253
866.531	22192
866.662	22093
866.793	22048
866.924	22154
867.055	22082
867.186	22128
867.317	21979
867.448	22215
867.579	22036
867.71	22025
867.841	21949
867.972	22070
868.103	22093
868.233	22109
868.364	21964
868.495	22207
868.625	22382
868.756	22352
868.886	22367
869.017	22360
869.147	22432
869.278	22440
869.408	22299
869.539	22306
869.669	22417
869.799	22360
869.929	22497
870.06	22512
870.19	22599
870.32	22580
870.45	22698
870.58	22831
870.71	22824
870.84	22778
870.97	22801
871.1	22618
871.23	22831
871.36	22915
871.489	22919
871.619	22778
871.749	22892
871.879	22934
872.008	23010
872.138	22957
872.267	22873
872.397	22858
872.526	22713
872.656	22786
872.785	22755
872.915	23003
873.044	23075
873.173	22927
873.303	23003
873.432	22934
873.561	23041
873.69	22991
873.819	22835
873.948	23094
874.077	23090
874.206	22972
874.335	22908
874.464	23128
874.593	23246
874.722	23159
874.851	23090
874.979	23178
875.108	23246
875.237	23075
875.365	23113
875.494	23079
875.623	23280
875.751	23162
875.88	23193
876.008	23353
876.136	23277
876.265	23505
876.393	23619
876.521	23604
876.65	23581
876.778	23497
876.906	23459
877.034	23455
877.162	23558
877.29	23478
877.418	23539
877.546	23531
877.674	23516
877.802	23440
877.93	23581
878.058	23516
878.185	23414
878.313	23417
878.441	23501
878.568	23311
878.696	23471
878.824	23391
878.951	23589
879.079	23756
879.206	23832
879.333	23585
879.461	23722
879.588	23539
879.715	23646
879.842	23798
879.97	23463
880.097	23349
880.224	23155
880.351	23296
880.478	23398
880.605	23143
880.732	23292
880.859	23509
880.986	23387
881.112	23444
881.239	23185
881.366	23056
881.493	23018
881.619	22847
881.746	22949
881.872	23003
881.999	22946
882.125	22831
882.252	22938
882.378	22820
882.505	22991
882.631	22729
882.757	22645
882.883	22706
883.01	22637
883.136	22497
883.262	22500
883.388	22462
883.514	22516
883.64	22626
883.766	22516
883.892	22314
884.018	22436
884.143	22561
884.269	22447
884.395	22295
884.52	22120
884.646	22181
884.772	22158
884.897	22226
885.023	22207
885.148	22242
885.274	22363
885.399	22223
885.524	22128
885.65	22276
885.775	22211
885.9	22348
886.025	22325
886.15	22443
886.275	22139
886.4	22112
886.525	22109
886.65	22101
886.775	22177
886.9	22322
887.025	22329
887.149	22150
887.274	21960
887.399	21994
887.523	22036
887.648	21979
887.773	21884
887.897	22025
888.021	21983
888.146	21911
888.27	22105
888.395	21907
888.519	22082
888.643	21899
888.767	21934
888.891	21964
889.015	21823
889.139	21705
889.263	21789
889.387	21888
889.511	21987
889.635	21831
889.759	21797
889.883	21679
890.006	21819
890.13	21907
890.254	21591
890.377	21675
890.501	21595
890.624	21481
890.748	21599
890.871	21367
890.995	21378
891.118	21351
891.241	21291
891.364	21382
891.488	21363
891.611	21382
891.734	21321
891.857	21458
891.98	21249
892.103	21340
892.226	21374
892.349	21256
892.471	20998
892.594	21298
892.717	21233
892.839	21214
892.962	21287
893.085	21218
893.207	21146
893.33	21165
893.452	21157
893.575	21142
893.697	21176
893.819	21332
893.941	21488
894.064	21408
894.186	21138
894.308	21116
894.43	21233
894.552	21264
894.674	21203
894.796	21055
894.918	21154
895.04	21161
895.161	21302
895.283	21176
895.405	21039
895.526	21169
895.648	21146
895.769	21180
895.891	21203
896.012	21214
896.134	21241
896.255	21180
896.376	21184
896.498	21207
896.619	21146
896.74	21256
896.861	21294
896.982	21477
897.103	21625
897.224	21504
897.345	21336
897.466	21382
897.587	21344
897.708	21469
897.828	21367
897.949	21287
898.07	21192
898.19	21317
898.311	21492
898.431	21378
898.552	21515
898.672	21435
898.792	21344
898.913	21424
899.033	21268
899.153	21093
899.273	21066
899.393	21093
899.513	21108
899.633	21100
899.753	21081
899.873	20979
899.993	21237
900.113	21142
900.232	21013
900.352	21184
900.472	20914
900.591	20872
900.711	20982
900.83	20796
900.95	21017
901.069	20826
901.189	20834
901.308	20446
901.427	20351
901.546	20545
901.665	20541
901.784	20530
901.904	20347
902.023	20286
902.141	20058
902.26	19928
902.379	19989
902.498	19940
902.617	19909
902.735	19894
902.854	19936
902.973	19837
903.091	19647
903.21	19651
903.328	19632
903.446	19643
903.565	19476
903.683	19407
903.801	19343
903.919	19358
904.038	19324
904.156	19145
904.274	19152
904.392	19187
904.51	19270
904.627	19103
904.745	19129
904.863	19206
904.981	18962
905.098	18814
905.216	18757
905.334	18943
905.451	18817
905.569	18886
905.686	18738
905.803	18745
905.921	18574
906.038	18585
906.155	18604
906.272	18506
906.389	18669
906.506	18437
906.623	18277
906.74	18445
906.857	18308
906.974	18216
907.091	18498
907.208	18376
907.324	18304
907.441	18254
907.557	18152
907.674	18022
907.79	17969
907.907	17969
908.023	18019
908.139	18114
908.256	17939
908.372	17901
908.488	17863
908.604	17828
908.72	17741
908.836	17836
908.952	17794
909.068	17718
909.184	17813
909.3	17756
909.415	17707
909.531	17726
909.647	17665
909.762	17482
909.878	17505
909.993	17376
910.108	17444
910.224	17353
910.339	17455
910.454	17288
910.57	17193
910.685	17242
910.8	17417
910.915	17326
911.03	17147
911.145	17147
911.259	17003
911.374	17052
911.489	16965
911.604	16812
911.718	16774
911.833	16767
911.947	16717
912.062	16603
912.176	16748
912.291	16828
912.405	16786
912.519	16896
912.633	16934
912.748	16854
912.862	16706
912.976	16565
913.09	16481
913.204	16641
913.318	16580
913.431	16717
913.545	16683
913.659	16710
913.772	16485
913.886	16329
914	16265
914.113	16508
914.226	16402
914.34	16303
914.453	16139
914.566	16325
914.68	16268
914.793	16219
914.906	16055
915.019	15987
915.132	15789
915.245	15922
915.358	16017
915.47	15994
915.583	15937
915.696	15987
915.809	16048
915.921	16074
916.034	15983
916.146	15869
916.259	15861
916.371	16048
916.483	15907
916.595	15800
916.708	15804
916.82	15770
916.932	15701
917.044	15717
917.156	15694
917.268	15500
917.38	15629
917.491	15580
917.603	15538
917.715	15682
917.826	15701
917.938	15439
918.049	15378
918.161	15389
918.272	15686
918.384	15652
918.495	15397
918.606	15374
918.717	15211
918.828	15382
918.939	15348
919.05	15173
919.161	15260
919.272	15024
919.383	15157
919.494	15325
919.604	15397
919.715	15287
919.826	15138
919.936	15291
920.047	15317
920.157	15165
920.267	15374
920.378	15256
920.488	15245
920.598	15344
920.708	15587
920.818	15317
920.928	15386
921.038	15458
921.148	15462
921.258	15207
921.368	15001
921.477	15070
921.587	15062
921.697	14876
921.806	14918
921.916	14868
922.025	14735
922.134	14590
922.244	14556
922.353	14682
922.462	14518
922.571	14408
922.68	14248
922.789	14187
922.898	14301
923.007	14149
923.116	14271
923.224	14187
923.333	14237
923.442	14134
923.55	14096
923.659	14043
923.767	14111
923.876	14046
923.984	14058
924.092	14054
924.201	14039
924.309	13894
924.417	14039
924.525	13898
924.633	13909
924.741	14864
924.849	13693
924.956	13864
925.064	13647
925.172	13670
925.279	13586
925.387	13643
925.494	13643
925.602	13841
925.709	13632
925.816	13483
925.924	13662
926.031	13571
926.138	13643
926.245	13529
926.352	13510
926.459	13533
926.566	13624
926.673	13460
926.779	13255
926.886	13285
926.993	13225
927.099	13206
927.206	13110
927.312	13076
927.419	13221
927.525	13183
927.631	13160
927.737	13015
927.843	13046
927.95	12973
928.056	12905
928.162	13031
928.267	13129
928.373	13586
928.479	13080
928.585	12768
928.69	12958
928.796	12920
928.901	12916
929.007	12677
929.112	12795
929.218	12730
929.323	12719
929.428	12730
929.533	12749
929.638	12631
929.743	12684
929.848	12665
929.953	12677
930.058	12547
930.163	12319
930.267	12372
930.372	12445
930.477	12342
930.581	12555
930.685	12372
930.79	12300
930.894	12292
930.998	12197
931.103	12289
931.207	11999
931.311	12007
931.415	11805
931.519	11505
931.623	11562
