Data from test_V78500241_1588.txt Node
Date: Fri Mar 25 15:52:48 CST 2022
User: usil
Spectrometer: V785-0024
Trigger mode: 0
Integration Time (sec): 4.000000E-1
Scans to average: 1
Nonlinearity correction enabled: false
Boxcar width: 0
Storing dark spectrum: false
XAxis mode: Wavelengths
Number of Pixels in Spectrum: 1024
>>>>>Begin Spectral Data<<<<<
801.071	28318
801.214	28211
801.356	27979
801.499	27979
801.641	27907
801.783	27732
801.926	27724
802.068	27701
802.211	27701
802.353	27717
802.496	27591
802.638	27408
802.78	27530
802.923	27340
803.065	27416
803.208	27473
803.35	27488
803.492	27785
803.635	27701
803.777	27610
803.919	27614
804.061	27903
804.204	27679
804.346	27629
804.488	27538
804.63	27663
804.773	27603
804.915	27625
805.057	27778
805.199	27641
805.341	27709
805.483	27854
805.626	27732
805.768	27770
805.91	27850
806.052	27770
806.194	27675
806.336	28010
806.478	27884
806.62	27918
806.762	27903
806.904	28196
807.046	28253
807.188	28280
807.33	28299
807.472	28181
807.614	28211
807.756	28169
807.898	28192
808.04	28093
808.182	28135
808.324	28097
808.465	28246
808.607	28310
808.749	28428
808.891	28584
809.033	28691
809.174	28474
809.316	28478
809.458	28436
809.6	28390
809.741	28561
809.883	28710
810.025	28675
810.166	28866
810.308	28759
810.45	28675
810.591	28687
810.733	28470
810.875	28379
811.016	28303
811.158	28280
811.299	28527
811.441	28618
811.582	28607
811.724	28523
811.865	28481
812.007	28455
812.148	28683
812.29	28436
812.431	28668
812.573	28706
812.714	28904
812.855	29056
812.997	28942
813.138	29155
813.279	29121
813.421	29132
813.562	28972
813.703	28824
813.845	28664
813.986	28485
814.127	28322
814.268	28078
814.41	28131
814.551	28090
814.692	28223
814.833	28196
814.974	28116
815.115	28097
815.256	28166
815.397	28101
815.539	28017
815.68	27861
815.821	27914
815.962	27975
816.103	28013
816.244	27953
816.385	27808
816.526	27838
816.666	27542
816.807	27606
816.948	27504
817.089	27458
817.23	27545
817.371	27462
817.512	27530
817.653	27488
817.793	27359
817.934	27450
818.075	27545
818.216	27526
818.356	27450
818.497	27306
818.638	27108
818.778	27268
818.919	27256
819.06	27218
819.2	27485
819.341	27568
819.481	27382
819.622	27591
819.762	27854
819.903	27705
820.043	27633
820.184	27660
820.324	27603
820.465	27641
820.605	27526
820.746	27416
820.886	27355
821.026	27580
821.167	27564
821.307	27599
821.447	27458
821.588	27408
821.728	27283
821.868	27066
822.008	27104
822.149	26952
822.289	26807
822.429	26678
822.569	26682
822.709	26644
822.849	26598
822.99	26488
823.13	26374
823.27	26518
823.41	26263
823.55	26081
823.69	26172
823.83	26374
823.97	26157
824.11	26134
824.25	25997
824.389	26164
824.529	26100
824.669	26096
824.809	26161
824.949	26134
825.089	26301
825.228	26142
825.368	25936
825.508	25959
825.648	25997
825.787	26016
825.927	26119
826.067	26046
826.206	26012
826.346	26096
826.485	26122
826.625	25864
826.765	26142
826.904	25989
827.044	25738
827.183	25635
827.323	25700
827.462	25784
827.601	25662
827.741	25700
827.88	25742
828.02	25723
828.159	25685
828.298	25715
828.437	25875
828.577	25708
828.716	25788
828.855	25700
828.994	25491
829.134	25472
829.273	25552
829.412	25396
829.551	25400
829.69	25479
829.829	25400
829.968	25407
830.107	25533
830.246	25445
830.385	25327
830.524	25240
830.663	25331
830.802	25164
830.941	24996
831.08	25008
831.219	25095
831.357	25069
831.496	25304
831.635	24970
831.774	24985
831.913	25004
832.051	24825
832.19	24935
832.329	24661
832.467	24620
832.606	24681
832.744	24661
832.883	24730
833.022	24661
833.16	24677
833.299	24741
833.437	24673
833.576	24795
833.714	24772
833.852	24817
833.991	24684
834.129	24939
834.267	24738
834.406	24837
834.544	24791
834.682	24707
834.821	24817
834.959	24829
835.097	24810
835.235	24764
835.373	24802
835.511	24768
835.65	24669
835.788	24570
835.926	24563
836.064	24464
836.202	24395
836.34	24608
836.478	24566
836.615	24517
836.753	24532
836.891	24635
837.029	24722
837.167	24521
837.305	24536
837.443	24502
837.58	24528
837.718	24532
837.856	24525
837.993	24460
838.131	24494
838.269	24300
838.406	24338
838.544	24167
838.681	24140
838.819	23965
838.956	23855
839.094	23863
839.231	23950
839.369	23893
839.506	24201
839.643	24163
839.781	23912
839.918	23760
840.055	23935
840.193	23798
840.33	23821
840.467	23783
840.604	23893
840.742	24098
840.879	23760
841.016	23813
841.153	23630
841.29	23916
841.427	23817
841.564	23809
841.701	23893
841.838	23809
841.975	23684
842.112	23691
842.249	23562
842.385	23436
842.522	23824
842.659	23573
842.796	23520
842.933	23619
843.069	23516
843.206	23471
843.343	23562
843.479	23459
843.616	23531
843.752	23345
843.889	23471
844.025	23490
844.162	23315
844.298	23436
844.435	23326
844.571	23280
844.708	23250
844.844	23429
844.98	23414
845.117	23421
845.253	23254
845.389	23162
845.525	23197
845.661	23132
845.798	23136
845.934	23174
846.07	23117
846.206	23075
846.342	23166
846.478	23079
846.614	22812
846.75	22790
846.886	22809
847.022	22812
847.158	22759
847.294	22850
847.429	22835
847.565	22729
847.701	22968
847.837	22561
847.972	22325
848.108	22592
848.244	22565
848.379	22363
848.515	22459
848.65	22367
848.786	22341
848.921	22371
849.057	22489
849.192	22371
849.328	22318
849.463	22280
849.598	22318
849.734	22268
849.869	22162
850.004	22147
850.14	22097
850.275	22090
850.41	22002
850.545	22097
850.68	22093
850.815	22166
850.95	22173
851.085	22310
851.22	22116
851.355	22295
851.49	22055
851.625	22074
851.76	22101
851.895	21911
852.03	22093
852.165	22029
852.299	22109
852.434	22188
852.569	22078
852.703	22158
852.838	22211
852.973	22204
853.107	22249
853.242	22055
853.376	21972
853.511	21918
853.645	21968
853.78	22162
853.914	22036
854.048	21888
854.183	21937
854.317	21899
854.451	22082
854.585	21968
854.72	21991
854.854	22040
854.988	21873
855.122	21865
855.256	21880
855.39	21865
855.524	22044
855.658	22090
855.792	21934
855.926	22029
856.06	21972
856.194	22086
856.327	21983
856.461	21857
856.595	21964
856.729	21907
856.862	22112
856.996	22025
857.13	22010
857.263	22131
857.397	21998
857.53	21975
857.664	21987
857.797	22048
857.931	21998
858.064	21907
858.197	21975
858.331	21994
858.464	21918
858.597	21831
858.731	21880
858.864	21781
858.997	21854
859.13	22025
859.263	21934
859.396	21968
859.529	21934
859.662	21800
859.795	21857
859.928	21945
860.061	22124
860.194	22120
860.327	21941
860.46	21960
860.592	22101
860.725	22063
860.858	21975
860.99	21759
861.123	21899
861.256	21895
861.388	21895
861.521	22580
861.653	21804
861.786	21679
861.918	21778
862.05	21812
862.183	21922
862.315	21873
862.447	21983
862.58	21926
862.712	21667
862.844	21622
862.976	21652
863.108	21785
863.24	22093
863.372	21583
863.504	21800
863.636	21523
863.768	21705
863.9	21709
864.032	21473
864.164	21553
864.296	21770
864.428	21671
864.559	21576
864.691	21732
864.823	21724
864.954	21519
865.086	21629
865.217	21694
865.349	21447
865.48	21492
865.612	21504
865.743	21504
865.875	21576
866.006	21435
866.137	21538
866.269	21545
866.4	21515
866.531	21496
866.662	21496
866.793	21542
866.924	21469
867.055	21523
867.186	21492
867.317	21515
867.448	21454
867.579	21515
867.71	21496
867.841	21355
867.972	21507
868.103	21469
868.233	21447
868.364	21511
868.495	21625
868.625	21717
868.756	21797
868.886	21603
869.017	21736
869.147	21736
869.278	21876
869.408	21694
869.539	21774
869.669	21732
869.799	21698
869.929	21880
870.06	21793
870.19	22002
870.32	22006
870.45	21968
870.58	22135
870.71	22215
870.84	22207
870.97	22048
871.1	22067
871.23	22257
871.36	22257
871.489	22109
871.619	22284
871.749	22322
871.879	22405
872.008	22379
872.138	22402
872.267	22242
872.397	22226
872.526	22101
872.656	22051
872.785	22166
872.915	22257
873.044	22348
873.173	22246
873.303	22341
873.432	22462
873.561	22580
873.69	22318
873.819	22325
873.948	22493
874.077	22333
874.206	22246
874.335	22299
874.464	22500
874.593	22691
874.722	22356
874.851	22592
874.979	22451
875.108	22615
875.237	22440
875.365	22443
875.494	22618
875.623	22634
875.751	22512
875.88	22512
876.008	22592
876.136	22740
876.265	22862
876.393	23014
876.521	22900
876.65	23056
876.778	22991
876.906	22835
877.034	22828
877.162	22946
877.29	22790
877.418	22934
877.546	22908
877.674	22927
877.802	22934
877.93	22828
878.058	22972
878.185	22862
878.313	22835
878.441	22915
878.568	22748
878.696	22755
878.824	22843
878.951	23022
879.079	23170
879.206	23231
879.333	22972
879.461	22980
879.588	23006
879.715	23056
879.842	23212
879.97	22991
880.097	22752
880.224	22755
880.351	22725
880.478	22607
880.605	22626
880.732	22710
880.859	22908
880.986	22626
881.112	22668
881.239	22626
881.366	22550
881.493	22413
881.619	22242
881.746	22238
881.872	22325
881.999	22398
882.125	22105
882.252	22287
882.378	22207
882.505	22337
882.631	22188
882.757	21960
882.883	22074
883.01	21964
883.136	21838
883.262	21884
883.388	21835
883.514	21975
883.64	21983
883.766	21838
883.892	21743
884.018	21816
884.143	21945
884.269	21869
884.395	21766
884.52	21587
884.646	21743
884.772	21359
884.897	21496
885.023	21557
885.148	21701
885.274	21743
885.399	21660
885.524	21580
885.65	21557
885.775	21591
885.9	21545
886.025	21728
886.15	21682
886.275	21530
886.4	21526
886.525	21511
886.65	21492
886.775	21439
886.9	21778
887.025	21850
887.149	21568
887.274	21424
887.399	21329
887.523	21340
887.648	21233
887.773	21275
887.897	21450
888.021	21336
888.146	21260
888.27	21447
888.395	21492
888.519	21332
888.643	21367
888.767	21359
888.891	21203
889.015	21211
889.139	21199
889.263	21123
889.387	21302
889.511	21443
889.635	21272
889.759	21100
889.883	21001
890.006	21199
890.13	21207
890.254	21047
890.377	21096
890.501	20868
890.624	20785
890.748	20948
890.871	20754
890.995	20686
891.118	20689
891.241	20708
891.364	20781
891.488	20785
891.611	20754
891.734	20712
891.857	20762
891.98	20708
892.103	20720
892.226	20632
892.349	20640
892.471	20587
892.594	20701
892.717	20609
892.839	20583
892.962	20583
893.085	20674
893.207	20617
893.33	20560
893.452	20541
893.575	20667
893.697	20613
893.819	20785
893.941	20796
894.064	20785
894.186	20575
894.308	20507
894.43	20613
894.552	20731
894.674	20655
894.796	20503
894.918	20617
895.04	20499
895.161	20644
895.283	20651
895.405	20552
895.526	20541
895.648	20613
895.769	20613
895.891	20708
896.012	20651
896.134	20693
896.255	20606
896.376	20571
896.498	20621
896.619	20765
896.74	20530
896.861	20651
896.982	20891
897.103	21062
897.224	20933
897.345	20796
897.466	20716
897.587	20842
897.708	20929
897.828	20902
897.949	20697
898.07	20739
898.19	20701
898.311	20883
898.431	20731
898.552	20845
898.672	20872
898.792	20849
898.913	20952
899.033	20754
899.153	20568
899.273	20461
899.393	20461
899.513	20545
899.633	20583
899.753	20541
899.873	20480
899.993	20724
900.113	20476
900.232	20457
900.352	20552
900.472	20377
900.591	20324
900.711	20332
900.83	20298
900.95	20442
901.069	20499
901.189	20180
901.308	20050
901.427	19864
901.546	19928
901.665	20024
901.784	19898
901.904	19784
902.023	19609
902.141	19510
902.26	19358
902.379	19582
902.498	19483
902.617	19384
902.735	19491
902.854	19434
902.973	19415
903.091	19076
903.21	19069
903.328	19118
903.446	19031
903.565	18871
903.683	18848
903.801	18745
903.919	18886
904.038	18768
904.156	18753
904.274	18703
904.392	18639
904.51	18578
904.627	18608
904.745	18646
904.863	18692
904.981	18479
905.098	18232
905.216	18338
905.334	18376
905.451	18254
905.569	18380
905.686	18304
905.803	18365
905.921	18205
906.038	18079
906.155	18182
906.272	17939
906.389	18026
906.506	17866
906.623	17935
906.74	17958
906.857	17775
906.974	17764
907.091	17828
907.208	17984
907.324	17824
907.441	17699
907.557	17676
907.674	17535
907.79	17512
907.907	17585
908.023	17722
908.139	17551
908.256	17543
908.372	17448
908.488	17452
908.604	17406
908.72	17292
908.836	17288
908.952	17364
909.068	17284
909.184	17376
909.3	17265
909.415	17334
909.531	17455
909.647	17060
909.762	17075
909.878	16980
909.993	17010
910.108	16991
910.224	16961
910.339	16968
910.454	16889
910.57	16778
910.685	16729
910.8	16892
910.915	16908
911.03	16782
911.145	16588
911.259	16645
911.374	16618
911.489	16485
911.604	16516
911.718	16352
911.833	16280
911.947	16268
912.062	16246
912.176	16344
912.291	16276
912.405	16398
912.519	16512
912.633	16592
912.748	16341
912.862	16318
912.976	16055
913.09	16021
913.204	16093
913.318	16082
913.431	16261
913.545	16284
913.659	16234
913.772	16177
913.886	16055
914	16021
914.113	15846
914.226	16063
914.34	15941
914.453	15808
914.566	15937
914.68	15812
914.793	15732
914.906	15618
915.019	15507
915.132	15469
915.245	15515
915.358	15530
915.47	15576
915.583	15545
915.696	15439
915.809	15656
915.921	15584
916.034	15473
916.146	15397
916.259	15408
916.371	15511
916.483	15454
916.595	15351
916.708	15420
916.82	15363
916.932	15370
917.044	15283
917.156	15287
917.268	15184
917.38	15237
917.491	15142
917.603	15302
917.715	15245
917.826	15264
917.938	15043
918.049	15039
918.161	15077
918.272	15268
918.384	15211
918.495	15127
918.606	14933
918.717	14826
918.828	14998
918.939	14948
919.05	14845
919.161	14891
919.272	14750
919.383	14735
919.494	14960
919.604	15043
919.715	14941
919.826	14792
919.936	14849
920.047	14868
920.157	14826
920.267	15062
920.378	14826
920.488	14758
920.598	15001
920.708	15108
920.818	14979
920.928	15066
921.038	15077
921.148	15066
921.258	14868
921.368	14716
921.477	14610
921.587	14594
921.697	14457
921.806	14590
921.916	14575
922.025	14301
922.134	14355
922.244	14153
922.353	14248
922.462	14115
922.571	14092
922.68	13913
922.789	13811
922.898	13902
923.007	13799
923.116	13978
923.224	14039
923.333	13875
923.442	13715
923.55	13666
923.659	13693
923.767	13742
923.876	13693
923.984	13734
924.092	13632
924.201	13567
924.309	13628
924.417	13586
924.525	13544
924.633	13487
924.741	14423
924.849	13331
924.956	13464
925.064	13381
925.172	13369
925.279	13270
925.387	13354
925.494	13304
925.602	13403
925.709	13289
925.816	13251
925.924	13270
926.031	13293
926.138	13164
926.245	13266
926.352	13088
926.459	13251
926.566	13274
926.673	13095
926.779	13027
926.886	12993
926.993	12878
927.099	12779
927.206	12684
927.312	12760
927.419	12837
927.525	12734
927.631	12848
927.737	12722
927.843	12757
927.95	12620
928.056	12692
928.162	12658
928.267	12757
928.373	13232
928.479	12795
928.585	12532
928.69	12616
928.796	12696
928.901	12429
929.007	12403
929.112	12547
929.218	12509
929.323	12422
929.428	12346
929.533	12388
929.638	12372
929.743	12376
929.848	12292
929.953	12319
930.058	12171
930.163	11946
930.267	12022
930.372	12159
930.477	11992
930.581	12361
930.685	12102
930.79	11923
930.894	11950
930.998	11805
931.103	12019
931.207	11608
931.311	11573
931.415	11410
931.519	11318
931.623	11296
