Data from test_V78500241_3674.txt Node
Date: Fri Mar 25 16:07:15 CST 2022
User: usil
Spectrometer: V785-0024
Trigger mode: 0
Integration Time (sec): 4.000000E-1
Scans to average: 1
Nonlinearity correction enabled: false
Boxcar width: 0
Storing dark spectrum: false
XAxis mode: Wavelengths
Number of Pixels in Spectrum: 1024
>>>>>Begin Spectral Data<<<<<
801.071	28268
801.214	28287
801.356	28173
801.499	28025
801.641	27998
801.783	28063
801.926	28051
802.068	27914
802.211	27983
802.353	27937
802.496	27701
802.638	27656
802.78	27667
802.923	27553
803.065	27652
803.208	27679
803.35	27625
803.492	27835
803.635	27857
803.777	27960
803.919	27789
804.061	28272
804.204	27945
804.346	27675
804.488	27823
804.63	27895
804.773	27895
804.915	27857
805.057	28055
805.199	27926
805.341	28002
805.483	27994
805.626	28017
805.768	27827
805.91	28090
806.052	28177
806.194	28112
806.336	28185
806.478	28147
806.62	28013
806.762	28287
806.904	28303
807.046	28596
807.188	28485
807.33	28401
807.472	28554
807.614	28626
807.756	28474
807.898	28348
808.04	28413
808.182	28249
808.324	28284
808.465	28394
808.607	28580
808.749	28706
808.891	28869
809.033	28869
809.174	28790
809.316	28668
809.458	28828
809.6	28771
809.741	28752
809.883	28839
810.025	29086
810.166	29018
810.308	29083
810.45	29041
810.591	28915
810.733	28835
810.875	28752
811.016	28641
811.158	28660
811.299	28740
811.441	28854
811.582	29044
811.724	28748
811.865	28656
812.007	28820
812.148	28736
812.29	28755
812.431	28957
812.573	28938
812.714	29090
812.855	29189
812.997	29284
813.138	29436
813.279	29501
813.421	29231
813.562	29220
813.703	29143
813.845	29037
813.986	28664
814.127	28607
814.268	28421
814.41	28352
814.551	28443
814.692	28436
814.833	28447
814.974	28386
815.115	28451
815.256	28333
815.397	28314
815.539	28284
815.68	28325
815.821	28135
815.962	28093
816.103	28238
816.244	28109
816.385	28112
816.526	27842
816.666	27956
816.807	27637
816.948	27846
817.089	27747
817.23	27930
817.371	27812
817.512	27781
817.653	27766
817.793	27789
817.934	27736
818.075	27739
818.216	27717
818.356	27717
818.497	27614
818.638	27481
818.778	27325
818.919	27542
819.06	27507
819.2	27724
819.341	27728
819.481	27728
819.622	27899
819.762	28162
819.903	28078
820.043	27842
820.184	27926
820.324	27812
820.465	27892
820.605	28067
820.746	27736
820.886	27751
821.026	27743
821.167	27717
821.307	27842
821.447	27705
821.588	27679
821.728	27583
821.868	27393
822.008	27237
822.149	27207
822.289	27237
822.429	26914
822.569	26872
822.709	26834
822.849	26743
822.99	26750
823.13	26678
823.27	26769
823.41	26613
823.55	26488
823.69	26537
823.83	26541
823.97	26469
824.11	26248
824.25	26282
824.389	26355
824.529	26423
824.669	26332
824.809	26404
824.949	26530
825.089	26427
825.228	26393
825.368	26206
825.508	26199
825.648	26282
825.787	26248
825.927	26252
826.067	26298
826.206	26180
826.346	26355
826.485	26248
826.625	26282
826.765	26187
826.904	26161
827.044	26111
827.183	26035
827.323	25944
827.462	26103
827.601	26008
827.741	25955
827.88	26035
828.02	25845
828.159	25944
828.298	25852
828.437	25974
828.577	25860
828.716	26035
828.855	25788
828.994	25670
829.134	25502
829.273	25765
829.412	25578
829.551	25685
829.69	25582
829.829	25590
829.968	25685
830.107	25700
830.246	25666
830.385	25552
830.524	25689
830.663	25518
830.802	25282
830.941	25247
831.08	25304
831.219	25362
831.357	25346
831.496	25510
831.635	25088
831.774	25221
831.913	25126
832.051	25206
832.19	25057
832.329	25061
832.467	25110
832.606	24928
832.744	24932
832.883	24852
833.022	24970
833.16	24894
833.299	25069
833.437	24920
833.576	25031
833.714	24981
833.852	25012
833.991	24954
834.129	25076
834.267	25114
834.406	25004
834.544	25034
834.682	24962
834.821	25091
834.959	25133
835.097	24840
835.235	24890
835.373	24928
835.511	25034
835.65	24932
835.788	24878
835.926	24589
836.064	24669
836.202	24646
836.34	24802
836.478	24867
836.615	24814
836.753	24715
836.891	24840
837.029	24871
837.167	24814
837.305	24776
837.443	24658
837.58	24612
837.718	24734
837.856	24623
837.993	24696
838.131	24642
838.269	24593
838.406	24532
838.544	24418
838.681	24254
838.819	24247
838.956	23977
839.094	24129
839.231	24144
839.369	24224
839.506	24521
839.643	24498
839.781	24136
839.918	24079
840.055	24095
840.193	24053
840.33	24018
840.467	24125
840.604	24026
840.742	24209
840.879	23847
841.016	23931
841.153	23874
841.29	24121
841.427	23965
841.564	24038
841.701	24034
841.838	24015
841.975	23893
842.112	23977
842.249	23843
842.385	23718
842.522	24003
842.659	23870
842.796	23802
842.933	23817
843.069	23722
843.206	23745
843.343	23821
843.479	23729
843.616	23786
843.752	23722
843.889	23547
844.025	23748
844.162	23531
844.298	23615
844.435	23684
844.571	23596
844.708	23672
844.844	23672
844.98	23748
845.117	23714
845.253	23577
845.389	23353
845.525	23471
845.661	23444
845.798	23440
845.934	23467
846.07	23372
846.206	23387
846.342	23353
846.478	23368
846.614	23083
846.75	22942
846.886	22991
847.022	23189
847.158	23037
847.294	23033
847.429	23086
847.565	22980
847.701	23235
847.837	22668
847.972	22733
848.108	22782
848.244	22862
848.379	22588
848.515	22622
848.65	22546
848.786	22672
848.921	22653
849.057	22713
849.192	22733
849.328	22687
849.463	22713
849.598	22516
849.734	22462
849.869	22428
850.004	22436
850.14	22424
850.275	22424
850.41	22303
850.545	22291
850.68	22333
850.815	22519
850.95	22306
851.085	22569
851.22	22447
851.355	22474
851.49	22348
851.625	22363
851.76	22409
851.895	22360
852.03	22257
852.165	22299
852.299	22428
852.434	22390
852.569	22459
852.703	22546
852.838	22500
852.973	22550
853.107	22466
853.242	22276
853.376	22192
853.511	22135
853.645	22135
853.78	22303
853.914	22177
854.048	22131
854.183	22109
854.317	22246
854.451	22478
854.585	22265
854.72	22185
854.854	22188
854.988	22124
855.122	22344
855.256	22074
855.39	22135
855.524	22287
855.658	22299
855.792	22173
855.926	22215
856.06	22150
856.194	22306
856.327	22310
856.461	22188
856.595	22158
856.729	22067
856.862	22344
856.996	22162
857.13	22306
857.263	22257
857.397	22253
857.53	22287
857.664	22242
857.797	22348
857.931	22341
858.064	22223
858.197	22356
858.331	22303
858.464	22215
858.597	22112
858.731	22131
858.864	22101
858.997	22181
859.13	22333
859.263	22249
859.396	22322
859.529	22150
859.662	22268
859.795	22219
859.928	22188
860.061	22363
860.194	22390
860.327	22325
860.46	22158
860.592	22402
860.725	22325
860.858	22238
860.99	22070
861.123	22211
861.256	22124
861.388	22090
861.521	23025
861.653	22139
861.786	21987
861.918	22070
862.05	21983
862.183	22177
862.315	22181
862.447	22185
862.58	22169
862.712	21831
862.844	21937
862.976	21922
863.108	22055
863.24	22371
863.372	21895
863.504	21964
863.636	21797
863.768	21842
863.9	22051
864.032	21835
864.164	21987
864.296	22021
864.428	21987
864.559	21983
864.691	21949
864.823	21911
864.954	21915
865.086	21797
865.217	21793
865.349	21793
865.48	21675
865.612	21797
865.743	22017
865.875	21766
866.006	21850
866.137	21892
866.269	21854
866.4	21892
866.531	21762
866.662	21625
866.793	21705
866.924	21694
867.055	21778
867.186	21778
867.317	21682
867.448	21709
867.579	21682
867.71	21618
867.841	21800
867.972	21789
868.103	21720
868.233	21835
868.364	21747
868.495	21812
868.625	21907
868.756	22044
868.886	21797
869.017	21911
869.147	22090
869.278	22063
869.408	22086
869.539	22040
869.669	22040
869.799	21804
869.929	22032
870.06	21968
870.19	22375
870.32	22234
870.45	22379
870.58	22367
870.71	22485
870.84	22462
870.97	22466
871.1	22341
871.23	22466
871.36	22713
871.489	22497
871.619	22382
871.749	22519
871.879	22653
872.008	22698
872.138	22694
872.267	22565
872.397	22432
872.526	22382
872.656	22481
872.785	22272
872.915	22569
873.044	22660
873.173	22512
873.303	22637
873.432	22717
873.561	22744
873.69	22557
873.819	22660
873.948	22713
874.077	22611
874.206	22599
874.335	22691
874.464	22694
874.593	22774
874.722	22759
874.851	22702
874.979	22816
875.108	22862
875.237	22790
875.365	22729
875.494	22816
875.623	22957
875.751	22774
875.88	22869
876.008	23006
876.136	23018
876.265	23056
876.393	23341
876.521	23220
876.65	23296
876.778	23280
876.906	23223
877.034	23113
877.162	23067
877.29	23041
877.418	23246
877.546	23200
877.674	23155
877.802	23143
877.93	23189
878.058	23025
878.185	23044
878.313	23025
878.441	23121
878.568	22934
878.696	23113
878.824	23231
878.951	23117
879.079	23284
879.206	23497
879.333	23273
879.461	23136
879.588	23250
879.715	23284
879.842	23535
879.97	23277
880.097	23014
880.224	23056
880.351	22999
880.478	23075
880.605	22976
880.732	23056
880.859	23258
880.986	23090
881.112	23010
881.239	22843
881.366	22592
881.493	22519
881.619	22546
881.746	22542
881.872	22512
881.999	22516
882.125	22421
882.252	22694
882.378	22447
882.505	22607
882.631	22375
882.757	22154
882.883	22318
883.01	22188
883.136	22116
883.262	22040
883.388	22032
883.514	22295
883.64	22112
883.766	22223
883.892	21964
884.018	22078
884.143	22093
884.269	22188
884.395	22017
884.52	21816
884.646	21983
884.772	21709
884.897	21823
885.023	21876
885.148	21907
885.274	22029
885.399	21934
885.524	21918
885.65	21895
885.775	21850
885.9	21888
886.025	21934
886.15	21846
886.275	21747
886.4	21884
886.525	21747
886.65	21724
886.775	21831
886.9	21915
887.025	22021
887.149	21819
887.274	21671
887.399	21618
887.523	21671
887.648	21526
887.773	21496
887.897	21667
888.021	21591
888.146	21671
888.27	21637
888.395	21671
888.519	21671
888.643	21599
888.767	21713
888.891	21603
889.015	21439
889.139	21420
889.263	21370
889.387	21519
889.511	21545
889.635	21568
889.759	21538
889.883	21401
890.006	21405
890.13	21564
890.254	21317
890.377	21374
890.501	21146
890.624	21127
890.748	21275
890.871	20971
890.995	20986
891.118	20994
891.241	20960
891.364	20956
891.488	21039
891.611	21051
891.734	20887
891.857	21017
891.98	20941
892.103	21001
892.226	20975
892.349	20952
892.471	20708
892.594	20899
892.717	20807
892.839	20857
892.962	20914
893.085	21013
893.207	20773
893.33	20705
893.452	20765
893.575	20834
893.697	20781
893.819	20880
893.941	21104
894.064	20971
894.186	20883
894.308	20758
894.43	20895
894.552	20883
894.674	20826
894.796	20868
894.918	20887
895.04	20815
895.161	20876
895.283	20910
895.405	20708
895.526	20807
895.648	20842
895.769	20883
895.891	20842
896.012	20986
896.134	20887
896.255	20902
896.376	20876
896.498	20910
896.619	20887
896.74	20785
896.861	20895
896.982	21218
897.103	21275
897.224	21085
897.345	21051
897.466	20971
897.587	21009
897.708	21165
897.828	21150
897.949	20979
898.07	20895
898.19	20979
898.311	21100
898.431	21089
898.552	20929
898.672	21058
898.792	21127
898.913	21154
899.033	20929
899.153	20788
899.273	20891
899.393	20849
899.513	20735
899.633	20781
899.753	20849
899.873	20750
899.993	20727
900.113	20602
900.232	20724
900.352	20720
900.472	20720
900.591	20583
900.711	20492
900.83	20526
900.95	20651
901.069	20602
901.189	20484
901.308	20176
901.427	20065
901.546	20218
901.665	20130
901.784	20100
901.904	20005
902.023	19864
902.141	19818
902.26	19639
902.379	19704
902.498	19719
902.617	19567
902.735	19696
902.854	19575
902.973	19719
903.091	19403
903.21	19335
903.328	19221
903.446	19240
903.565	19034
903.683	19088
903.801	18989
903.919	19050
904.038	18973
904.156	18886
904.274	18901
904.392	18806
904.51	18764
904.627	18859
904.745	19000
904.863	18932
904.981	18753
905.098	18547
905.216	18620
905.334	18547
905.451	18513
905.569	18384
905.686	18437
905.803	18551
905.921	18384
906.038	18441
906.155	18300
906.272	18228
906.389	18209
906.506	17965
906.623	17950
906.74	18019
906.857	17950
906.974	17939
907.091	18129
907.208	18262
907.324	18114
907.441	17916
907.557	17813
907.674	17752
907.79	17672
907.907	17828
908.023	17783
908.139	17745
908.256	17779
908.372	17581
908.488	17520
908.604	17558
908.72	17391
908.836	17566
908.952	17417
909.068	17501
909.184	17657
909.3	17379
909.415	17566
909.531	17326
909.647	17105
909.762	17166
909.878	17109
909.993	17242
910.108	17204
910.224	17181
910.339	17109
910.454	17029
910.57	16961
910.685	16801
910.8	17094
910.915	17223
911.03	16850
911.145	16774
911.259	16691
911.374	16774
911.489	16580
911.604	16694
911.718	16508
911.833	16485
911.947	16386
912.062	16402
912.176	16531
912.291	16489
912.405	16504
912.519	16653
912.633	16573
912.748	16527
912.862	16428
912.976	16341
913.09	16226
913.204	16291
913.318	16348
913.431	16413
913.545	16405
913.659	16352
913.772	16158
913.886	16078
914	15975
914.113	16147
914.226	16230
914.34	16131
914.453	16010
914.566	16112
914.68	16040
914.793	15888
914.906	15656
915.019	15682
915.132	15682
915.245	15660
915.358	15774
915.47	15637
915.583	15713
915.696	15671
915.809	15747
915.921	15789
916.034	15599
916.146	15564
916.259	15622
916.371	15606
916.483	15606
916.595	15523
916.708	15473
916.82	15568
916.932	15469
917.044	15504
917.156	15374
917.268	15291
917.38	15325
917.491	15367
917.603	15287
917.715	15401
917.826	15424
917.938	15112
918.049	15195
918.161	15294
918.272	15370
918.384	15389
918.495	15264
918.606	15085
918.717	14998
918.828	15154
918.939	15089
919.05	14986
919.161	14975
919.272	14861
919.383	14918
919.494	15036
919.604	15184
919.715	15093
919.826	14948
919.936	14941
920.047	15005
920.157	14960
920.267	15233
920.378	14986
920.488	15074
920.598	15199
920.708	15306
920.818	15108
920.928	15108
921.038	15256
921.148	15211
921.258	15036
921.368	14853
921.477	14762
921.587	14739
921.697	14537
921.806	14769
921.916	14590
922.025	14396
922.134	14366
922.244	14355
922.353	14412
922.462	14210
922.571	14282
922.68	14008
922.789	13989
922.898	14039
923.007	13921
923.116	14100
923.224	13932
923.333	13978
923.442	13822
923.55	13898
923.659	13928
923.767	13860
923.876	13761
923.984	13822
924.092	13803
924.201	13738
924.309	13757
924.417	13791
924.525	13647
924.633	13670
924.741	14636
924.849	13445
924.956	13594
925.064	13483
925.172	13411
925.279	13331
925.387	13392
925.494	13422
925.602	13559
925.709	13457
925.816	13316
925.924	13430
926.031	13476
926.138	13377
926.245	13422
926.352	13350
926.459	13388
926.566	13327
926.673	13365
926.779	13236
926.886	13122
926.993	13012
927.099	12958
927.206	12954
927.312	12951
927.419	12958
927.525	12939
927.631	13000
927.737	12798
927.843	12859
927.95	12646
928.056	12821
928.162	12772
928.267	12821
928.373	13403
928.479	12882
928.585	12589
928.69	12730
928.796	12787
928.901	12589
929.007	12483
929.112	12684
929.218	12566
929.323	12475
929.428	12506
929.533	12612
929.638	12448
929.743	12452
929.848	12532
929.953	12422
930.058	12315
930.163	12186
930.267	12182
930.372	12273
930.477	12053
930.581	12323
930.685	12201
930.79	12030
930.894	11999
930.998	12041
931.103	12155
931.207	11817
931.311	11764
931.415	11596
931.519	11467
931.623	11478
