Data from test_V78500241_1794.txt Node
Date: Fri Mar 25 15:54:13 CST 2022
User: usil
Spectrometer: V785-0024
Trigger mode: 0
Integration Time (sec): 4.000000E-1
Scans to average: 1
Nonlinearity correction enabled: false
Boxcar width: 0
Storing dark spectrum: false
XAxis mode: Wavelengths
Number of Pixels in Spectrum: 1024
>>>>>Begin Spectral Data<<<<<
801.071	28367
801.214	28143
801.356	28029
801.499	28017
801.641	27953
801.783	27880
801.926	27941
802.068	27793
802.211	27861
802.353	27797
802.496	27686
802.638	27606
802.78	27705
802.923	27538
803.065	27450
803.208	27633
803.35	27466
803.492	27804
803.635	27785
803.777	27595
803.919	27732
804.061	28074
804.204	27759
804.346	27747
804.488	27724
804.63	27819
804.773	27648
804.915	27968
805.057	27873
805.199	27789
805.341	27835
805.483	28109
805.626	28055
805.768	27720
805.91	28070
806.052	27987
806.194	27747
806.336	28090
806.478	27972
806.62	27846
806.762	28051
806.904	28177
807.046	28500
807.188	28432
807.33	28390
807.472	28382
807.614	28344
807.756	28280
807.898	28090
808.04	28215
808.182	28234
808.324	28322
808.465	28341
808.607	28440
808.749	28691
808.891	28755
809.033	28877
809.174	28740
809.316	28584
809.458	28615
809.6	28535
809.741	28767
809.883	28911
810.025	28896
810.166	28904
810.308	28847
810.45	28892
810.591	28786
810.733	28538
810.875	28702
811.016	28466
811.158	28413
811.299	28660
811.441	28812
811.582	28683
811.724	28470
811.865	28546
812.007	28622
812.148	28748
812.29	28550
812.431	28869
812.573	28862
812.714	29075
812.855	29117
812.997	29258
813.138	29349
813.279	29227
813.421	29258
813.562	29090
813.703	28854
813.845	28919
813.986	28561
814.127	28344
814.268	28356
814.41	28306
814.551	28257
814.692	28497
814.833	28192
814.974	28303
815.115	28188
815.256	28310
815.397	28333
815.539	28253
815.68	28025
815.821	27934
815.962	28158
816.103	28051
816.244	27922
816.385	27922
816.526	27827
816.666	27553
816.807	27424
816.948	27667
817.089	27747
817.23	27660
817.371	27622
817.512	27591
817.653	27553
817.793	27485
817.934	27580
818.075	27599
818.216	27572
818.356	27580
818.497	27507
818.638	27374
818.778	27367
818.919	27405
819.06	27321
819.2	27397
819.341	27549
819.481	27667
819.622	27888
819.762	27907
819.903	27728
820.043	27629
820.184	27747
820.324	27667
820.465	27838
820.605	27778
820.746	27694
820.886	27644
821.026	27671
821.167	27648
821.307	27755
821.447	27587
821.588	27587
821.728	27370
821.868	27355
822.008	27138
822.149	27123
822.289	27218
822.429	26849
822.569	26689
822.709	26689
822.849	26564
822.99	26667
823.13	26560
823.27	26480
823.41	26488
823.55	26328
823.69	26473
823.83	26431
823.97	26412
824.11	26233
824.25	26248
824.389	26252
824.529	26381
824.669	26237
824.809	26317
824.949	26415
825.089	26358
825.228	26256
825.368	26115
825.508	26107
825.648	26065
825.787	26130
825.927	26206
826.067	26103
826.206	26065
826.346	26187
826.485	26191
826.625	26115
826.765	26107
826.904	26100
827.044	25742
827.183	25753
827.323	25837
827.462	25944
827.601	25864
827.741	25738
827.88	25868
828.02	25784
828.159	25776
828.298	25826
828.437	25944
828.577	25662
828.716	25966
828.855	25651
828.994	25510
829.134	25609
829.273	25582
829.412	25499
829.551	25510
829.69	25601
829.829	25571
829.968	25674
830.107	25502
830.246	25601
830.385	25544
830.524	25339
830.663	25441
830.802	25209
830.941	25114
831.08	25110
831.219	25179
831.357	25331
831.496	25362
831.635	25190
831.774	24928
831.913	24989
832.051	24970
832.19	24985
832.329	25046
832.467	24635
832.606	24886
832.744	24806
832.883	24749
833.022	24776
833.16	24760
833.299	24726
833.437	24962
833.576	24867
833.714	24897
833.852	24935
833.991	24954
834.129	24878
834.267	24848
834.406	24928
834.544	24951
834.682	24795
834.821	24734
834.959	25091
835.097	24673
835.235	24901
835.373	24882
835.511	24715
835.65	24673
835.788	24631
835.926	24505
836.064	24471
836.202	24540
836.34	24669
836.478	24821
836.615	24722
836.753	24681
836.891	24837
837.029	24764
837.167	24741
837.305	24677
837.443	24669
837.58	24528
837.718	24620
837.856	24585
837.993	24429
838.131	24429
838.269	24353
838.406	24490
838.544	24357
838.681	24140
838.819	24194
838.956	24030
839.094	24034
839.231	23996
839.369	24262
839.506	24388
839.643	24209
839.781	23935
839.918	23965
840.055	24007
840.193	23939
840.33	23824
840.467	23855
840.604	23984
840.742	24182
840.879	23874
841.016	23821
841.153	23786
841.29	23965
841.427	23836
841.564	23866
841.701	23882
841.838	23809
841.975	23828
842.112	23756
842.249	23802
842.385	23566
842.522	23828
842.659	23657
842.796	23665
842.933	23707
843.069	23543
843.206	23577
843.343	23729
843.479	23661
843.616	23657
843.752	23463
843.889	23516
844.025	23528
844.162	23463
844.298	23505
844.435	23440
844.571	23349
844.708	23387
844.844	23490
844.98	23600
845.117	23528
845.253	23311
845.389	23269
845.525	23318
845.661	23284
845.798	23162
845.934	23200
846.07	23204
846.206	23189
846.342	23425
846.478	23098
846.614	22927
846.75	22908
846.886	22881
847.022	22885
847.158	22896
847.294	22938
847.429	22828
847.565	22889
847.701	23143
847.837	22679
847.972	22462
848.108	22637
848.244	22660
848.379	22451
848.515	22462
848.65	22436
848.786	22516
848.921	22405
849.057	22641
849.192	22634
849.328	22485
849.463	22565
849.598	22424
849.734	22280
849.869	22371
850.004	22192
850.14	22291
850.275	22409
850.41	22112
850.545	21998
850.68	22211
850.815	22322
850.95	22185
851.085	22375
851.22	22284
851.355	22303
851.49	22173
851.625	22280
851.76	22211
851.895	22143
852.03	22112
852.165	22166
852.299	22207
852.434	22181
852.569	22295
852.703	22177
852.838	22413
852.973	22462
853.107	22261
853.242	22253
853.376	22010
853.511	21846
853.645	21964
853.78	22139
853.914	22059
854.048	22124
854.183	22112
854.317	22074
854.451	22234
854.585	22021
854.72	21975
854.854	22090
854.988	22074
855.122	21964
855.256	21895
855.39	22169
855.524	22006
855.658	22116
855.792	22112
855.926	22139
856.06	22074
856.194	22154
856.327	21987
856.461	21903
856.595	21972
856.729	22086
856.862	22078
856.996	21998
857.13	22044
857.263	22226
857.397	22086
857.53	22002
857.664	22086
857.797	22101
857.931	22284
858.064	22051
858.197	22135
858.331	22063
858.464	22006
858.597	21895
858.731	22032
858.864	21930
858.997	22006
859.13	22032
859.263	22048
859.396	22036
859.529	22013
859.662	22086
859.795	22010
859.928	22093
860.061	22169
860.194	22363
860.327	22188
860.46	21941
860.592	22207
860.725	22249
860.858	22200
860.99	22070
861.123	21956
861.256	22036
861.388	21968
861.521	22809
861.653	21869
861.786	21762
861.918	21911
862.05	21922
862.183	21953
862.315	22025
862.447	22040
862.58	22112
862.712	21884
862.844	21720
862.976	21869
863.108	21774
863.24	22124
863.372	21751
863.504	21759
863.636	21812
863.768	21854
863.9	21899
864.032	21686
864.164	21827
864.296	21812
864.428	21838
864.559	21774
864.691	21869
864.823	21720
864.954	21656
865.086	21690
865.217	21762
865.349	21656
865.48	21625
865.612	21705
865.743	21759
865.875	21724
866.006	21660
866.137	21660
866.269	21713
866.4	21591
866.531	21557
866.662	21572
866.793	21515
866.924	21504
867.055	21614
867.186	21667
867.317	21538
867.448	21344
867.579	21561
867.71	21447
867.841	21564
867.972	21603
868.103	21614
868.233	21534
868.364	21553
868.495	21793
868.625	21766
868.756	21838
868.886	21739
869.017	21739
869.147	21918
869.278	21884
869.408	21873
869.539	21819
869.669	21899
869.799	21892
869.929	21922
870.06	21956
870.19	22070
870.32	22067
870.45	22139
870.58	22131
870.71	22246
870.84	22238
870.97	22318
871.1	22299
871.23	22402
871.36	22417
871.489	22246
871.619	22417
871.749	22322
871.879	22360
872.008	22436
872.138	22382
872.267	22432
872.397	22253
872.526	22135
872.656	22200
872.785	22303
872.915	22402
873.044	22554
873.173	22363
873.303	22417
873.432	22519
873.561	22474
873.69	22360
873.819	22322
873.948	22637
874.077	22386
874.206	22405
874.335	22447
874.464	22577
874.593	22812
874.722	22641
874.851	22573
874.979	22710
875.108	22683
875.237	22599
875.365	22527
875.494	22569
875.623	22645
875.751	22607
875.88	22626
876.008	22858
876.136	22949
876.265	22999
876.393	23227
876.521	23060
876.65	23208
876.778	23048
876.906	22980
877.034	22923
877.162	22991
877.29	22923
877.418	23033
877.546	23113
877.674	23037
877.802	23006
877.93	22957
878.058	23056
878.185	22919
878.313	22957
878.441	22953
878.568	22877
878.696	22862
878.824	23060
878.951	23083
879.079	23296
879.206	23189
879.333	23216
879.461	23010
879.588	23090
879.715	23033
879.842	23239
879.97	23060
880.097	22759
880.224	22809
880.351	22896
880.478	22828
880.605	22801
880.732	22793
880.859	23067
880.986	22759
881.112	22873
881.239	22710
881.366	22584
881.493	22462
881.619	22333
881.746	22386
881.872	22367
881.999	22280
882.125	22402
882.252	22375
882.378	22402
882.505	22390
882.631	22207
882.757	22105
882.883	21968
883.01	22070
883.136	22025
883.262	21949
883.388	21800
883.514	22086
883.64	22010
883.766	21911
883.892	21641
884.018	21800
884.143	21930
884.269	22055
884.395	21747
884.52	21648
884.646	21739
884.772	21652
884.897	21599
885.023	21789
885.148	21743
885.274	21774
885.399	21778
885.524	21614
885.65	21694
885.775	21682
885.9	21671
886.025	21682
886.15	21755
886.275	21667
886.4	21698
886.525	21542
886.65	21504
886.775	21576
886.9	21755
887.025	21808
887.149	21663
887.274	21496
887.399	21473
887.523	21488
887.648	21488
887.773	21428
887.897	21473
888.021	21561
888.146	21321
888.27	21466
888.395	21610
888.519	21511
888.643	21557
888.767	21545
888.891	21389
889.015	21222
889.139	21359
889.263	21142
889.387	21382
889.511	21530
889.635	21401
889.759	21195
889.883	21230
890.006	21401
890.13	21329
890.254	21070
890.377	21096
890.501	20994
890.624	20963
890.748	21017
890.871	20883
890.995	20731
891.118	20765
891.241	20864
891.364	20830
891.488	20819
891.611	20918
891.734	20815
891.857	20868
891.98	20872
892.103	20876
892.226	20849
892.349	20701
892.471	20636
892.594	20781
892.717	20746
892.839	20735
892.962	20705
893.085	20758
893.207	20697
893.33	20598
893.452	20636
893.575	20773
893.697	20743
893.819	20834
893.941	20967
894.064	20819
894.186	20598
894.308	20686
894.43	20762
894.552	20796
894.674	20762
894.796	20526
894.918	20769
895.04	20556
895.161	20697
895.283	20648
895.405	20522
895.526	20636
895.648	20701
895.769	20754
895.891	20716
896.012	20800
896.134	20716
896.255	20686
896.376	20792
896.498	20617
896.619	20739
896.74	20750
896.861	20788
896.982	21062
897.103	21195
897.224	20979
897.345	20918
897.466	20807
897.587	20868
897.708	21127
897.828	20921
897.949	20823
898.07	20804
898.19	20777
898.311	21051
898.431	20830
898.552	20918
898.672	20979
898.792	21051
898.913	20781
899.033	20891
899.153	20743
899.273	20579
899.393	20617
899.513	20739
899.633	20663
899.753	20621
899.873	20583
899.993	20621
900.113	20480
900.232	20663
900.352	20609
900.472	20431
900.591	20377
900.711	20488
900.83	20313
900.95	20370
901.069	20415
901.189	20195
901.308	20119
901.427	19970
901.546	19940
901.665	20065
901.784	20016
901.904	19826
902.023	19776
902.141	19658
902.26	19388
902.379	19563
902.498	19521
902.617	19373
902.735	19567
902.854	19434
902.973	19377
903.091	19209
903.21	19110
903.328	19206
903.446	19103
903.565	18932
903.683	18935
903.801	18882
903.919	18833
904.038	18951
904.156	18772
904.274	18768
904.392	18734
904.51	18749
904.627	18589
904.745	18745
904.863	18772
904.981	18570
905.098	18399
905.216	18369
905.334	18361
905.451	18391
905.569	18422
905.686	18289
905.803	18289
905.921	18136
906.038	18235
906.155	18209
906.272	18068
906.389	18049
906.506	17885
906.623	17851
906.74	17977
906.857	17786
906.974	17870
907.091	17916
907.208	17973
907.324	17923
907.441	17843
907.557	17699
907.674	17691
907.79	17573
907.907	17581
908.023	17665
908.139	17543
908.256	17573
908.372	17512
908.488	17463
908.604	17269
908.72	17421
908.836	17364
908.952	17341
909.068	17322
909.184	17360
909.3	17292
909.415	17406
909.531	17330
909.647	17045
909.762	17124
909.878	16976
909.993	17064
910.108	16946
910.224	16889
910.339	17086
910.454	16824
910.57	16778
910.685	16752
910.8	16991
910.915	17006
911.03	16767
911.145	16717
911.259	16706
911.374	16592
911.489	16607
911.604	16474
911.718	16443
911.833	16417
911.947	16207
912.062	16112
912.176	16348
912.291	16398
912.405	16352
912.519	16512
912.633	16531
912.748	16405
912.862	16306
912.976	16128
913.09	16029
913.204	16169
913.318	16135
913.431	16238
913.545	16173
913.659	16177
913.772	16044
913.886	15991
914	15968
914.113	16032
914.226	16044
914.34	16063
914.453	15884
914.566	15964
914.68	15835
914.793	15808
914.906	15682
915.019	15629
915.132	15549
915.245	15625
915.358	15572
915.47	15462
915.583	15564
915.696	15504
915.809	15610
915.921	15743
916.034	15523
916.146	15443
916.259	15389
916.371	15644
916.483	15496
916.595	15325
916.708	15416
916.82	15329
916.932	15397
917.044	15252
917.156	15336
917.268	15161
917.38	15184
917.491	15211
917.603	15218
917.715	15294
917.826	15249
917.938	15146
918.049	15104
918.161	15131
918.272	15184
918.384	15272
918.495	15051
918.606	15070
918.717	14967
918.828	15028
918.939	15077
919.05	14849
919.161	14929
919.272	14807
919.383	14883
919.494	15081
919.604	15127
919.715	15013
919.826	14735
919.936	15005
920.047	15112
920.157	15009
920.267	15169
920.378	14994
920.488	14895
920.598	15070
920.708	15306
920.818	15062
920.928	15024
921.038	15199
921.148	15131
921.258	14830
921.368	14880
921.477	14731
921.587	14556
921.697	14511
921.806	14689
921.916	14560
922.025	14434
922.134	14339
922.244	14206
922.353	14332
922.462	14210
922.571	14107
922.68	14046
922.789	13978
922.898	14031
923.007	13833
923.116	14024
923.224	13978
923.333	13894
923.442	13769
923.55	13788
923.659	13753
923.767	13803
923.876	13723
923.984	13769
924.092	13696
924.201	13776
924.309	13597
924.417	13765
924.525	13605
924.633	13636
924.741	14370
924.849	13438
924.956	13620
925.064	13381
925.172	13209
925.279	13343
925.387	13407
925.494	13346
925.602	13358
925.709	13339
925.816	13141
925.924	13270
926.031	13403
926.138	13301
926.245	13335
926.352	13152
926.459	13327
926.566	13316
926.673	13187
926.779	13156
926.886	13027
926.993	12962
927.099	12951
927.206	12867
927.312	12787
927.419	12958
927.525	12905
927.631	12890
927.737	12730
927.843	12715
927.95	12585
928.056	12745
928.162	12757
928.267	12795
928.373	13407
928.479	12749
928.585	12536
928.69	12635
928.796	12585
928.901	12604
929.007	12399
929.112	12536
929.218	12517
929.323	12441
929.428	12483
929.533	12585
929.638	12403
929.743	12334
929.848	12403
929.953	12365
930.058	12300
930.163	12053
930.267	12125
930.372	12281
930.477	12026
930.581	12372
930.685	12175
930.79	11988
930.894	11977
930.998	12019
931.103	12144
931.207	11714
931.311	11726
931.415	11611
931.519	11421
931.623	11318
