Data from test_V78500241_1919.txt Node
Date: Fri Mar 25 15:55:05 CST 2022
User: usil
Spectrometer: V785-0024
Trigger mode: 0
Integration Time (sec): 4.000000E-1
Scans to average: 1
Nonlinearity correction enabled: false
Boxcar width: 0
Storing dark spectrum: false
XAxis mode: Wavelengths
Number of Pixels in Spectrum: 1024
>>>>>Begin Spectral Data<<<<<
801.071	28675
801.214	28542
801.356	28363
801.499	28348
801.641	28135
801.783	28116
801.926	28109
802.068	28185
802.211	28162
802.353	28032
802.496	27983
802.638	27892
802.78	27759
802.923	27762
803.065	27816
803.208	27827
803.35	27880
803.492	28139
803.635	28082
803.777	27956
803.919	28143
804.061	28375
804.204	28234
804.346	28246
804.488	27945
804.63	28097
804.773	28074
804.915	28219
805.057	28371
805.199	28067
805.341	28074
805.483	28367
805.626	28314
805.768	28234
805.91	28173
806.052	28211
806.194	28246
806.336	28478
806.478	28348
806.62	28303
806.762	28500
806.904	28653
807.046	28854
807.188	28607
807.33	28885
807.472	28896
807.614	28626
807.756	28733
807.898	28573
808.04	28394
808.182	28660
808.324	28618
808.465	28698
808.607	28904
808.749	29033
808.891	29064
809.033	29128
809.174	29113
809.316	28847
809.458	29079
809.6	28995
809.741	29109
809.883	29147
810.025	29258
810.166	29231
810.308	29220
810.45	29185
810.591	29200
810.733	29094
810.875	28942
811.016	28843
811.158	28809
811.299	28984
811.441	29124
811.582	29037
811.724	28965
811.865	29033
812.007	28923
812.148	29090
812.29	28938
812.431	29128
812.573	29334
812.714	29265
812.855	29585
812.997	29600
813.138	29718
813.279	29676
813.421	29486
813.562	29429
813.703	29330
813.845	29360
813.986	28991
814.127	28717
814.268	28672
814.41	28668
814.551	28694
814.692	28713
814.833	28626
814.974	28797
815.115	28656
815.256	28440
815.397	28599
815.539	28565
815.68	28478
815.821	28375
815.962	28573
816.103	28531
816.244	28363
816.385	28344
816.526	28166
816.666	28025
816.807	28063
816.948	28090
817.089	28093
817.23	28010
817.371	28090
817.512	27975
817.653	27922
817.793	28029
817.934	27994
818.075	27941
818.216	28078
818.356	27934
818.497	27865
818.638	27694
818.778	27850
818.919	27960
819.06	27808
819.2	27994
819.341	27964
819.481	27888
819.622	28128
819.762	28329
819.903	28257
820.043	28078
820.184	28139
820.324	28048
820.465	28196
820.605	28093
820.746	28147
820.886	27880
821.026	28070
821.167	27987
821.307	28093
821.447	28059
821.588	28010
821.728	27770
821.868	27679
822.008	27405
822.149	27485
822.289	27405
822.429	27173
822.569	26998
822.709	27291
822.849	27039
822.99	27085
823.13	26883
823.27	26998
823.41	26834
823.55	26712
823.69	26796
823.83	26773
823.97	26693
824.11	26636
824.25	26693
824.389	26537
824.529	26708
824.669	26571
824.809	26769
824.949	26670
825.089	26819
825.228	26731
825.368	26564
825.508	26560
825.648	26564
825.787	26568
825.927	26530
826.067	26377
826.206	26526
826.346	26431
826.485	26556
826.625	26568
826.765	26533
826.904	26415
827.044	26396
827.183	26305
827.323	26199
827.462	26370
827.601	26282
827.741	26210
827.88	26256
828.02	26107
828.159	26084
828.298	26195
828.437	26233
828.577	26134
828.716	26328
828.855	26058
828.994	26046
829.134	25883
829.273	25970
829.412	26020
829.551	25784
829.69	25868
829.829	25974
829.968	26043
830.107	26043
830.246	25997
830.385	25803
830.524	25849
830.663	25887
830.802	25628
830.941	25506
831.08	25426
831.219	25575
831.357	25537
831.496	25791
831.635	25400
831.774	25392
831.913	25358
832.051	25343
832.19	25362
832.329	25358
832.467	25126
832.606	25308
832.744	25187
832.883	25103
833.022	25198
833.16	25236
833.299	25107
833.437	25251
833.576	25293
833.714	25304
833.852	25403
833.991	25171
834.129	25228
834.267	25358
834.406	25247
834.544	25362
834.682	25225
834.821	25365
834.959	25457
835.097	25179
835.235	25274
835.373	25145
835.511	25194
835.65	25145
835.788	25061
835.926	24996
836.064	25000
836.202	24867
836.34	24996
836.478	25148
836.615	24985
836.753	24989
836.891	25152
837.029	25118
837.167	25133
837.305	25061
837.443	24928
837.58	24878
837.718	25000
837.856	24833
837.993	24768
838.131	25152
838.269	24741
838.406	24703
838.544	24692
838.681	24604
838.819	24639
838.956	24209
839.094	24414
839.231	24433
839.369	24547
839.506	24722
839.643	24719
839.781	24315
839.918	24270
840.055	24407
840.193	24201
840.33	24266
840.467	24327
840.604	24353
840.742	24521
840.879	24072
841.016	24205
841.153	24247
841.29	24365
841.427	24197
841.564	24224
841.701	24235
841.838	24171
841.975	24201
842.112	24148
842.249	24121
842.385	24072
842.522	24186
842.659	24186
842.796	24026
842.933	24018
843.069	23870
843.206	23931
843.343	24125
843.479	23904
843.616	24087
843.752	23821
843.889	23798
844.025	23920
844.162	23832
844.298	23878
844.435	23851
844.571	23847
844.708	23874
844.844	23878
844.98	23904
845.117	23878
845.253	23733
845.389	23649
845.525	23748
845.661	23589
845.798	23619
845.934	23509
846.07	23589
846.206	23630
846.342	23524
846.478	23410
846.614	23258
846.75	23200
846.886	23318
847.022	23311
847.158	23345
847.294	23242
847.429	23216
847.565	23277
847.701	23554
847.837	22850
847.972	22934
848.108	23102
848.244	23014
848.379	22953
848.515	22812
848.65	22820
848.786	22873
848.921	22759
849.057	22908
849.192	23033
849.328	22961
849.463	22866
849.598	22744
849.734	22717
849.869	22710
850.004	22573
850.14	22523
850.275	22679
850.41	22565
850.545	22656
850.68	22607
850.815	22596
850.95	22535
851.085	22656
851.22	22736
851.355	22603
851.49	22592
851.625	22641
851.76	22596
851.895	22455
852.03	22466
852.165	22622
852.299	22493
852.434	22645
852.569	22645
852.703	22698
852.838	22611
852.973	22752
853.107	22717
853.242	22542
853.376	22443
853.511	22363
853.645	22299
853.78	22382
853.914	22455
854.048	22268
854.183	22436
854.317	22508
854.451	22653
854.585	22375
854.72	22436
854.854	22455
854.988	22223
855.122	22363
855.256	22367
855.39	22386
855.524	22573
855.658	22519
855.792	22398
855.926	22443
856.06	22417
856.194	22546
856.327	22405
856.461	22341
856.595	22394
856.729	22341
856.862	22462
856.996	22470
857.13	22489
857.263	22512
857.397	22402
857.53	22413
857.664	22455
857.797	22417
857.931	22561
858.064	22428
858.197	22512
858.331	22424
858.464	22394
858.597	22230
858.731	22500
858.864	22421
858.997	22405
859.13	22398
859.263	22550
859.396	22531
859.529	22561
859.662	22436
859.795	22386
859.928	22508
860.061	22618
860.194	22561
860.327	22577
860.46	22386
860.592	22554
860.725	22672
860.858	22478
860.99	22398
861.123	22428
861.256	22417
861.388	22428
861.521	23227
861.653	22242
861.786	22128
861.918	22177
862.05	22360
862.183	22424
862.315	22344
862.447	22314
862.58	22344
862.712	22082
862.844	22135
862.976	22322
863.108	22223
863.24	22607
863.372	22124
863.504	22021
863.636	22128
863.768	22067
863.9	22200
864.032	21998
864.164	21987
864.296	22150
864.428	22188
864.559	22128
864.691	22154
864.823	22139
864.954	22090
865.086	22074
865.217	22006
865.349	21968
865.48	22067
865.612	21983
865.743	22097
865.875	22063
866.006	21857
866.137	22029
866.269	21998
866.4	22021
866.531	21873
866.662	21922
866.793	21941
866.924	21934
867.055	21987
867.186	21876
867.317	21956
867.448	21770
867.579	21911
867.71	21903
867.841	21774
867.972	21953
868.103	21960
868.233	21857
868.364	21960
868.495	22036
868.625	22188
868.756	22379
868.886	22166
869.017	22116
869.147	22207
869.278	22272
869.408	22226
869.539	22261
869.669	22215
869.799	22238
869.929	22177
870.06	22325
870.19	22500
870.32	22436
870.45	22550
870.58	22523
870.71	22736
870.84	22607
870.97	22508
871.1	22554
871.23	22748
871.36	22828
871.489	22713
871.619	22607
871.749	22885
871.879	22755
872.008	22843
872.138	22820
872.267	22774
872.397	22656
872.526	22538
872.656	22508
872.785	22691
872.915	22820
873.044	22915
873.173	22850
873.303	22694
873.432	22778
873.561	22854
873.69	22774
873.819	22793
873.948	22900
874.077	22820
874.206	22554
874.335	22812
874.464	22854
874.593	22938
874.722	23022
874.851	23113
874.979	22984
875.108	23033
875.237	22889
875.365	22915
875.494	22946
875.623	22946
875.751	22923
875.88	23025
876.008	23136
876.136	23212
876.265	23379
876.393	23520
876.521	23433
876.65	23463
876.778	23387
876.906	23345
877.034	23315
877.162	23292
877.29	23311
877.418	23410
877.546	23356
877.674	23425
877.802	23417
877.93	23292
878.058	23284
878.185	23223
878.313	23318
878.441	23356
878.568	23159
878.696	23372
878.824	23364
878.951	23383
879.079	23463
879.206	23566
879.333	23516
879.461	23376
879.588	23497
879.715	23554
879.842	23566
879.97	23383
880.097	23246
880.224	23212
880.351	23208
880.478	23185
880.605	23109
880.732	23140
880.859	23436
880.986	23083
881.112	23147
881.239	22957
881.366	22866
881.493	22793
881.619	22771
881.746	22630
881.872	22771
881.999	22694
882.125	22698
882.252	22748
882.378	22634
882.505	22736
882.631	22508
882.757	22352
882.883	22531
883.01	22519
883.136	22344
883.262	22150
883.388	22223
883.514	22451
883.64	22474
883.766	22188
883.892	22200
884.018	22120
884.143	22314
884.269	22371
884.395	22070
884.52	21991
884.646	22074
884.772	22021
884.897	21998
885.023	22063
885.148	22128
885.274	22147
885.399	22093
885.524	22086
885.65	22173
885.775	22025
885.9	21983
886.025	22207
886.15	22090
886.275	21945
886.4	21964
886.525	21876
886.65	21987
886.775	21854
886.9	22112
887.025	22249
887.149	21964
887.274	21812
887.399	21766
887.523	21774
887.648	21766
887.773	21759
887.897	21907
888.021	21751
888.146	21720
888.27	21953
888.395	21800
888.519	21827
888.643	21865
888.767	21899
888.891	21724
889.015	21553
889.139	21694
889.263	21595
889.387	21686
889.511	21690
889.635	21682
889.759	21466
889.883	21587
890.006	21618
890.13	21751
890.254	21515
890.377	21538
890.501	21405
890.624	21298
890.748	21408
890.871	21188
890.995	21081
891.118	21119
891.241	21249
891.364	21100
891.488	21298
891.611	21165
891.734	21142
891.857	21287
891.98	21207
892.103	21131
892.226	21180
892.349	21112
892.471	21001
892.594	20921
892.717	20982
892.839	21055
892.962	21062
893.085	21169
893.207	21123
893.33	20849
893.452	20887
893.575	21096
893.697	21074
893.819	21180
893.941	21195
894.064	21157
894.186	20883
894.308	20929
894.43	21047
894.552	21169
894.674	21005
894.796	20781
894.918	21005
895.04	20948
895.161	20990
895.283	21028
895.405	20956
895.526	20883
895.648	20975
895.769	21058
895.891	21112
896.012	21066
896.134	20975
896.255	20933
896.376	20944
896.498	21108
896.619	20910
896.74	21066
896.861	21051
896.982	21294
897.103	21382
897.224	21154
897.345	21169
897.466	21131
897.587	21096
897.708	21310
897.828	21279
897.949	21199
898.07	20998
898.19	21047
898.311	21336
898.431	21287
898.552	21161
898.672	21260
898.792	21237
898.913	21188
899.033	21047
899.153	20979
899.273	20861
899.393	20887
899.513	21081
899.633	20906
899.753	20921
899.873	20845
899.993	20971
900.113	20853
900.232	20842
900.352	20845
900.472	20663
900.591	20632
900.711	20735
900.83	20590
900.95	20792
901.069	20777
901.189	20579
901.308	20370
901.427	20286
901.546	20301
901.665	20278
901.784	20248
901.904	20103
902.023	20069
902.141	19864
902.26	19845
902.379	19944
902.498	19624
902.617	19719
902.735	19883
902.854	19658
902.973	19719
903.091	19369
903.21	19537
903.328	19392
903.446	19289
903.565	19304
903.683	19209
903.801	19187
903.919	19171
904.038	19213
904.156	19012
904.274	19095
904.392	19053
904.51	18939
904.627	18996
904.745	19065
904.863	19012
904.981	18745
905.098	18616
905.216	18635
905.334	18757
905.451	18650
905.569	18612
905.686	18612
905.803	18757
905.921	18506
906.038	18532
906.155	18513
906.272	18399
906.389	18277
906.506	18133
906.623	18251
906.74	18171
906.857	17992
906.974	18091
907.091	18205
907.208	18308
907.324	18289
907.441	18140
907.557	17927
907.674	17950
907.79	17882
907.907	17783
908.023	17855
908.139	17999
908.256	17843
908.372	17885
908.488	17775
908.604	17573
908.72	17577
908.836	17554
908.952	17627
909.068	17653
909.184	17718
909.3	17539
909.415	17596
909.531	17623
909.647	17341
909.762	17303
909.878	17200
909.993	17265
910.108	17284
910.224	17208
910.339	17273
910.454	17185
910.57	17166
910.685	17033
910.8	17326
910.915	17265
911.03	17075
911.145	16869
911.259	16919
911.374	16892
911.489	16774
911.604	16782
911.718	16508
911.833	16641
911.947	16569
912.062	16500
912.176	16626
912.291	16637
912.405	16577
912.519	16934
912.633	16786
912.748	16645
912.862	16603
912.976	16424
913.09	16356
913.204	16390
913.318	16447
913.431	16653
913.545	16519
913.659	16531
913.772	16462
913.886	16291
914	16166
914.113	16382
914.226	16306
914.34	16265
914.453	16105
914.566	16356
914.68	16071
914.793	16002
914.906	15926
915.019	15800
915.132	15911
915.245	15869
915.358	15827
915.47	15892
915.583	15865
915.696	15861
915.809	15880
915.921	15945
916.034	15762
916.146	15766
916.259	15705
916.371	15808
916.483	15755
916.595	15584
916.708	15629
916.82	15530
916.932	15622
917.044	15717
917.156	15519
917.268	15530
917.38	15428
917.491	15355
917.603	15428
917.715	15603
917.826	15458
917.938	15378
918.049	15287
918.161	15428
918.272	15542
918.384	15462
918.495	15344
918.606	15146
918.717	15081
918.828	15226
918.939	15131
919.05	15165
919.161	15165
919.272	15005
919.383	15039
919.494	15237
919.604	15344
919.715	15161
919.826	15047
919.936	15195
920.047	15203
920.157	15024
920.267	15359
920.378	15138
920.488	15146
920.598	15363
920.708	15367
920.818	15306
920.928	15161
921.038	15454
921.148	15389
921.258	15043
921.368	15032
921.477	14842
921.587	14906
921.697	14777
921.806	14815
921.916	14705
922.025	14610
922.134	14385
922.244	14434
922.353	14564
922.462	14385
922.571	14347
922.68	14183
922.789	14115
922.898	14172
923.007	14062
923.116	14168
923.224	14176
923.333	14134
923.442	13978
923.55	13974
923.659	13883
923.767	13947
923.876	13871
923.984	13989
924.092	13852
924.201	13909
924.309	13830
924.417	13852
924.525	13791
924.633	13765
924.741	14758
924.849	13658
924.956	13746
925.064	13594
925.172	13472
925.279	13445
925.387	13597
925.494	13518
925.602	13670
925.709	13571
925.816	13392
925.924	13563
926.031	13559
926.138	13422
926.245	13571
926.352	13388
926.459	13445
926.566	13548
926.673	13434
926.779	13324
926.886	13194
926.993	13088
927.099	13069
927.206	13114
927.312	12924
927.419	13152
927.525	13000
927.631	13095
927.737	12909
927.843	12939
927.95	12745
928.056	12787
928.162	12916
928.267	12947
928.373	13438
928.479	12973
928.585	12639
928.69	12814
928.796	12859
928.901	12688
929.007	12616
929.112	12707
929.218	12635
929.323	12658
929.428	12635
929.533	12673
929.638	12486
929.743	12471
929.848	12635
929.953	12509
930.058	12426
930.163	12239
930.267	12315
930.372	12388
930.477	12117
930.581	12467
930.685	12376
930.79	12155
930.894	12201
930.998	12125
931.103	12228
931.207	11931
931.311	11840
931.415	11726
931.519	11577
931.623	11524
