Data from test_V78500241_1100.txt Node
Date: Fri Mar 25 15:49:25 CST 2022
User: usil
Spectrometer: V785-0024
Trigger mode: 0
Integration Time (sec): 4.000000E-1
Scans to average: 1
Nonlinearity correction enabled: false
Boxcar width: 0
Storing dark spectrum: false
XAxis mode: Wavelengths
Number of Pixels in Spectrum: 1024
>>>>>Begin Spectral Data<<<<<
801.071	28436
801.214	28322
801.356	28181
801.499	28063
801.641	28040
801.783	27953
801.926	28078
802.068	28059
802.211	27914
802.353	27759
802.496	27618
802.638	27759
802.78	27576
802.923	27576
803.065	27583
803.208	27663
803.35	27606
803.492	27720
803.635	27869
803.777	27823
803.919	27854
804.061	28101
804.204	27903
804.346	27755
804.488	27789
804.63	27804
804.773	27819
804.915	27880
805.057	28006
805.199	27842
805.341	28006
805.483	28002
805.626	27991
805.768	27907
805.91	28070
806.052	28032
806.194	27918
806.336	28253
806.478	28147
806.62	28063
806.762	28124
806.904	28466
807.046	28512
807.188	28500
807.33	28405
807.472	28481
807.614	28363
807.756	28436
807.898	28325
808.04	28390
808.182	28417
808.324	28268
808.465	28485
808.607	28626
808.749	28805
808.891	28793
809.033	28869
809.174	28896
809.316	28679
809.458	28687
809.6	28672
809.741	28854
809.883	28980
810.025	29117
810.166	29124
810.308	28881
810.45	28980
810.591	28991
810.733	28733
810.875	28721
811.016	28569
811.158	28645
811.299	28793
811.441	28980
811.582	29010
811.724	28725
811.865	28618
812.007	28691
812.148	28831
812.29	28888
812.431	28934
812.573	29121
812.714	29197
812.855	29162
812.997	29341
813.138	29512
813.279	29429
813.421	29490
813.562	29174
813.703	29006
813.845	28980
813.986	28645
814.127	28497
814.268	28436
814.41	28379
814.551	28424
814.692	28470
814.833	28318
814.974	28493
815.115	28462
815.256	28409
815.397	28223
815.539	28367
815.68	28257
815.821	28348
815.962	28226
816.103	28223
816.244	28150
816.385	28010
816.526	28029
816.666	27907
816.807	27728
816.948	27865
817.089	27903
817.23	27751
817.371	27705
817.512	27732
817.653	27667
817.793	27690
817.934	27759
818.075	27846
818.216	27679
818.356	27766
818.497	27648
818.638	27534
818.778	27576
818.919	27557
819.06	27542
819.2	27698
819.341	27827
819.481	27892
819.622	27975
819.762	28101
819.903	28013
820.043	27972
820.184	28021
820.324	27918
820.465	27972
820.605	27884
820.746	27857
820.886	27739
821.026	27838
821.167	27819
821.307	27876
821.447	27774
821.588	27625
821.728	27595
821.868	27397
822.008	27226
822.149	27233
822.289	27332
822.429	26975
822.569	27017
822.709	26952
822.849	26861
822.99	26838
823.13	26754
823.27	26712
823.41	26594
823.55	26583
823.69	26651
823.83	26617
823.97	26541
824.11	26457
824.25	26408
824.389	26438
824.529	26518
824.669	26469
824.809	26473
824.949	26450
825.089	26568
825.228	26461
825.368	26358
825.508	26256
825.648	26225
825.787	26336
825.927	26415
826.067	26396
826.206	26298
826.346	26294
826.485	26351
826.625	26301
826.765	26495
826.904	26294
827.044	26103
827.183	26058
827.323	26062
827.462	26134
827.601	26005
827.741	25913
827.88	26145
828.02	26058
828.159	26039
828.298	26065
828.437	26054
828.577	25978
828.716	26153
828.855	25909
828.994	25666
829.134	25753
829.273	25700
829.412	25578
829.551	25674
829.69	25750
829.829	25780
829.968	25670
830.107	25890
830.246	25685
830.385	25738
830.524	25540
830.663	25441
830.802	25415
830.941	25320
831.08	25346
831.219	25335
831.357	25346
831.496	25586
831.635	25381
831.774	25293
831.913	25217
832.051	25255
832.19	25069
832.329	25164
832.467	25019
832.606	25038
832.744	24878
832.883	25015
833.022	24981
833.16	25004
833.299	24886
833.437	24973
833.576	25000
833.714	24973
833.852	25034
833.991	25122
834.129	25088
834.267	25076
834.406	25076
834.544	25225
834.682	25053
834.821	25065
834.959	25228
835.097	24897
835.235	25034
835.373	24958
835.511	24989
835.65	24882
835.788	24681
835.926	24669
836.064	24700
836.202	24696
836.34	24962
836.478	24992
836.615	24810
836.753	24863
836.891	24924
837.029	24844
837.167	24779
837.305	24814
837.443	24802
837.58	24639
837.718	24817
837.856	24688
837.993	24677
838.131	24791
838.269	24525
838.406	24646
838.544	24563
838.681	24323
838.819	24369
838.956	24117
839.094	24049
839.231	24197
839.369	24498
839.506	24585
839.643	24437
839.781	24152
839.918	24114
840.055	24060
840.193	24194
840.33	24106
840.467	24068
840.604	24098
840.742	24273
840.879	24026
841.016	23973
841.153	23996
841.29	24167
841.427	23931
841.564	24018
841.701	24015
841.838	23897
841.975	24041
842.112	23874
842.249	23897
842.385	23916
842.522	24022
842.659	23939
842.796	23950
842.933	23703
843.069	23703
843.206	23851
843.343	23935
843.479	23855
843.616	23878
843.752	23589
843.889	23646
844.025	23714
844.162	23619
844.298	23665
844.435	23665
844.571	23520
844.708	23604
844.844	23878
844.98	23672
845.117	23805
845.253	23493
845.389	23497
845.525	23349
845.661	23547
845.798	23284
845.934	23376
846.07	23364
846.206	23353
846.342	23421
846.478	23288
846.614	23124
846.75	22919
846.886	23006
847.022	23136
847.158	22949
847.294	23086
847.429	23090
847.565	23041
847.701	23299
847.837	22854
847.972	22679
848.108	22949
848.244	22816
848.379	22679
848.515	22668
848.65	22626
848.786	22653
848.921	22748
849.057	22839
849.192	22725
849.328	22736
849.463	22687
849.598	22645
849.734	22497
849.869	22710
850.004	22447
850.14	22497
850.275	22363
850.41	22440
850.545	22325
850.68	22398
850.815	22455
850.95	22443
851.085	22656
851.22	22481
851.355	22363
851.49	22470
851.625	22451
851.76	22428
851.895	22424
852.03	22192
852.165	22512
852.299	22386
852.434	22497
852.569	22405
852.703	22398
852.838	22440
852.973	22474
853.107	22561
853.242	22314
853.376	22158
853.511	22109
853.645	22223
853.78	22280
853.914	22246
854.048	22063
854.183	22242
854.317	22234
854.451	22390
854.585	22238
854.72	22147
854.854	22249
854.988	22196
855.122	22177
855.256	21930
855.39	22226
855.524	22268
855.658	22173
855.792	22242
855.926	22249
856.06	22207
856.194	22360
856.327	22181
856.461	22230
856.595	22074
856.729	22215
856.862	22268
856.996	22192
857.13	22238
857.263	22367
857.397	22204
857.53	22234
857.664	22150
857.797	22196
857.931	22329
858.064	22242
858.197	22325
858.331	22204
858.464	22246
858.597	22082
858.731	22280
858.864	22219
858.997	22116
859.13	22223
859.263	22226
859.396	22276
859.529	22013
859.662	22051
859.795	22253
859.928	22177
860.061	22398
860.194	22409
860.327	22246
860.46	22287
860.592	22348
860.725	22333
860.858	22432
860.99	22154
861.123	22143
861.256	22128
861.388	22238
861.521	22885
861.653	22021
861.786	21949
861.918	22044
862.05	22097
862.183	22112
862.315	22223
862.447	22200
862.58	22070
862.712	21941
862.844	21842
862.976	22112
863.108	21991
863.24	22508
863.372	21873
863.504	21892
863.636	21960
863.768	22017
863.9	21903
864.032	21846
864.164	21751
864.296	21941
864.428	22021
864.559	22048
864.691	22017
864.823	21915
864.954	22025
865.086	21956
865.217	21789
865.349	21587
865.48	21736
865.612	21823
865.743	21907
865.875	21804
866.006	21778
866.137	21751
866.269	21850
866.4	21728
866.531	21641
866.662	21652
866.793	21808
866.924	21660
867.055	21774
867.186	21880
867.317	21778
867.448	21625
867.579	21713
867.71	21504
867.841	21595
867.972	21808
868.103	21728
868.233	21789
868.364	21762
868.495	21975
868.625	21926
868.756	22021
868.886	21857
869.017	21972
869.147	22112
869.278	22032
869.408	21941
869.539	21960
869.669	22105
869.799	22051
869.929	22109
870.06	22063
870.19	22272
870.32	22284
870.45	22223
870.58	22398
870.71	22557
870.84	22402
870.97	22417
871.1	22344
871.23	22500
871.36	22668
871.489	22489
871.619	22656
871.749	22542
871.879	22592
872.008	22622
872.138	22592
872.267	22523
872.397	22462
872.526	22367
872.656	22291
872.785	22497
872.915	22565
873.044	22729
873.173	22626
873.303	22527
873.432	22721
873.561	22653
873.69	22656
873.819	22611
873.948	22694
874.077	22557
874.206	22626
874.335	22538
874.464	22687
874.593	22850
874.722	22752
874.851	22847
874.979	22869
875.108	22881
875.237	22790
875.365	22767
875.494	22782
875.623	22889
875.751	22672
875.88	22778
876.008	22866
876.136	22953
876.265	23140
876.393	23284
876.521	23197
876.65	23258
876.778	23212
876.906	23204
877.034	23098
877.162	23105
877.29	23056
877.418	23250
877.546	23159
877.674	23208
877.802	23094
877.93	23048
878.058	23254
878.185	23044
878.313	23056
878.441	23124
878.568	22896
878.696	23109
878.824	23105
878.951	23113
879.079	23326
879.206	23440
879.333	23254
879.461	23246
879.588	23239
879.715	23170
879.842	23471
879.97	23170
880.097	23060
880.224	22850
880.351	22961
880.478	22904
880.605	22793
880.732	22908
880.859	23174
880.986	22965
881.112	23003
881.239	22835
881.366	22603
881.493	22683
881.619	22523
881.746	22508
881.872	22478
881.999	22398
882.125	22527
882.252	22622
882.378	22573
882.505	22630
882.631	22360
882.757	22291
882.883	22276
883.01	22078
883.136	22078
883.262	22006
883.388	22063
883.514	22192
883.64	22223
883.766	22109
883.892	21975
884.018	21937
884.143	22135
884.269	22162
884.395	21884
884.52	21785
884.646	21903
884.772	21682
884.897	21732
885.023	21827
885.148	21873
885.274	21987
885.399	21934
885.524	21972
885.65	21827
885.775	21781
885.9	21808
886.025	21945
886.15	21831
886.275	21694
886.4	21652
886.525	21842
886.65	21770
886.775	21759
886.9	22010
887.025	22112
887.149	21785
887.274	21606
887.399	21648
887.523	21572
887.648	21504
887.773	21523
887.897	21713
888.021	21637
888.146	21530
888.27	21675
888.395	21606
888.519	21610
888.643	21610
888.767	21709
888.891	21488
889.015	21378
889.139	21443
889.263	21370
889.387	21492
889.511	21583
889.635	21583
889.759	21355
889.883	21367
890.006	21397
890.13	21420
890.254	21230
890.377	21332
890.501	21070
890.624	21032
890.748	21142
890.871	21028
890.995	20906
891.118	20948
891.241	21028
891.364	20952
891.488	21043
891.611	20906
891.734	20861
891.857	21024
891.98	20910
892.103	20979
892.226	21009
892.349	20864
892.471	20708
892.594	20944
892.717	20769
892.839	20804
892.962	20815
893.085	20925
893.207	20750
893.33	20636
893.452	20845
893.575	20914
893.697	20735
893.819	20975
893.941	21043
894.064	20994
894.186	20758
894.308	20651
894.43	20918
894.552	20998
894.674	20918
894.796	20682
894.918	20796
895.04	20712
895.161	20804
895.283	20807
895.405	20834
895.526	20823
895.648	20785
895.769	20834
895.891	20861
896.012	20891
896.134	20902
896.255	20819
896.376	20785
896.498	20777
896.619	20971
896.74	20693
896.861	20845
896.982	21218
897.103	21313
897.224	21070
897.345	21036
897.466	21005
897.587	20971
897.708	21131
897.828	21195
897.949	20990
898.07	20849
898.19	20937
898.311	21081
898.431	21047
898.552	20952
898.672	21077
898.792	21020
898.913	20960
899.033	20792
899.153	20853
899.273	20720
899.393	20682
899.513	20838
899.633	20667
899.753	20887
899.873	20689
899.993	20743
900.113	20644
900.232	20785
900.352	20788
900.472	20575
900.591	20454
900.711	20598
900.83	20427
900.95	20480
901.069	20674
901.189	20389
901.308	20119
901.427	20176
901.546	20092
901.665	20092
901.784	20248
901.904	20062
902.023	19875
902.141	19658
902.26	19525
902.379	19586
902.498	19647
902.617	19449
902.735	19693
902.854	19582
902.973	19514
903.091	19354
903.21	19316
903.328	19324
903.446	19114
903.565	19141
903.683	19088
903.801	19042
903.919	19042
904.038	18993
904.156	18894
904.274	19012
904.392	18787
904.51	18783
904.627	18848
904.745	18722
904.863	18821
904.981	18593
905.098	18631
905.216	18604
905.334	18578
905.451	18593
905.569	18475
905.686	18563
905.803	18471
905.921	18273
906.038	18277
906.155	18247
906.272	18098
906.389	18155
906.506	18117
906.623	18098
906.74	18022
906.857	17901
906.974	17980
907.091	17992
907.208	18133
907.324	17969
907.441	17878
907.557	17771
907.674	17794
907.79	17676
907.907	17756
908.023	17611
908.139	17817
908.256	17771
908.372	17649
908.488	17691
908.604	17547
908.72	17486
908.836	17528
908.952	17402
909.068	17493
909.184	17604
909.3	17448
909.415	17490
909.531	17368
909.647	17231
909.762	17170
909.878	17155
909.993	17102
910.108	17121
910.224	17121
910.339	17136
910.454	17060
910.57	16995
910.685	16934
910.8	17094
910.915	17170
911.03	16949
911.145	16759
911.259	16702
911.374	16782
911.489	16710
911.604	16573
911.718	16455
911.833	16565
911.947	16341
912.062	16333
912.176	16466
912.291	16550
912.405	16554
912.519	16660
912.633	16645
912.748	16466
912.862	16405
912.976	16318
913.09	16150
913.204	16219
913.318	16177
913.431	16367
913.545	16352
913.659	16360
913.772	16181
913.886	16097
914	15972
914.113	16105
914.226	16173
914.34	16067
914.453	16021
914.566	15945
914.68	15937
914.793	15888
914.906	15644
915.019	15637
915.132	15690
915.245	15652
915.358	15660
915.47	15648
915.583	15637
915.696	15671
915.809	15720
915.921	15728
916.034	15557
916.146	15591
916.259	15549
916.371	15652
916.483	15538
916.595	15530
916.708	15538
916.82	15450
916.932	15439
917.044	15530
917.156	15393
917.268	15226
917.38	15279
917.491	15329
917.603	15268
917.715	15382
917.826	15355
917.938	15214
918.049	15237
918.161	15272
918.272	15351
918.384	15405
918.495	15264
918.606	15024
918.717	14952
918.828	15089
918.939	15074
919.05	14925
919.161	15028
919.272	14838
919.383	14769
919.494	14982
919.604	15272
919.715	15032
919.826	14883
919.936	14982
920.047	14994
920.157	15032
920.267	15154
920.378	14975
920.488	14925
920.598	15180
920.708	15264
920.818	15203
920.928	15020
921.038	15306
921.148	15230
921.258	14872
921.368	14857
921.477	14727
921.587	14663
921.697	14545
921.806	14724
921.916	14518
922.025	14499
922.134	14362
922.244	14301
922.353	14374
922.462	14199
922.571	14176
922.68	14058
922.789	13986
922.898	13986
923.007	13894
923.116	14024
923.224	13989
923.333	13925
923.442	13860
923.55	13959
923.659	13826
923.767	13890
923.876	13769
923.984	13822
924.092	13704
924.201	13791
924.309	13700
924.417	13765
924.525	13677
924.633	13582
924.741	14343
924.849	13460
924.956	13506
925.064	13346
925.172	13343
925.279	13308
925.387	13373
925.494	13407
925.602	13537
925.709	13422
925.816	13343
925.924	13301
926.031	13502
926.138	13259
926.245	13373
926.352	13221
926.459	13365
926.566	13438
926.673	13270
926.779	13095
926.886	13103
926.993	12875
927.099	12932
927.206	12905
927.312	12810
927.419	12897
927.525	12856
927.631	12916
927.737	12837
927.843	12783
927.95	12684
928.056	12688
928.162	12768
928.267	12798
928.373	13415
928.479	12833
928.585	12669
928.69	12802
928.796	12696
928.901	12597
929.007	12490
929.112	12677
929.218	12513
929.323	12513
929.428	12486
929.533	12585
929.638	12414
929.743	12429
929.848	12471
929.953	12407
930.058	12281
930.163	12125
930.267	12125
930.372	12273
930.477	12117
930.581	12327
930.685	12175
930.79	12022
930.894	11980
930.998	11958
931.103	12110
931.207	11798
931.311	11733
931.415	11589
931.519	11379
931.623	11341
