Data from test_V78500241_2690.txt Node
Date: Fri Mar 25 16:00:26 CST 2022
User: usil
Spectrometer: V785-0024
Trigger mode: 0
Integration Time (sec): 4.000000E-1
Scans to average: 1
Nonlinearity correction enabled: false
Boxcar width: 0
Storing dark spectrum: false
XAxis mode: Wavelengths
Number of Pixels in Spectrum: 1024
>>>>>Begin Spectral Data<<<<<
801.071	28767
801.214	28641
801.356	28470
801.499	28306
801.641	28325
801.783	28413
801.926	28329
802.068	28284
802.211	28200
802.353	28204
802.496	28055
802.638	27983
802.78	27983
802.923	27747
803.065	27873
803.208	27907
803.35	28162
803.492	28249
803.635	28284
803.777	28139
803.919	28352
804.061	28717
804.204	28329
804.346	28265
804.488	28169
804.63	28329
804.773	28253
804.915	28527
805.057	28417
805.199	28398
805.341	28242
805.483	28333
805.626	28474
805.768	28341
805.91	28428
806.052	28497
806.194	28405
806.336	28615
806.478	28417
806.62	28443
806.762	28622
806.904	28809
807.046	29044
807.188	28877
807.33	28824
807.472	28896
807.614	28866
807.756	28976
807.898	28721
808.04	28691
808.182	28611
808.324	28733
808.465	28843
808.607	28965
808.749	29079
808.891	29136
809.033	29341
809.174	29204
809.316	29037
809.458	29083
809.6	28987
809.741	29200
809.883	29258
810.025	29528
810.166	29414
810.308	29528
810.45	29303
810.591	29303
810.733	29159
810.875	29048
811.016	29128
811.158	29018
811.299	29391
811.441	29258
811.582	29239
811.724	29124
811.865	29185
812.007	29121
812.148	29189
812.29	29193
812.431	29395
812.573	29425
812.714	29543
812.855	29509
812.997	29809
813.138	29882
813.279	29752
813.421	29615
813.562	29619
813.703	29505
813.845	29318
813.986	29060
814.127	29022
814.268	28774
814.41	28828
814.551	28892
814.692	28862
814.833	28831
814.974	28843
815.115	28911
815.256	28626
815.397	28797
815.539	28706
815.68	28706
815.821	28542
815.962	28611
816.103	28603
816.244	28348
816.385	28394
816.526	28573
816.666	28242
816.807	28147
816.948	28230
817.089	28253
817.23	28169
817.371	28242
817.512	28162
817.653	28078
817.793	27991
817.934	28215
818.075	28131
818.216	28299
818.356	28128
818.497	28051
818.638	27873
818.778	27865
818.919	27983
819.06	27983
819.2	28010
819.341	28078
819.481	28181
819.622	28325
819.762	28481
819.903	28421
820.043	28421
820.184	28367
820.324	28318
820.465	28398
820.605	28386
820.746	28242
820.886	28128
821.026	28204
821.167	28166
821.307	28386
821.447	28226
821.588	28139
821.728	27945
821.868	27861
822.008	27637
822.149	27576
822.289	27500
822.429	27439
822.569	27279
822.709	27332
822.849	27184
822.99	27340
823.13	27138
823.27	27089
823.41	27150
823.55	26765
823.69	26887
823.83	26914
823.97	26899
824.11	26705
824.25	26693
824.389	26773
824.529	26872
824.669	26876
824.809	26956
824.949	26830
825.089	26880
825.228	26800
825.368	26564
825.508	26632
825.648	26674
825.787	26731
825.927	26815
826.067	26663
826.206	26598
826.346	26667
826.485	26762
826.625	26705
826.765	26720
826.904	26640
827.044	26545
827.183	26381
827.323	26408
827.462	26453
827.601	26473
827.741	26385
827.88	26442
828.02	26366
828.159	26423
828.298	26377
828.437	26377
828.577	26282
828.716	26530
828.855	26263
828.994	26058
829.134	26046
829.273	26153
829.412	25970
829.551	26005
829.69	26107
829.829	26084
829.968	26119
830.107	26157
830.246	26145
830.385	26039
830.524	26005
830.663	25860
830.802	25795
830.941	25818
831.08	25658
831.219	25769
831.357	25822
831.496	25951
831.635	25582
831.774	25464
831.913	25422
832.051	25449
832.19	25430
832.329	25521
832.467	25487
832.606	25194
832.744	25373
832.883	25441
833.022	25358
833.16	25373
833.299	25350
833.437	25392
833.576	25457
833.714	25343
833.852	25597
833.991	25434
834.129	25479
834.267	25540
834.406	25552
834.544	25502
834.682	25274
834.821	25415
834.959	25597
835.097	25377
835.235	25384
835.373	25358
835.511	25362
835.65	25225
835.788	25221
835.926	25110
836.064	25088
836.202	25027
836.34	25217
836.478	25464
836.615	25232
836.753	25209
836.891	25247
837.029	25282
837.167	25187
837.305	25217
837.443	25156
837.58	25019
837.718	25080
837.856	25110
837.993	24985
838.131	25221
838.269	24859
838.406	24932
838.544	24894
838.681	24642
838.819	24665
838.956	24490
839.094	24547
839.231	24589
839.369	24673
839.506	24973
839.643	24753
839.781	24502
839.918	24513
840.055	24483
840.193	24388
840.33	24380
840.467	24471
840.604	24505
840.742	24639
840.879	24448
841.016	24327
841.153	24391
841.29	24479
841.427	24437
841.564	24395
841.701	24433
841.838	24251
841.975	24289
842.112	24304
842.249	24251
842.385	24205
842.522	24578
842.659	24235
842.796	24076
842.933	24152
843.069	24079
843.206	24110
843.343	24087
843.479	24163
843.616	24152
843.752	23984
843.889	23904
844.025	24041
844.162	23973
844.298	24121
844.435	23939
844.571	23916
844.708	24045
844.844	24045
844.98	24068
845.117	24129
845.253	23901
845.389	23805
845.525	23946
845.661	23775
845.798	23665
845.934	23771
846.07	23718
846.206	23680
846.342	23767
846.478	23653
846.614	23486
846.75	23353
846.886	23429
847.022	23486
847.158	23372
847.294	23493
847.429	23376
847.565	23467
847.701	23710
847.837	23193
847.972	23147
848.108	23166
848.244	23121
848.379	23136
848.515	23044
848.65	22961
848.786	23048
848.921	22957
849.057	23155
849.192	23113
849.328	23025
849.463	23010
849.598	22968
849.734	22866
849.869	22793
850.004	22790
850.14	22885
850.275	22828
850.41	22683
850.545	22683
850.68	22835
850.815	22778
850.95	22778
851.085	22911
851.22	22831
851.355	22793
851.49	22694
851.625	22733
851.76	22740
851.895	22672
852.03	22618
852.165	22744
852.299	22801
852.434	22968
852.569	22679
852.703	22820
852.838	22717
852.973	22896
853.107	22896
853.242	22675
853.376	22675
853.511	22337
853.645	22542
853.78	22748
853.914	22618
854.048	22637
854.183	22504
854.317	22656
854.451	22801
854.585	22508
854.72	22679
854.854	22561
854.988	22516
855.122	22691
855.256	22523
855.39	22512
855.524	22653
855.658	22580
855.792	22546
855.926	22565
856.06	22432
856.194	22641
856.327	22497
856.461	22584
856.595	22527
856.729	22656
856.862	22694
856.996	22668
857.13	22516
857.263	22691
857.397	22641
857.53	22569
857.664	22557
857.797	22611
857.931	22691
858.064	22649
858.197	22649
858.331	22649
858.464	22550
858.597	22394
858.731	22580
858.864	22519
858.997	22508
859.13	22561
859.263	22744
859.396	22675
859.529	22485
859.662	22554
859.795	22455
859.928	22546
860.061	22755
860.194	22809
860.327	22725
860.46	22550
860.592	22713
860.725	22771
860.858	22717
860.99	22584
861.123	22497
861.256	22618
861.388	22538
861.521	23227
861.653	22451
861.786	22348
861.918	22413
862.05	22390
862.183	22462
862.315	22478
862.447	22535
862.58	22516
862.712	22363
862.844	22291
862.976	22379
863.108	22360
863.24	22698
863.372	22204
863.504	22219
863.636	22333
863.768	22325
863.9	22226
864.032	22265
864.164	22303
864.296	22246
864.428	22386
864.559	22390
864.691	22379
864.823	22215
864.954	22253
865.086	22158
865.217	22185
865.349	22112
865.48	22177
865.612	22116
865.743	22291
865.875	22154
866.006	22116
866.137	22116
866.269	22207
866.4	22082
866.531	22090
866.662	21998
866.793	21941
866.924	22181
867.055	21991
867.186	22093
867.317	22116
867.448	22036
867.579	22021
867.71	21998
867.841	21991
867.972	22086
868.103	22070
868.233	22120
868.364	21964
868.495	22131
868.625	22394
868.756	22394
868.886	22284
869.017	22371
869.147	22523
869.278	22337
869.408	22234
869.539	22402
869.669	22238
869.799	22310
869.929	22390
870.06	22325
870.19	22561
870.32	22634
870.45	22641
870.58	22710
870.71	22774
870.84	22774
870.97	22793
871.1	22706
871.23	22892
871.36	22869
871.489	22942
871.619	22927
871.749	22881
871.879	22938
872.008	23041
872.138	22873
872.267	22850
872.397	22889
872.526	22782
872.656	22759
872.785	22759
872.915	22854
873.044	23003
873.173	22938
873.303	22976
873.432	22938
873.561	23037
873.69	22942
873.819	22995
873.948	22984
874.077	22972
874.206	22942
874.335	22987
874.464	23044
874.593	23235
874.722	23128
874.851	23094
874.979	23227
875.108	23307
875.237	23178
875.365	23094
875.494	23018
875.623	23181
875.751	23208
875.88	23273
876.008	23273
876.136	23398
876.265	23562
876.393	23748
876.521	23562
876.65	23600
876.778	23421
876.906	23501
877.034	23490
877.162	23554
877.29	23406
877.418	23482
877.546	23478
877.674	23455
877.802	23547
877.93	23459
878.058	23516
878.185	23417
878.313	23395
878.441	23516
878.568	23250
878.696	23387
878.824	23516
878.951	23524
879.079	23729
879.206	23840
879.333	23691
879.461	23551
879.588	23665
879.715	23649
879.842	23707
879.97	23493
880.097	23322
880.224	23459
880.351	23322
880.478	23341
880.605	23303
880.732	23444
880.859	23668
880.986	23277
881.112	23277
881.239	23258
881.366	23022
881.493	23029
881.619	22828
881.746	22885
881.872	22911
881.999	22923
882.125	22736
882.252	22984
882.378	22847
882.505	22854
882.631	22736
882.757	22565
882.883	22736
883.01	22607
883.136	22523
883.262	22443
883.388	22337
883.514	22577
883.64	22675
883.766	22443
883.892	22337
884.018	22257
884.143	22474
884.269	22687
884.395	22249
884.52	22173
884.646	22242
884.772	22154
884.897	22017
885.023	22090
885.148	22268
885.274	22356
885.399	22257
885.524	22169
885.65	22162
885.775	22116
885.9	22067
886.025	22261
886.15	22230
886.275	22169
886.4	22055
886.525	22048
886.65	22128
886.775	22074
886.9	22253
887.025	22314
887.149	22166
887.274	21945
887.399	21998
887.523	21934
887.648	21888
887.773	21816
887.897	21869
888.021	22013
888.146	21861
888.27	22082
888.395	22074
888.519	22002
888.643	21991
888.767	21934
888.891	21869
889.015	21736
889.139	21785
889.263	21736
889.387	21850
889.511	21876
889.635	21838
889.759	21637
889.883	21751
890.006	21705
890.13	21819
890.254	21587
890.377	21648
890.501	21526
890.624	21447
890.748	21526
890.871	21382
890.995	21249
891.118	21184
891.241	21161
891.364	21249
891.488	21458
891.611	21283
891.734	21268
891.857	21313
891.98	21237
892.103	21382
892.226	21180
892.349	21192
892.471	21077
892.594	21154
892.717	21268
892.839	21081
892.962	21085
893.085	21218
893.207	21176
893.33	21085
893.452	21058
893.575	21188
893.697	21096
893.819	21332
893.941	21313
894.064	21169
894.186	21116
894.308	21058
894.43	21233
894.552	21306
894.674	21218
894.796	21009
894.918	21089
895.04	21188
895.161	21138
895.283	21237
895.405	21119
895.526	21226
895.648	21074
895.769	21119
895.891	21180
896.012	21207
896.134	21123
896.255	21241
896.376	21188
896.498	21089
896.619	21192
896.74	21211
896.861	21135
896.982	21428
897.103	21736
897.224	21492
897.345	21416
897.466	21252
897.587	21447
897.708	21553
897.828	21401
897.949	21321
898.07	21195
898.19	21275
898.311	21287
898.431	21241
898.552	21245
898.672	21397
898.792	21332
898.913	21310
899.033	21180
899.153	21188
899.273	21039
899.393	21112
899.513	21005
899.633	21150
899.753	21279
899.873	20994
899.993	21005
900.113	21070
900.232	21093
900.352	21013
900.472	20864
900.591	20895
900.711	20910
900.83	20864
900.95	20963
901.069	20899
901.189	20804
901.308	20488
901.427	20233
901.546	20366
901.665	20374
901.784	20339
901.904	20149
902.023	20259
902.141	19860
902.26	19917
902.379	19974
902.498	19917
902.617	19818
902.735	19925
902.854	19791
902.973	19761
903.091	19544
903.21	19540
903.328	19518
903.446	19396
903.565	19369
903.683	19384
903.801	19331
903.919	19400
904.038	19392
904.156	19122
904.274	19228
904.392	19122
904.51	19046
904.627	19110
904.745	19118
904.863	19198
904.981	19004
905.098	18913
905.216	18757
905.334	18916
905.451	18795
905.569	18715
905.686	18867
905.803	18817
905.921	18566
906.038	18738
906.155	18608
906.272	18517
906.389	18479
906.506	18422
906.623	18418
906.74	18270
906.857	18171
906.974	18213
907.091	18346
907.208	18418
907.324	18308
907.441	18243
907.557	18015
907.674	17950
907.79	17927
907.907	17851
908.023	18045
908.139	17969
908.256	17942
908.372	17843
908.488	17840
908.604	17737
908.72	17611
908.836	17710
908.952	17695
909.068	17619
909.184	17843
909.3	17665
909.415	17752
909.531	17642
909.647	17455
909.762	17497
909.878	17410
909.993	17524
910.108	17379
910.224	17501
910.339	17277
910.454	17239
910.57	17280
910.685	17162
910.8	17440
910.915	17436
911.03	17193
911.145	17083
911.259	17041
911.374	16930
911.489	16984
911.604	16862
911.718	16656
911.833	16759
911.947	16672
912.062	16554
912.176	16759
912.291	16797
912.405	16786
912.519	16965
912.633	16915
912.748	16721
912.862	16660
912.976	16569
913.09	16314
913.204	16519
913.318	16634
913.431	16679
913.545	16641
913.659	16637
913.772	16569
913.886	16421
914	16409
914.113	16424
914.226	16451
914.34	16478
914.453	16284
914.566	16344
914.68	16192
914.793	16196
914.906	16025
915.019	15956
915.132	15857
915.245	15838
915.358	15838
915.47	16063
915.583	15930
915.696	15899
915.809	15953
915.921	16071
916.034	15785
916.146	15831
916.259	15766
916.371	15953
916.483	15918
916.595	15823
916.708	15705
916.82	15709
916.932	15705
917.044	15739
917.156	15667
917.268	15530
917.38	15580
917.491	15515
917.603	15572
917.715	15644
917.826	15648
917.938	15492
918.049	15454
918.161	15378
918.272	15572
918.384	15614
918.495	15477
918.606	15260
918.717	15279
918.828	15355
918.939	15298
919.05	15268
919.161	15233
919.272	14998
919.383	15184
919.494	15302
919.604	15492
919.715	15226
919.826	15146
919.936	15249
920.047	15367
920.157	15199
920.267	15408
920.378	15184
920.488	15176
920.598	15424
920.708	15515
920.818	15469
920.928	15344
921.038	15492
921.148	15485
921.258	15230
921.368	15062
921.477	14975
921.587	14933
921.697	14880
921.806	15032
921.916	14804
922.025	14568
922.134	14621
922.244	14507
922.353	14613
922.462	14503
922.571	14317
922.68	14252
922.789	14233
922.898	14271
923.007	14168
923.116	14252
923.224	14123
923.333	14123
923.442	14183
923.55	14050
923.659	14126
923.767	14115
923.876	13970
923.984	14043
924.092	14012
924.201	13936
924.309	14005
924.417	13928
924.525	13814
924.633	13860
924.741	14861
924.849	13655
924.956	13761
925.064	13704
925.172	13537
925.279	13571
925.387	13704
925.494	13499
925.602	13731
925.709	13708
925.816	13548
925.924	13529
926.031	13639
926.138	13480
926.245	13575
926.352	13411
926.459	13548
926.566	13594
926.673	13445
926.779	13270
926.886	13381
926.993	13209
927.099	13232
927.206	13057
927.312	13065
927.419	13168
927.525	13160
927.631	13053
927.737	13015
927.843	13053
927.95	12939
928.056	12924
928.162	12981
928.267	12993
928.373	13521
928.479	13008
928.585	12844
928.69	12886
928.796	12909
928.901	12856
929.007	12684
929.112	12852
929.218	12768
929.323	12707
929.428	12639
929.533	12814
929.638	12623
929.743	12597
929.848	12730
929.953	12525
930.058	12517
930.163	12338
930.267	12289
930.372	12429
930.477	12304
930.581	12475
930.685	12388
930.79	12209
930.894	12171
930.998	12095
931.103	12353
931.207	11958
931.311	11840
931.415	11790
931.519	11543
931.623	11581
