Data from test_V78500241_572.txt Node
Date: Fri Mar 25 15:45:45 CST 2022
User: usil
Spectrometer: V785-0024
Trigger mode: 0
Integration Time (sec): 4.000000E-1
Scans to average: 1
Nonlinearity correction enabled: false
Boxcar width: 0
Storing dark spectrum: false
XAxis mode: Wavelengths
Number of Pixels in Spectrum: 1024
>>>>>Begin Spectral Data<<<<<
801.071	27545
801.214	27477
801.356	27119
801.499	27214
801.641	27017
801.783	27150
801.926	27062
802.068	27127
802.211	27081
802.353	26899
802.496	26727
802.638	26785
802.78	26796
802.923	26724
803.065	26549
803.208	26617
803.35	26689
803.492	26895
803.635	26990
803.777	26727
803.919	27074
804.061	27100
804.204	26838
804.346	26853
804.488	26735
804.63	26754
804.773	26746
804.915	26823
805.057	27013
805.199	26876
805.341	26990
805.483	27074
805.626	27024
805.768	26906
805.91	26883
806.052	27062
806.194	27028
806.336	27192
806.478	27036
806.62	27055
806.762	27173
806.904	27317
807.046	27526
807.188	27306
807.33	27427
807.472	27466
807.614	27359
807.756	27523
807.898	27245
808.04	27207
808.182	27332
808.324	27275
808.465	27245
808.607	27336
808.749	27610
808.891	27637
809.033	27759
809.174	27694
809.316	27644
809.458	27709
809.6	27511
809.741	27819
809.883	27804
810.025	27861
810.166	27922
810.308	27941
810.45	27907
810.591	27873
810.733	27694
810.875	27519
811.016	27523
811.158	27690
811.299	27785
811.441	27876
811.582	27671
811.724	27755
811.865	27576
812.007	27641
812.148	27526
812.29	27618
812.431	27816
812.573	28105
812.714	28158
812.855	28059
812.997	28226
813.138	28474
813.279	28306
813.421	28196
813.562	28059
813.703	27998
813.845	27876
813.986	27656
814.127	27504
814.268	27306
814.41	27492
814.551	27264
814.692	27268
814.833	27245
814.974	27294
815.115	27275
815.256	27165
815.397	27195
815.539	27218
815.68	27150
815.821	27127
815.962	27055
816.103	26849
816.244	26826
816.385	26834
816.526	26811
816.666	26708
816.807	26552
816.948	26632
817.089	26552
817.23	26655
817.371	26667
817.512	26381
817.653	26609
817.793	26446
817.934	26465
818.075	26636
818.216	26621
818.356	26651
818.497	26446
818.638	26229
818.778	26271
818.919	26347
819.06	26366
819.2	26453
819.341	26644
819.481	26609
819.622	26697
819.762	26849
819.903	26731
820.043	26887
820.184	26765
820.324	26636
820.465	26796
820.605	26629
820.746	26689
820.886	26571
821.026	26636
821.167	26651
821.307	26659
821.447	26507
821.588	26590
821.728	26400
821.868	26309
822.008	25887
822.149	26069
822.289	26008
822.429	25803
822.569	25670
822.709	25780
822.849	25601
822.99	25658
823.13	25506
823.27	25556
823.41	25415
823.55	25327
823.69	25392
823.83	25282
823.97	25232
824.11	25103
824.25	25122
824.389	25263
824.529	25190
824.669	25118
824.809	25339
824.949	25251
825.089	25388
825.228	25190
825.368	25088
825.508	25099
825.648	24981
825.787	25206
825.927	24973
826.067	24897
826.206	25000
826.346	24943
826.485	25137
826.625	24943
826.765	25099
826.904	24920
827.044	24745
827.183	24783
827.323	24760
827.462	24787
827.601	24757
827.741	24719
827.88	24753
828.02	24608
828.159	24837
828.298	24726
828.437	24764
828.577	24753
828.716	24840
828.855	24654
828.994	24426
829.134	24551
829.273	24426
829.412	24429
829.551	24475
829.69	24612
829.829	24330
829.968	24563
830.107	24593
830.246	24422
830.385	24353
830.524	24289
830.663	24311
830.802	24190
830.941	24057
831.08	24098
831.219	24232
831.357	24110
831.496	24194
831.635	24030
831.774	23920
831.913	23935
832.051	23752
832.19	23908
832.329	23824
832.467	23691
832.606	23703
832.744	23783
832.883	23745
833.022	23627
833.16	23638
833.299	23794
833.437	23813
833.576	23809
833.714	23714
833.852	23897
833.991	23885
834.129	23836
834.267	23802
834.406	23794
834.544	23901
834.682	23672
834.821	23794
834.959	23996
835.097	23672
835.235	23916
835.373	23764
835.511	23771
835.65	23691
835.788	23638
835.926	23539
836.064	23421
836.202	23520
836.34	23585
836.478	23737
836.615	23695
836.753	23672
836.891	23592
837.029	23585
837.167	23573
837.305	23577
837.443	23383
837.58	23410
837.718	23455
837.856	23512
837.993	23273
838.131	23478
838.269	23280
838.406	23452
838.544	23334
838.681	23204
838.819	23181
838.956	22942
839.094	22877
839.231	22949
839.369	23178
839.506	23322
839.643	23102
839.781	22908
839.918	22934
840.055	22938
840.193	22885
840.33	22908
840.467	22729
840.604	22843
840.742	23284
840.879	22778
841.016	22816
841.153	22740
841.29	22976
841.427	22862
841.564	22866
841.701	22843
841.838	22820
841.975	22664
842.112	22900
842.249	22653
842.385	22573
842.522	22881
842.659	22634
842.796	22599
842.933	22565
843.069	22592
843.206	22626
843.343	22736
843.479	22489
843.616	22504
843.752	22413
843.889	22508
844.025	22504
844.162	22417
844.298	22451
844.435	22322
844.571	22318
844.708	22413
844.844	22443
844.98	22421
845.117	22394
845.253	22253
845.389	22242
845.525	22333
845.661	22249
845.798	22143
845.934	22215
846.07	22097
846.206	22200
846.342	22238
846.478	21983
846.614	21941
846.75	21812
846.886	21865
847.022	22090
847.158	21907
847.294	21953
847.429	21918
847.565	21831
847.701	22158
847.837	21667
847.972	21526
848.108	21762
848.244	21701
848.379	21504
848.515	21435
848.65	21549
848.786	21500
848.921	21443
849.057	21545
849.192	21553
849.328	21526
849.463	21473
849.598	21340
849.734	21310
849.869	21317
850.004	21173
850.14	21226
850.275	21344
850.41	21127
850.545	21173
850.68	21146
850.815	21241
850.95	21252
851.085	21340
851.22	21348
851.355	21192
851.49	21184
851.625	21150
851.76	21222
851.895	21100
852.03	21150
852.165	21329
852.299	21272
852.434	21317
852.569	21241
852.703	21230
852.838	21226
852.973	21298
853.107	21264
853.242	21146
853.376	21001
853.511	20975
853.645	20819
853.78	21142
853.914	21001
854.048	20963
854.183	20967
854.317	20960
854.451	21268
854.585	20960
854.72	21013
854.854	21256
854.988	20899
855.122	21051
855.256	20800
855.39	21085
855.524	21161
855.658	21001
855.792	21070
855.926	21131
856.06	21036
856.194	21093
856.327	20982
856.461	20929
856.595	20921
856.729	21077
856.862	21142
856.996	21184
857.13	21154
857.263	21051
857.397	21199
857.53	21188
857.664	21051
857.797	21116
857.931	21017
858.064	21135
858.197	21226
858.331	21017
858.464	20921
858.597	20937
858.731	20998
858.864	20975
858.997	20918
859.13	20994
859.263	20941
859.396	21096
859.529	21104
859.662	21085
859.795	20891
859.928	20990
860.061	21214
860.194	21272
860.327	21116
860.46	21074
860.592	21169
860.725	21135
860.858	21119
860.99	21131
861.123	21032
861.256	20899
861.388	21009
861.521	21530
861.653	20868
861.786	20872
861.918	20842
862.05	20918
862.183	21017
862.315	21005
862.447	20971
862.58	20948
862.712	20842
862.844	20678
862.976	20823
863.108	20716
863.24	21154
863.372	20708
863.504	20686
863.636	20697
863.768	20788
863.9	20750
864.032	20644
864.164	20724
864.296	20792
864.428	20845
864.559	20807
864.691	20743
864.823	20754
864.954	20697
865.086	20693
865.217	20731
865.349	20575
865.48	20632
865.612	20640
865.743	20933
865.875	20655
866.006	20640
866.137	20693
866.269	20621
866.4	20712
866.531	20480
866.662	20579
866.793	20545
866.924	20640
867.055	20674
867.186	20632
867.317	20613
867.448	20419
867.579	20389
867.71	20564
867.841	20381
867.972	20530
868.103	20507
868.233	20571
868.364	20670
868.495	20617
868.625	20731
868.756	20967
868.886	20883
869.017	20727
869.147	20956
869.278	20887
869.408	20887
869.539	20781
869.669	20948
869.799	20937
869.929	21009
870.06	20921
870.19	21062
870.32	21142
870.45	21089
870.58	21169
870.71	21329
870.84	21355
870.97	21211
871.1	21344
871.23	21405
871.36	21397
871.489	21279
871.619	21332
871.749	21382
871.879	21595
872.008	21614
872.138	21515
872.267	21485
872.397	21310
872.526	21325
872.656	21226
872.785	21348
872.915	21545
873.044	21488
873.173	21431
873.303	21389
873.432	21553
873.561	21568
873.69	21492
873.819	21443
873.948	21515
874.077	21439
874.206	21393
874.335	21416
874.464	21454
874.593	21766
874.722	21694
874.851	21557
874.979	21732
875.108	21755
875.237	21705
875.365	21545
875.494	21625
875.623	21854
875.751	21549
875.88	21819
876.008	21724
876.136	21724
876.265	22032
876.393	22070
876.521	22063
876.65	22097
876.778	22074
876.906	21991
877.034	21968
877.162	22112
877.29	21854
877.418	22025
877.546	22074
877.674	22059
877.802	22074
877.93	22059
878.058	21968
878.185	21846
878.313	21899
878.441	21979
878.568	21979
878.696	21964
878.824	22101
878.951	22128
879.079	22219
879.206	22238
879.333	22105
879.461	22078
879.588	22147
879.715	22177
879.842	22188
879.97	22093
880.097	21930
880.224	21888
880.351	21838
880.478	21766
880.605	21770
880.732	21804
880.859	22090
880.986	21949
881.112	21903
881.239	21751
881.366	21580
881.493	21424
881.619	21416
881.746	21462
881.872	21469
881.999	21420
882.125	21473
882.252	21408
882.378	21336
882.505	21564
882.631	21321
882.757	21211
882.883	21218
883.01	21089
883.136	21104
883.262	21020
883.388	20979
883.514	21074
883.64	21051
883.766	21081
883.892	20887
884.018	20963
884.143	21112
884.269	21211
884.395	20765
884.52	20655
884.646	20781
884.772	20670
884.897	20549
885.023	20800
885.148	20834
885.274	20921
885.399	20834
885.524	20644
885.65	20727
885.775	20750
885.9	20781
886.025	20994
886.15	20743
886.275	20663
886.4	20594
886.525	20708
886.65	20678
886.775	20720
886.9	20921
887.025	20880
887.149	20830
887.274	20625
887.399	20571
887.523	20537
887.648	20549
887.773	20396
887.897	20613
888.021	20590
888.146	20579
888.27	20693
888.395	20606
888.519	20590
888.643	20522
888.767	20590
888.891	20499
889.015	20366
889.139	20339
889.263	20400
889.387	20473
889.511	20507
889.635	20530
889.759	20347
889.883	20370
890.006	20271
890.13	20415
890.254	20286
890.377	20206
890.501	20005
890.624	20103
890.748	20142
890.871	20035
890.995	20031
891.118	19871
891.241	19967
891.364	19913
891.488	20092
891.611	19955
891.734	19833
891.857	19967
891.98	20016
892.103	19906
892.226	19959
892.349	19864
892.471	19677
892.594	19788
892.717	19845
892.839	19814
892.962	19871
893.085	19890
893.207	19818
893.33	19795
893.452	19757
893.575	19875
893.697	19719
893.819	20016
893.941	20008
894.064	19944
894.186	19890
894.308	19837
894.43	19879
894.552	20103
894.674	19784
894.796	19651
894.918	19959
895.04	19830
895.161	19852
895.283	19890
895.405	19700
895.526	19811
895.648	19833
895.769	19868
895.891	19811
896.012	19917
896.134	19818
896.255	19890
896.376	19712
896.498	19750
896.619	19784
896.74	19811
896.861	19917
896.982	20199
897.103	20370
897.224	20084
897.345	20107
897.466	20077
897.587	20100
897.708	20176
897.828	20054
897.949	19997
898.07	19845
898.19	19989
898.311	20122
898.431	19955
898.552	20065
898.672	20107
898.792	20065
898.913	20100
899.033	19917
899.153	19807
899.273	19689
899.393	19833
899.513	19883
899.633	19814
899.753	19807
899.873	19731
899.993	19879
900.113	19761
900.232	19746
900.352	19689
900.472	19693
900.591	19651
900.711	19662
900.83	19578
900.95	19662
901.069	19719
901.189	19422
901.308	19373
901.427	19137
901.546	19297
901.665	19259
901.784	19255
901.904	19042
902.023	18996
902.141	18760
902.26	18840
902.379	18768
902.498	18669
902.617	18715
902.735	18753
902.854	18616
902.973	18635
903.091	18407
903.21	18311
903.328	18346
903.446	18327
903.565	18315
903.683	18171
903.801	18045
903.919	18171
904.038	18117
904.156	18038
904.274	18026
904.392	18041
904.51	17878
904.627	17916
904.745	17935
904.863	17954
904.981	17729
905.098	17554
905.216	17570
905.334	17657
905.451	17642
905.569	17630
905.686	17680
905.803	17707
905.921	17410
906.038	17448
906.155	17520
906.272	17334
906.389	17455
906.506	17155
906.623	17185
906.74	17185
906.857	17189
906.974	17098
907.091	17212
907.208	17166
907.324	17136
907.441	17060
907.557	16854
907.674	16930
907.79	16740
907.907	16866
908.023	16892
908.139	16889
908.256	16824
908.372	16752
908.488	16771
908.604	16660
908.72	16626
908.836	16588
908.952	16607
909.068	16634
909.184	16763
909.3	16561
909.415	16653
909.531	16527
909.647	16371
909.762	16211
909.878	16409
909.993	16413
910.108	16287
910.224	16261
910.339	16318
910.454	16131
910.57	16124
910.685	16044
910.8	16382
910.915	16310
911.03	16154
911.145	15926
911.259	15915
911.374	15907
911.489	15876
911.604	15759
911.718	15625
911.833	15694
911.947	15545
912.062	15439
912.176	15709
912.291	15633
912.405	15747
912.519	15797
912.633	15892
912.748	15717
912.862	15686
912.976	15515
913.09	15477
913.204	15405
913.318	15526
913.431	15439
913.545	15580
913.659	15553
913.772	15386
913.886	15348
914	15188
914.113	15306
914.226	15481
914.34	15218
914.453	15241
914.566	15340
914.68	15195
914.793	15077
914.906	14952
915.019	14883
915.132	14849
915.245	14921
915.358	14861
915.47	14921
915.583	14960
915.696	14929
915.809	15032
915.921	15085
916.034	14941
916.146	14857
916.259	14746
916.371	14853
916.483	14819
916.595	14800
916.708	14739
916.82	14712
916.932	14693
917.044	14777
917.156	14682
917.268	14545
917.38	14560
917.491	14480
917.603	14613
917.715	14670
917.826	14598
917.938	14598
918.049	14381
918.161	14495
918.272	14727
918.384	14617
918.495	14488
918.606	14457
918.717	14332
918.828	14328
918.939	14495
919.05	14328
919.161	14381
919.272	14123
919.383	14187
919.494	14404
919.604	14499
919.715	14412
919.826	14229
919.936	14393
920.047	14465
920.157	14317
920.267	14571
920.378	14324
920.488	14305
920.598	14476
920.708	14606
920.818	14454
920.928	14415
921.038	14667
921.148	14651
921.258	14309
921.368	14214
921.477	14119
921.587	14077
921.697	13890
921.806	14229
921.916	13887
922.025	13776
922.134	13731
922.244	13666
922.353	13712
922.462	13643
922.571	13540
922.68	13346
922.789	13346
922.898	13468
923.007	13327
923.116	13403
923.224	13419
923.333	13396
923.442	13202
923.55	13141
923.659	13221
923.767	13244
923.876	13126
923.984	13251
924.092	12985
924.201	13209
924.309	13076
924.417	13069
924.525	13008
924.633	12973
924.741	13989
924.849	12890
924.956	12916
925.064	12802
925.172	12772
925.279	12631
925.387	12814
925.494	12810
925.602	12890
925.709	12829
925.816	12734
925.924	12768
926.031	12829
926.138	12783
926.245	12810
926.352	12700
926.459	12840
926.566	12757
926.673	12703
926.779	12486
926.886	12593
926.993	12376
927.099	12319
927.206	12376
927.312	12273
927.419	12422
927.525	12304
927.631	12418
927.737	12338
927.843	12148
927.95	12091
928.056	12171
928.162	12163
928.267	12270
928.373	12878
928.479	12357
928.585	12049
928.69	12194
928.796	12121
928.901	11992
929.007	11908
929.112	12106
929.218	11999
929.323	11969
929.428	11920
929.533	12079
929.638	11828
929.743	11901
929.848	11935
929.953	11794
930.058	11726
930.163	11619
930.267	11688
930.372	11756
930.477	11570
930.581	11817
930.685	11657
930.79	11505
930.894	11573
930.998	11448
931.103	11634
931.207	11265
931.311	11193
931.415	11140
931.519	10900
931.623	10869
