Data from test_V78500241_2867.txt Node
Date: Fri Mar 25 16:01:39 CST 2022
User: usil
Spectrometer: V785-0024
Trigger mode: 0
Integration Time (sec): 4.000000E-1
Scans to average: 1
Nonlinearity correction enabled: false
Boxcar width: 0
Storing dark spectrum: false
XAxis mode: Wavelengths
Number of Pixels in Spectrum: 1024
>>>>>Begin Spectral Data<<<<<
801.071	28915
801.214	29029
801.356	28831
801.499	28618
801.641	28481
801.783	28504
801.926	28561
802.068	28531
802.211	28611
802.353	28470
802.496	28344
802.638	28268
802.78	28261
802.923	28261
803.065	28246
803.208	28246
803.35	28341
803.492	28443
803.635	28443
803.777	28546
803.919	28554
804.061	28763
804.204	28577
804.346	28523
804.488	28428
804.63	28645
804.773	28466
804.915	28573
805.057	28626
805.199	28493
805.341	28592
805.483	28672
805.626	28573
805.768	28637
805.91	28626
806.052	28740
806.194	28656
806.336	28839
806.478	28577
806.62	28740
806.762	28854
806.904	28980
807.046	29303
807.188	29220
807.33	29132
807.472	29170
807.614	29102
807.756	29136
807.898	29022
808.04	29022
808.182	28869
808.324	28972
808.465	29105
808.607	29193
808.749	29433
808.891	29433
809.033	29646
809.174	29452
809.316	29433
809.458	29193
809.6	29246
809.741	29596
809.883	29554
810.025	29741
810.166	29672
810.308	29558
810.45	29691
810.591	29642
810.733	29360
810.875	29379
811.016	29284
811.158	29326
811.299	29459
811.441	29630
811.582	29703
811.724	29360
811.865	29467
812.007	29463
812.148	29505
812.29	29509
812.431	29684
812.573	29733
812.714	29862
812.855	29843
812.997	30049
813.138	30213
813.279	29980
813.421	29874
813.562	30026
813.703	29771
813.845	29687
813.986	29463
814.127	29299
814.268	29102
814.41	29098
814.551	29212
814.692	29193
814.833	29109
814.974	29136
815.115	29136
815.256	28984
815.397	29037
815.539	29090
815.68	28972
815.821	28888
815.962	29064
816.103	29018
816.244	28774
816.385	28687
816.526	28786
816.666	28592
816.807	28512
816.948	28489
817.089	28523
817.23	28440
817.371	28329
817.512	28519
817.653	28421
817.793	28341
817.934	28390
818.075	28310
818.216	28432
818.356	28424
818.497	28268
818.638	28211
818.778	28105
818.919	28295
819.06	28204
819.2	28413
819.341	28497
819.481	28386
819.622	28664
819.762	28824
819.903	28637
820.043	28672
820.184	28592
820.324	28603
820.465	28706
820.605	28550
820.746	28531
820.886	28352
821.026	28637
821.167	28641
821.307	28516
821.447	28538
821.588	28314
821.728	28310
821.868	28074
822.008	27975
822.149	27953
822.289	27930
822.429	27762
822.569	27553
822.709	27599
822.849	27367
822.99	27351
823.13	27466
823.27	27424
823.41	27351
823.55	27123
823.69	27222
823.83	27363
823.97	27112
824.11	27062
824.25	27009
824.389	27096
824.529	27093
824.669	26986
824.809	27340
824.949	27264
825.089	27226
825.228	27199
825.368	27043
825.508	26940
825.648	26998
825.787	27047
825.927	27127
826.067	26933
826.206	26929
826.346	26925
826.485	26994
826.625	26982
826.765	27150
826.904	27001
827.044	26845
827.183	26811
827.323	26632
827.462	26735
827.601	26579
827.741	26602
827.88	26762
828.02	26606
828.159	26674
828.298	26621
828.437	26712
828.577	26651
828.716	26632
828.855	26552
828.994	26358
829.134	26366
829.273	26377
829.412	26290
829.551	26256
829.69	26389
829.829	26415
829.968	26575
830.107	26533
830.246	26423
830.385	26408
830.524	26396
830.663	26191
830.802	25982
830.941	25890
831.08	25849
831.219	25894
831.357	26084
831.496	26176
831.635	25963
831.774	25993
831.913	25742
832.051	25860
832.19	25795
832.329	25677
832.467	25719
832.606	25639
832.744	25559
832.883	25715
833.022	25715
833.16	25757
833.299	25731
833.437	25597
833.576	25807
833.714	25696
833.852	25795
833.991	25841
834.129	25837
834.267	25734
834.406	25715
834.544	25734
834.682	25715
834.821	25784
834.959	25864
835.097	25624
835.235	25784
835.373	25708
835.511	25731
835.65	25594
835.788	25590
835.926	25449
836.064	25263
836.202	25525
836.34	25556
836.478	25499
836.615	25438
836.753	25556
836.891	25620
837.029	25639
837.167	25327
837.305	25479
837.443	25479
837.58	25438
837.718	25457
837.856	25350
837.993	25244
838.131	25381
838.269	25392
838.406	25266
838.544	25312
838.681	25042
838.819	24928
838.956	24897
839.094	24741
839.231	24833
839.369	25148
839.506	25320
839.643	25057
839.781	24722
839.918	24863
840.055	24798
840.193	24798
840.33	24764
840.467	24696
840.604	24726
840.742	24954
840.879	24555
841.016	24585
841.153	24528
841.29	24772
841.427	24692
841.564	24806
841.701	24658
841.838	24681
841.975	24646
842.112	24642
842.249	24597
842.385	24445
842.522	24684
842.659	24483
842.796	24490
842.933	24502
843.069	24429
843.206	24426
843.343	24604
843.479	24563
843.616	24456
843.752	24262
843.889	24300
844.025	24330
844.162	24239
844.298	24270
844.435	24251
844.571	24216
844.708	24380
844.844	24407
844.98	24243
845.117	24342
845.253	24216
845.389	23996
845.525	24262
845.661	24060
845.798	24053
845.934	23992
846.07	23935
846.206	24041
846.342	24053
846.478	23882
846.614	23710
846.75	23596
846.886	23767
847.022	23779
847.158	23809
847.294	23741
847.429	23745
847.565	23714
847.701	23863
847.837	23509
847.972	23452
848.108	23486
848.244	23440
848.379	23284
848.515	23307
848.65	23181
848.786	23360
848.921	23246
849.057	23452
849.192	23360
849.328	23277
849.463	23307
849.598	23200
849.734	23284
849.869	23044
850.004	23220
850.14	23128
850.275	23140
850.41	22995
850.545	23056
850.68	22915
850.815	23159
850.95	23124
851.085	23162
851.22	23151
851.355	23083
851.49	23090
851.625	23044
851.76	23025
851.895	22896
852.03	22915
852.165	23048
852.299	23056
852.434	23170
852.569	23018
852.703	23086
852.838	23132
852.973	23193
853.107	23147
853.242	22904
853.376	22908
853.511	22691
853.645	22809
853.78	22980
853.914	22942
854.048	22809
854.183	22786
854.317	22984
854.451	23124
854.585	22896
854.72	22866
854.854	22984
854.988	22896
855.122	22812
855.256	22759
855.39	22858
855.524	22771
855.658	23064
855.792	22797
855.926	22847
856.06	22729
856.194	22976
856.327	22793
856.461	23025
856.595	22778
856.729	22908
856.862	23041
856.996	22809
857.13	22828
857.263	23037
857.397	23041
857.53	22763
857.664	22736
857.797	22877
857.931	22965
858.064	22953
858.197	22877
858.331	22949
858.464	22793
858.597	22793
858.731	22889
858.864	22835
858.997	22908
859.13	22771
859.263	22869
859.396	22927
859.529	22904
859.662	22820
859.795	22809
859.928	22854
860.061	23083
860.194	23079
860.327	22782
860.46	22908
860.592	22908
860.725	22999
860.858	22961
860.99	22805
861.123	22683
861.256	22831
861.388	22858
861.521	23623
861.653	22687
861.786	22573
861.918	22778
862.05	22938
862.183	22835
862.315	22843
862.447	22824
862.58	22767
862.712	22679
862.844	22626
862.976	22649
863.108	22641
863.24	23067
863.372	22542
863.504	22561
863.636	22588
863.768	22512
863.9	22535
864.032	22519
864.164	22466
864.296	22508
864.428	22580
864.559	22626
864.691	22622
864.823	22588
864.954	22637
865.086	22649
865.217	22451
865.349	22375
865.48	22447
865.612	22459
865.743	22523
865.875	22443
866.006	22398
866.137	22459
866.269	22447
866.4	22504
866.531	22363
866.662	22398
866.793	22424
866.924	22455
867.055	22424
867.186	22402
867.317	22394
867.448	22352
867.579	22337
867.71	22188
867.841	22268
867.972	22470
868.103	22238
868.233	22291
868.364	22409
868.495	22493
868.625	22694
868.756	22637
868.886	22516
869.017	22538
869.147	22618
869.278	22786
869.408	22645
869.539	22611
869.669	22611
869.799	22869
869.929	22740
870.06	22691
870.19	22923
870.32	22949
870.45	22892
870.58	22892
870.71	23094
870.84	23128
870.97	23014
871.1	23037
871.23	23124
871.36	23151
871.489	23166
871.619	23204
871.749	23193
871.879	23220
872.008	23227
872.138	23231
872.267	23105
872.397	23067
872.526	22999
872.656	23056
872.785	23117
872.915	23170
873.044	23254
873.173	23349
873.303	23239
873.432	23258
873.561	23566
873.69	23398
873.819	23330
873.948	23402
874.077	23242
874.206	23181
874.335	23189
874.464	23356
874.593	23349
874.722	23326
874.851	23436
874.979	23395
875.108	23398
875.237	23471
875.365	23337
875.494	23280
875.623	23398
875.751	23425
875.88	23417
876.008	23558
876.136	23596
876.265	23863
876.393	23916
876.521	23859
876.65	23954
876.778	23737
876.906	23786
877.034	23737
877.162	23908
877.29	23710
877.418	23798
877.546	23752
877.674	23764
877.802	23809
877.93	23813
878.058	23745
878.185	23684
878.313	23802
878.441	23783
878.568	23570
878.696	23615
878.824	23786
878.951	23874
879.079	23843
879.206	23996
879.333	23965
879.461	23760
879.588	23817
879.715	23783
879.842	24049
879.97	23874
880.097	23547
880.224	23539
880.351	23581
880.478	23516
880.605	23668
880.732	23623
880.859	23699
880.986	23672
881.112	23619
881.239	23406
881.366	23364
881.493	23265
881.619	23200
881.746	23212
881.872	23105
881.999	23193
882.125	23048
882.252	23128
882.378	23162
882.505	23200
882.631	22980
882.757	22980
882.883	22961
883.01	22866
883.136	22710
883.262	22672
883.388	22588
883.514	22809
883.64	22782
883.766	22691
883.892	22569
884.018	22645
884.143	22755
884.269	22816
884.395	22542
884.52	22367
884.646	22405
884.772	22466
884.897	22478
885.023	22561
885.148	22512
885.274	22668
885.399	22573
885.524	22493
885.65	22363
885.775	22360
885.9	22322
886.025	22504
886.15	22440
886.275	22409
886.4	22504
886.525	22519
886.65	22344
886.775	22371
886.9	22618
887.025	22622
887.149	22402
887.274	22200
887.399	22337
887.523	22280
887.648	22147
887.773	22143
887.897	22234
888.021	22306
888.146	22067
888.27	22249
888.395	22280
888.519	22287
888.643	22402
888.767	22230
888.891	22120
889.015	22154
889.139	22097
889.263	22059
889.387	22207
889.511	22291
889.635	22078
889.759	22010
889.883	21960
890.006	22055
890.13	22093
890.254	21861
890.377	21846
890.501	21819
890.624	21641
890.748	21755
890.871	21603
890.995	21591
891.118	21450
891.241	21599
891.364	21633
891.488	21728
891.611	21542
891.734	21606
891.857	21652
891.98	21564
892.103	21652
892.226	21507
892.349	21443
892.471	21386
892.594	21393
892.717	21469
892.839	21511
892.962	21553
893.085	21511
893.207	21355
893.33	21351
893.452	21374
893.575	21447
893.697	21428
893.819	21538
893.941	21629
894.064	21599
894.186	21325
894.308	21355
894.43	21408
894.552	21542
894.674	21553
894.796	21321
894.918	21450
895.04	21313
895.161	21488
895.283	21504
895.405	21443
895.526	21488
895.648	21424
895.769	21466
895.891	21542
896.012	21450
896.134	21435
896.255	21397
896.376	21424
896.498	21500
896.619	21534
896.74	21294
896.861	21454
896.982	21793
897.103	21800
897.224	21679
897.345	21629
897.466	21629
897.587	21561
897.708	21751
897.828	21564
897.949	21526
898.07	21389
898.19	21599
898.311	21580
898.431	21447
898.552	21610
898.672	21610
898.792	21728
898.913	21583
899.033	21587
899.153	21348
899.273	21233
899.393	21252
899.513	21367
899.633	21317
899.753	21363
899.873	21287
899.993	21325
900.113	21218
900.232	21378
900.352	21230
900.472	21252
900.591	21024
900.711	21108
900.83	21066
900.95	21188
901.069	21180
901.189	21043
901.308	20705
901.427	20629
901.546	20564
901.665	20663
901.784	20674
901.904	20526
902.023	20393
902.141	20305
902.26	20225
902.379	20229
902.498	20119
902.617	20046
902.735	20221
902.854	20092
902.973	20008
903.091	19879
903.21	19841
903.328	19879
903.446	19715
903.565	19582
903.683	19613
903.801	19544
903.919	19518
904.038	19582
904.156	19438
904.274	19411
904.392	19384
904.51	19335
904.627	19396
904.745	19392
904.863	19495
904.981	19103
905.098	18966
905.216	19080
905.334	18996
905.451	18973
905.569	19034
905.686	19031
905.803	19046
905.921	18840
906.038	18924
906.155	18871
906.272	18757
906.389	18719
906.506	18536
906.623	18559
906.74	18544
906.857	18395
906.974	18475
907.091	18585
907.208	18650
907.324	18563
907.441	18433
907.557	18395
907.674	18300
907.79	18247
907.907	18205
908.023	18285
908.139	18273
908.256	18091
908.372	18178
908.488	18152
908.604	17969
908.72	17965
908.836	17958
908.952	18007
909.068	17950
909.184	17950
909.3	17920
909.415	18011
909.531	18045
909.647	17771
909.762	17604
909.878	17691
909.993	17790
910.108	17532
910.224	17604
910.339	17726
910.454	17524
910.57	17459
910.685	17417
910.8	17611
910.915	17558
911.03	17493
911.145	17250
911.259	17254
911.374	17318
911.489	17174
911.604	17121
911.718	16946
911.833	16980
911.947	16927
912.062	16809
912.176	16961
912.291	17048
912.405	17041
912.519	17109
912.633	17060
912.748	17124
912.862	16965
912.976	16828
913.09	16752
913.204	16782
913.318	16824
913.431	16782
913.545	16953
913.659	16980
913.772	16744
913.886	16641
914	16615
914.113	16634
914.226	16755
914.34	16592
914.453	16428
914.566	16592
914.68	16402
914.793	16356
914.906	16196
915.019	16128
915.132	15987
915.245	16185
915.358	16230
915.47	16101
915.583	16090
915.696	16211
915.809	16276
915.921	16249
916.034	16158
916.146	16055
916.259	16112
916.371	16131
916.483	16074
916.595	15903
916.708	15968
916.82	16006
916.932	15949
917.044	15899
917.156	15762
917.268	15724
917.38	15762
917.491	15690
917.603	15701
917.715	15785
917.826	15774
917.938	15648
918.049	15538
918.161	15644
918.272	15800
918.384	15793
918.495	15762
918.606	15523
918.717	15447
918.828	15549
918.939	15447
919.05	15454
919.161	15485
919.272	15298
919.383	15355
919.494	15500
919.604	15564
919.715	15473
919.826	15412
919.936	15462
920.047	15542
920.157	15443
920.267	15526
920.378	15386
920.488	15428
920.598	15599
920.708	15781
920.818	15545
920.928	15496
921.038	15705
921.148	15759
921.258	15310
921.368	15283
921.477	15256
921.587	15138
921.697	15062
921.806	15135
921.916	14979
922.025	14804
922.134	14800
922.244	14826
922.353	14857
922.462	14629
922.571	14655
922.68	14385
922.789	14309
922.898	14461
923.007	14427
923.116	14358
923.224	14438
923.333	14328
923.442	14324
923.55	14225
923.659	14324
923.767	14339
923.876	14225
923.984	14252
924.092	14084
924.201	14161
924.309	14180
924.417	14084
924.525	14050
924.633	14107
924.741	15017
924.849	13864
924.956	14069
925.064	13833
925.172	13761
925.279	13811
925.387	13818
925.494	13723
925.602	13860
925.709	13868
925.816	13632
925.924	13746
926.031	13772
926.138	13719
926.245	13818
926.352	13677
926.459	13723
926.566	13769
926.673	13594
926.779	13502
926.886	13487
926.993	13392
927.099	13327
927.206	13259
927.312	13320
927.419	13445
927.525	13240
927.631	13240
927.737	13247
927.843	13232
927.95	13023
928.056	13099
928.162	13091
928.267	13278
928.373	13761
928.479	13282
928.585	12878
928.69	13061
928.796	13050
928.901	13000
929.007	12833
929.112	13065
929.218	12981
929.323	12924
929.428	12825
929.533	12871
929.638	12833
929.743	12722
929.848	12764
929.953	12787
930.058	12646
930.163	12509
930.267	12627
930.372	12589
930.477	12410
930.581	12734
930.685	12578
930.79	12361
930.894	12441
930.998	12365
931.103	12490
931.207	12091
931.311	12098
931.415	11904
931.519	11688
931.623	11764
