Data from test_V78500241_2089.txt Node
Date: Fri Mar 25 15:56:16 CST 2022
User: usil
Spectrometer: V785-0024
Trigger mode: 0
Integration Time (sec): 4.000000E-1
Scans to average: 1
Nonlinearity correction enabled: false
Boxcar width: 0
Storing dark spectrum: false
XAxis mode: Wavelengths
Number of Pixels in Spectrum: 1024
>>>>>Begin Spectral Data<<<<<
801.071	28405
801.214	28398
801.356	28150
801.499	28226
801.641	28025
801.783	28074
801.926	28128
802.068	27937
802.211	28017
802.353	27857
802.496	27720
802.638	27743
802.78	27629
802.923	27652
803.065	27557
803.208	27622
803.35	27705
803.492	27793
803.635	27922
803.777	27755
803.919	27918
804.061	28219
804.204	28021
804.346	27914
804.488	27701
804.63	27953
804.773	27964
804.915	27983
805.057	28063
805.199	27884
805.341	28040
805.483	28177
805.626	28200
805.768	28006
805.91	28158
806.052	28223
806.194	27956
806.336	28162
806.478	28029
806.62	28055
806.762	28131
806.904	28310
807.046	28497
807.188	28523
807.33	28516
807.472	28653
807.614	28500
807.756	28565
807.898	28379
808.04	28280
808.182	28409
808.324	28428
808.465	28508
808.607	28626
808.749	28706
808.891	28968
809.033	28915
809.174	28812
809.316	28759
809.458	28683
809.6	28683
809.741	28892
809.883	28908
810.025	29094
810.166	29006
810.308	28999
810.45	28972
810.591	28972
810.733	28873
810.875	28694
811.016	28733
811.158	28649
811.299	28888
811.441	28831
811.582	28911
811.724	28854
811.865	28744
812.007	28656
812.148	28835
812.29	28729
812.431	28888
812.573	29159
812.714	28911
812.855	29242
812.997	29353
813.138	29490
813.279	29395
813.421	29387
813.562	29197
813.703	29075
813.845	28953
813.986	28763
814.127	28599
814.268	28531
814.41	28519
814.551	28413
814.692	28405
814.833	28367
814.974	28337
815.115	28481
815.256	28394
815.397	28348
815.539	28367
815.68	28367
815.821	28219
815.962	28333
816.103	28310
816.244	28013
816.385	28040
816.526	28109
816.666	27918
816.807	27937
816.948	27831
817.089	27804
817.23	27918
817.371	27827
817.512	27743
817.653	27808
817.793	27709
817.934	27698
818.075	27671
818.216	27751
818.356	27808
818.497	27561
818.638	27507
818.778	27580
818.919	27614
819.06	27587
819.2	27656
819.341	27732
819.481	27720
819.622	27911
819.762	28109
819.903	27979
820.043	28048
820.184	28010
820.324	27861
820.465	27949
820.605	27960
820.746	27911
820.886	27743
821.026	27880
821.167	27713
821.307	27949
821.447	27842
821.588	27652
821.728	27660
821.868	27408
822.008	27233
822.149	27218
822.289	27214
822.429	26960
822.569	26986
822.709	26921
822.849	26644
822.99	26773
823.13	26743
823.27	26758
823.41	26613
823.55	26587
823.69	26575
823.83	26613
823.97	26511
824.11	26347
824.25	26499
824.389	26488
824.529	26659
824.669	26457
824.809	26514
824.949	26461
825.089	26590
825.228	26381
825.368	26229
825.508	26172
825.648	26187
825.787	26381
825.927	26343
826.067	26309
826.206	26317
826.346	26400
826.485	26328
826.625	26343
826.765	26377
826.904	26358
827.044	26081
827.183	25932
827.323	25894
827.462	26073
827.601	26084
827.741	25974
827.88	25951
828.02	25814
828.159	25898
828.298	26077
828.437	26035
828.577	25814
828.716	26058
828.855	25826
828.994	25578
829.134	25616
829.273	25788
829.412	25700
829.551	25613
829.69	25620
829.829	25791
829.968	25826
830.107	25731
830.246	25658
830.385	25609
830.524	25502
830.663	25400
830.802	25514
830.941	25266
831.08	25118
831.219	25377
831.357	25472
831.496	25453
831.635	25247
831.774	25156
831.913	25217
832.051	25232
832.19	25076
832.329	25031
832.467	25042
832.606	25012
832.744	24863
832.883	24939
833.022	24859
833.16	24966
833.299	24989
833.437	25103
833.576	24973
833.714	24890
833.852	25050
833.991	25202
834.129	25171
834.267	25072
834.406	24970
834.544	25072
834.682	25053
834.821	25046
834.959	25137
835.097	24973
835.235	25031
835.373	24977
835.511	24939
835.65	24814
835.788	24867
835.926	24825
836.064	24570
836.202	24688
836.34	24859
836.478	25027
836.615	24867
836.753	24859
836.891	24882
837.029	24905
837.167	24719
837.305	24719
837.443	24741
837.58	24608
837.718	24681
837.856	24642
837.993	24639
838.131	24669
838.269	24437
838.406	24612
838.544	24441
838.681	24391
838.819	24372
838.956	24136
839.094	24125
839.231	24235
839.369	24121
839.506	24452
839.643	24403
839.781	24121
839.918	24072
840.055	24197
840.193	23980
840.33	24011
840.467	24041
840.604	24049
840.742	24361
840.879	23874
841.016	24011
841.153	23965
841.29	24186
841.427	23996
841.564	24091
841.701	24038
841.838	23939
841.975	24026
842.112	23992
842.249	23908
842.385	23756
842.522	24049
842.659	23836
842.796	23695
842.933	23794
843.069	23741
843.206	23775
843.343	23916
843.479	23809
843.616	23821
843.752	23604
843.889	23573
844.025	23684
844.162	23490
844.298	23646
844.435	23512
844.571	23665
844.708	23573
844.844	23627
844.98	23745
845.117	23687
845.253	23410
845.389	23490
845.525	23505
845.661	23478
845.798	23246
845.934	23303
846.07	23185
846.206	23284
846.342	23444
846.478	23311
846.614	23003
846.75	22980
846.886	23022
847.022	23060
847.158	23056
847.294	23014
847.429	23071
847.565	22957
847.701	23235
847.837	22660
847.972	22733
848.108	22828
848.244	22968
848.379	22599
848.515	22615
848.65	22554
848.786	22542
848.921	22565
849.057	22675
849.192	22793
849.328	22573
849.463	22557
849.598	22523
849.734	22516
849.869	22455
850.004	22386
850.14	22493
850.275	22348
850.41	22352
850.545	22310
850.68	22363
850.815	22291
850.95	22428
851.085	22500
851.22	22466
851.355	22382
851.49	22371
851.625	22341
851.76	22447
851.895	22291
852.03	22177
852.165	22367
852.299	22512
852.434	22382
852.569	22371
852.703	22382
852.838	22440
852.973	22565
853.107	22561
853.242	22367
853.376	22120
853.511	22040
853.645	22196
853.78	22295
853.914	22257
854.048	22230
854.183	22150
854.317	22230
854.451	22276
854.585	22169
854.72	22173
854.854	22226
854.988	22082
855.122	22242
855.256	22112
855.39	22109
855.524	22257
855.658	22226
855.792	22318
855.926	22090
856.06	22238
856.194	22211
856.327	22261
856.461	22166
856.595	22078
856.729	22310
856.862	22295
856.996	22257
857.13	22204
857.263	22398
857.397	22173
857.53	22223
857.664	22295
857.797	22265
857.931	22325
858.064	22284
858.197	22280
858.331	22166
858.464	22272
858.597	22048
858.731	22223
858.864	22204
858.997	22173
859.13	22295
859.263	22253
859.396	22249
859.529	22185
859.662	22337
859.795	22249
859.928	22200
860.061	22462
860.194	22440
860.327	22291
860.46	22272
860.592	22436
860.725	22306
860.858	22375
860.99	22188
861.123	22207
861.256	22135
861.388	22234
861.521	23010
861.653	21937
861.786	22006
861.918	22082
862.05	22044
862.183	22074
862.315	22219
862.447	22268
862.58	22181
862.712	21960
862.844	21698
862.976	21945
863.108	22036
863.24	22382
863.372	21918
863.504	21945
863.636	21892
863.768	21975
863.9	22040
864.032	21918
864.164	21964
864.296	21915
864.428	21991
864.559	21956
864.691	22002
864.823	21994
864.954	21956
865.086	21895
865.217	21884
865.349	21835
865.48	21774
865.612	21884
865.743	21953
865.875	21934
866.006	21743
866.137	21831
866.269	21804
866.4	21701
866.531	21743
866.662	21671
866.793	21690
866.924	21663
867.055	21656
867.186	21698
867.317	21694
867.448	21705
867.579	21808
867.71	21705
867.841	21739
867.972	21743
868.103	21675
868.233	21732
868.364	21743
868.495	21762
868.625	22006
868.756	22105
868.886	21816
869.017	21922
869.147	22116
869.278	22090
869.408	21983
869.539	22017
869.669	22063
869.799	21991
869.929	22002
870.06	21998
870.19	22139
870.32	22196
870.45	22375
870.58	22379
870.71	22451
870.84	22402
870.97	22291
871.1	22314
871.23	22653
871.36	22664
871.489	22360
871.619	22565
871.749	22596
871.879	22599
872.008	22668
872.138	22542
872.267	22592
872.397	22569
872.526	22352
872.656	22421
872.785	22322
872.915	22535
873.044	22675
873.173	22679
873.303	22592
873.432	22641
873.561	22641
873.69	22622
873.819	22565
873.948	22611
874.077	22645
874.206	22500
874.335	22538
874.464	22755
874.593	22812
874.722	22843
874.851	22850
874.979	22797
875.108	22908
875.237	22839
875.365	22668
875.494	22755
875.623	22877
875.751	22771
875.88	22881
876.008	22942
876.136	23014
876.265	23246
876.393	23322
876.521	23208
876.65	23341
876.778	23239
876.906	23060
877.034	23136
877.162	23094
877.29	23041
877.418	23200
877.546	23322
877.674	23174
877.802	23197
877.93	23094
878.058	23090
878.185	23044
878.313	23159
878.441	23083
878.568	23071
878.696	23025
878.824	23223
878.951	23200
879.079	23330
879.206	23585
879.333	23315
879.461	23220
879.588	23288
879.715	23280
879.842	23406
879.97	23212
880.097	22965
880.224	22949
880.351	23003
880.478	23090
880.605	22930
880.732	22850
880.859	23261
880.986	22919
881.112	22976
881.239	22778
881.366	22725
881.493	22717
881.619	22611
881.746	22599
881.872	22626
881.999	22493
882.125	22466
882.252	22698
882.378	22375
882.505	22668
882.631	22333
882.757	22204
882.883	22348
883.01	22265
883.136	22173
883.262	22116
883.388	21991
883.514	22040
883.64	22207
883.766	22181
883.892	21975
884.018	21903
884.143	22211
884.269	22276
884.395	21880
884.52	21873
884.646	21930
884.772	21808
884.897	21694
885.023	21880
885.148	21899
885.274	21991
885.399	21922
885.524	21819
885.65	21911
885.775	21975
885.9	21827
886.025	22010
886.15	21873
886.275	21930
886.4	21846
886.525	21926
886.65	21854
886.775	21762
886.9	21911
887.025	21945
887.149	21857
887.274	21606
887.399	21679
887.523	21648
887.648	21610
887.773	21450
887.897	21686
888.021	21701
888.146	21583
888.27	21622
888.395	21675
888.519	21709
888.643	21641
888.767	21633
888.891	21553
889.015	21488
889.139	21408
889.263	21351
889.387	21530
889.511	21637
889.635	21485
889.759	21435
889.883	21420
890.006	21359
890.13	21511
890.254	21351
890.377	21408
890.501	21260
890.624	21104
890.748	21241
890.871	21081
890.995	20891
891.118	20906
891.241	20925
891.364	21020
891.488	21199
891.611	21009
891.734	21020
891.857	21112
891.98	20963
892.103	20990
892.226	20960
892.349	20982
892.471	20765
892.594	20895
892.717	20891
892.839	20864
892.962	20864
893.085	20952
893.207	20754
893.33	20731
893.452	20720
893.575	20971
893.697	20880
893.819	21062
893.941	21036
894.064	20933
894.186	20769
894.308	20678
894.43	20982
894.552	21028
894.674	20937
894.796	20785
894.918	20857
895.04	20823
895.161	20880
895.283	20819
895.405	20826
895.526	20697
895.648	20777
895.769	20891
895.891	20788
896.012	20982
896.134	20857
896.255	20823
896.376	20716
896.498	20834
896.619	20834
896.74	20883
896.861	20811
896.982	21104
897.103	21348
897.224	21180
897.345	21173
897.466	20998
897.587	21017
897.708	21157
897.828	21108
897.949	20986
898.07	20861
898.19	20948
898.311	21077
898.431	21108
898.552	20906
898.672	21199
898.792	21043
898.913	21058
899.033	20941
899.153	20792
899.273	20712
899.393	20735
899.513	20826
899.633	20746
899.753	20785
899.873	20686
899.993	20708
900.113	20682
900.232	20788
900.352	20575
900.472	20549
900.591	20499
900.711	20575
900.83	20530
900.95	20678
901.069	20564
901.189	20434
901.308	20199
901.427	20096
901.546	20077
901.665	20145
901.784	20058
901.904	20008
902.023	19856
902.141	19677
902.26	19780
902.379	19753
902.498	19616
902.617	19480
902.735	19719
902.854	19594
902.973	19483
903.091	19354
903.21	19381
903.328	19316
903.446	19190
903.565	19168
903.683	19072
903.801	18840
903.919	19072
904.038	19038
904.156	18901
904.274	18825
904.392	18776
904.51	18829
904.627	18787
904.745	18772
904.863	18962
904.981	18661
905.098	18486
905.216	18426
905.334	18513
905.451	18502
905.569	18532
905.686	18464
905.803	18506
905.921	18319
906.038	18399
906.155	18292
906.272	18209
906.389	18254
906.506	17980
906.623	18064
906.74	18011
906.857	17878
906.974	18072
907.091	18057
907.208	18144
907.324	18034
907.441	17828
907.557	17805
907.674	17832
907.79	17672
907.907	17756
908.023	17783
908.139	17733
908.256	17665
908.372	17634
908.488	17566
908.604	17516
908.72	17387
908.836	17543
908.952	17429
909.068	17490
909.184	17630
909.3	17463
909.415	17391
909.531	17406
909.647	17246
909.762	17178
909.878	17098
909.993	17098
910.108	17136
910.224	17052
910.339	17113
910.454	16911
910.57	16889
910.685	16934
910.8	17159
910.915	17067
911.03	16866
911.145	16683
911.259	16649
911.374	16759
911.489	16698
911.604	16588
911.718	16516
911.833	16516
911.947	16405
912.062	16249
912.176	16519
912.291	16504
912.405	16527
912.519	16649
912.633	16618
912.748	16573
912.862	16535
912.976	16344
913.09	16124
913.204	16268
913.318	16257
913.431	16409
913.545	16318
913.659	16287
913.772	16223
913.886	16196
914	16101
914.113	16120
914.226	16181
914.34	16143
914.453	15998
914.566	16059
914.68	15949
914.793	16017
914.906	15705
915.019	15720
915.132	15652
915.245	15618
915.358	15633
915.47	15641
915.583	15686
915.696	15698
915.809	15793
915.921	15797
916.034	15648
916.146	15542
916.259	15587
916.371	15648
916.483	15633
916.595	15450
916.708	15424
916.82	15428
916.932	15542
917.044	15435
917.156	15359
917.268	15325
917.38	15325
917.491	15306
917.603	15393
917.715	15397
917.826	15469
917.938	15252
918.049	15138
918.161	15165
918.272	15332
918.384	15397
918.495	15294
918.606	15070
918.717	15070
918.828	15097
918.939	15070
919.05	14956
919.161	15009
919.272	14727
919.383	14963
919.494	15142
919.604	15081
919.715	14857
919.826	14933
919.936	14967
920.047	15074
920.157	15112
920.267	15176
920.378	14967
920.488	14971
920.598	15211
920.708	15294
920.818	15192
920.928	15062
921.038	15340
921.148	15176
921.258	14929
921.368	14815
921.477	14796
921.587	14765
921.697	14526
921.806	14727
921.916	14484
922.025	14434
922.134	14419
922.244	14446
922.353	14328
922.462	14271
922.571	14202
922.68	13982
922.789	14024
922.898	13951
923.007	13959
923.116	14024
923.224	13970
923.333	13978
923.442	13719
923.55	13750
923.659	13902
923.767	13871
923.876	13761
923.984	13868
924.092	13666
924.201	13803
924.309	13723
924.417	13746
924.525	13708
924.633	13674
924.741	14568
924.849	13476
924.956	13647
925.064	13540
925.172	13400
925.279	13419
925.387	13460
925.494	13407
925.602	13552
925.709	13426
925.816	13282
925.924	13343
926.031	13407
926.138	13343
926.245	13415
926.352	13244
926.459	13419
926.566	13339
926.673	13213
926.779	13149
926.886	13065
926.993	12947
927.099	13000
927.206	12802
927.312	12897
927.419	13004
927.525	12909
927.631	12985
927.737	12886
927.843	12837
927.95	12658
928.056	12703
928.162	12791
928.267	12844
928.373	13422
928.479	12863
928.585	12593
928.69	12669
928.796	12764
928.901	12639
929.007	12448
929.112	12525
929.218	12639
929.323	12448
929.428	12429
929.533	12601
929.638	12467
929.743	12304
929.848	12517
929.953	12414
930.058	12209
930.163	12159
930.267	12098
930.372	12224
930.477	12076
930.581	12285
930.685	12216
930.79	12045
930.894	12095
930.998	12049
931.103	12178
931.207	11756
931.311	11695
931.415	11566
931.519	11433
931.623	11455
