Data from test_V78500241_987.txt Node
Date: Fri Mar 25 15:48:38 CST 2022
User: usil
Spectrometer: V785-0024
Trigger mode: 0
Integration Time (sec): 4.000000E-1
Scans to average: 1
Nonlinearity correction enabled: false
Boxcar width: 0
Storing dark spectrum: false
XAxis mode: Wavelengths
Number of Pixels in Spectrum: 1024
>>>>>Begin Spectral Data<<<<<
801.071	28158
801.214	28105
801.356	27869
801.499	27846
801.641	27770
801.783	27709
801.926	27724
802.068	27800
802.211	27679
802.353	27633
802.496	27496
802.638	27378
802.78	27317
802.923	27458
803.065	27287
803.208	27496
803.35	27420
803.492	27427
803.635	27587
803.777	27462
803.919	27686
804.061	28044
804.204	27774
804.346	27515
804.488	27454
804.63	27603
804.773	27481
804.915	27675
805.057	27675
805.199	27762
805.341	27622
805.483	27918
805.626	27743
805.768	27610
805.91	27774
806.052	27789
806.194	27701
806.336	27991
806.478	27778
806.62	27774
806.762	28025
806.904	28078
807.046	28382
807.188	28284
807.33	28192
807.472	28314
807.614	28219
807.756	28139
807.898	28207
808.04	28078
808.182	28124
808.324	28204
808.465	28215
808.607	28413
808.749	28493
808.891	28504
809.033	28767
809.174	28641
809.316	28348
809.458	28436
809.6	28322
809.741	28497
809.883	28432
810.025	28782
810.166	28706
810.308	28759
810.45	28710
810.591	28641
810.733	28504
810.875	28554
811.016	28478
811.158	28466
811.299	28725
811.441	28554
811.582	28782
811.724	28424
811.865	28470
812.007	28512
812.148	28504
812.29	28379
812.431	28706
812.573	28679
812.714	28790
812.855	28858
812.997	29155
813.138	29124
813.279	29109
813.421	28949
813.562	28900
813.703	28713
813.845	28710
813.986	28322
814.127	28265
814.268	28230
814.41	28238
814.551	28105
814.692	28329
814.833	28128
814.974	28093
815.115	28219
815.256	27956
815.397	28055
815.539	27960
815.68	28006
815.821	27880
815.962	28055
816.103	28105
816.244	27888
816.385	27823
816.526	27793
816.666	27614
816.807	27485
816.948	27500
817.089	27500
817.23	27542
817.371	27500
817.512	27355
817.653	27393
817.793	27561
817.934	27481
818.075	27580
818.216	27595
818.356	27355
818.497	27386
818.638	27116
818.778	27211
818.919	27222
819.06	27363
819.2	27359
819.341	27427
819.481	27386
819.622	27515
819.762	27766
819.903	27679
820.043	27709
820.184	27553
820.324	27564
820.465	27572
820.605	27660
820.746	27538
820.886	27329
821.026	27610
821.167	27572
821.307	27595
821.447	27397
821.588	27275
821.728	27169
821.868	27192
822.008	27039
822.149	26971
822.289	26933
822.429	26705
822.569	26686
822.709	26640
822.849	26606
822.99	26442
823.13	26526
823.27	26389
823.41	26206
823.55	26256
823.69	26377
823.83	26313
823.97	26408
824.11	26065
824.25	26020
824.389	26134
824.529	26298
824.669	26122
824.809	26225
824.949	26157
825.089	26221
825.228	26244
825.368	25963
825.508	25997
825.648	25963
825.787	26050
825.927	26081
826.067	25875
826.206	26050
826.346	26031
826.485	25997
826.625	25955
826.765	25955
826.904	26058
827.044	25727
827.183	25723
827.323	25662
827.462	25635
827.601	25712
827.741	25715
827.88	25689
828.02	25510
828.159	25681
828.298	25685
828.437	25628
828.577	25666
828.716	25708
828.855	25624
828.994	25434
829.134	25312
829.273	25499
829.412	25430
829.551	25293
829.69	25400
829.829	25388
829.968	25476
830.107	25392
830.246	25221
830.385	25316
830.524	25270
830.663	25133
830.802	25141
830.941	25038
831.08	24913
831.219	25129
831.357	25031
831.496	25141
831.635	24977
831.774	24875
831.913	24878
832.051	24806
832.19	24711
832.329	24837
832.467	24665
832.606	24654
832.744	24646
832.883	24559
833.022	24585
833.16	24722
833.299	24631
833.437	24890
833.576	24700
833.714	24730
833.852	24757
833.991	24768
834.129	24810
834.267	24882
834.406	24601
834.544	24745
834.682	24631
834.821	24608
834.959	24886
835.097	24608
835.235	24791
835.373	24734
835.511	24726
835.65	24536
835.788	24513
835.926	24395
836.064	24232
836.202	24410
836.34	24540
836.478	24540
836.615	24410
836.753	24483
836.891	24585
837.029	24551
837.167	24597
837.305	24429
837.443	24319
837.58	24391
837.718	24471
837.856	24422
837.993	24346
838.131	24308
838.269	24205
838.406	24323
838.544	24292
838.681	24155
838.819	23942
838.956	23847
839.094	23851
839.231	23878
839.369	24030
839.506	24098
839.643	24140
839.781	23817
839.918	23809
840.055	23885
840.193	23893
840.33	23764
840.467	23726
840.604	23722
840.742	23935
840.879	23646
841.016	23729
841.153	23543
841.29	23855
841.427	23699
841.564	23756
841.701	23718
841.838	23771
841.975	23695
842.112	23547
842.249	23623
842.385	23516
842.522	23832
842.659	23646
842.796	23535
842.933	23543
843.069	23395
843.206	23497
843.343	23554
843.479	23539
843.616	23531
843.752	23254
843.889	23353
844.025	23501
844.162	23277
844.298	23311
844.435	23284
844.571	23280
844.708	23322
844.844	23528
844.98	23414
845.117	23307
845.253	23265
845.389	23094
845.525	23143
845.661	23109
845.798	23075
845.934	23086
846.07	22927
846.206	23025
846.342	23075
846.478	22953
846.614	22812
846.75	22550
846.886	22748
847.022	22710
847.158	22774
847.294	22881
847.429	22790
847.565	22637
847.701	23094
847.837	22466
847.972	22519
848.108	22569
848.244	22436
848.379	22428
848.515	22234
848.65	22280
848.786	22363
848.921	22394
849.057	22493
849.192	22348
849.328	22466
849.463	22367
849.598	22200
849.734	22120
849.869	22211
850.004	22067
850.14	22063
850.275	22207
850.41	21972
850.545	22006
850.68	22010
850.815	22204
850.95	22116
851.085	22367
851.22	22196
851.355	22025
851.49	22215
851.625	22051
851.76	22063
851.895	22048
852.03	22044
852.165	21964
852.299	22200
852.434	22158
852.569	22048
852.703	22048
852.838	22139
852.973	22207
853.107	22204
853.242	22017
853.376	21934
853.511	21838
853.645	21831
853.78	21937
853.914	21975
854.048	21922
854.183	21778
854.317	21991
854.451	22101
854.585	21937
854.72	21903
854.854	21998
854.988	21972
855.122	21926
855.256	21842
855.39	21926
855.524	21899
855.658	21922
855.792	21884
855.926	21934
856.06	21934
856.194	22017
856.327	21819
856.461	21842
856.595	21895
856.729	21812
856.862	22158
856.996	21975
857.13	21911
857.263	21941
857.397	21949
857.53	21945
857.664	22040
857.797	21903
857.931	21960
858.064	21800
858.197	22021
858.331	21968
858.464	21816
858.597	21747
858.731	21819
858.864	21960
858.997	21953
859.13	21949
859.263	22048
859.396	22112
859.529	21895
859.662	21854
859.795	21774
859.928	21915
860.061	22169
860.194	22112
860.327	22082
860.46	21994
860.592	21994
860.725	22090
860.858	22059
860.99	21934
861.123	21789
861.256	21926
861.388	21937
861.521	22664
861.653	21785
861.786	21629
861.918	21785
862.05	21842
862.183	21804
862.315	21838
862.447	21888
862.58	21812
862.712	21629
862.844	21492
862.976	21732
863.108	21705
863.24	22006
863.372	21622
863.504	21625
863.636	21633
863.768	21644
863.9	21606
864.032	21485
864.164	21633
864.296	21781
864.428	21766
864.559	21671
864.691	21751
864.823	21561
864.954	21568
865.086	21603
865.217	21488
865.349	21378
865.48	21564
865.612	21553
865.743	21660
865.875	21583
866.006	21561
866.137	21595
866.269	21538
866.4	21572
866.531	21462
866.662	21549
866.793	21473
866.924	21462
867.055	21469
867.186	21443
867.317	21405
867.448	21298
867.579	21481
867.71	21367
867.841	21344
867.972	21420
868.103	21359
868.233	21447
868.364	21473
868.495	21538
868.625	21682
868.756	21732
868.886	21595
869.017	21618
869.147	21842
869.278	21861
869.408	21682
869.539	21618
869.669	21785
869.799	21698
869.929	21797
870.06	21865
870.19	21785
870.32	21964
870.45	22051
870.58	22010
870.71	22223
870.84	22261
870.97	22063
871.1	22097
871.23	22272
871.36	22215
871.489	22044
871.619	22188
871.749	22310
871.879	22272
872.008	22367
872.138	22204
872.267	22246
872.397	22120
872.526	22017
872.656	22059
872.785	22143
872.915	22265
873.044	22489
873.173	22360
873.303	22310
873.432	22417
873.561	22417
873.69	22322
873.819	22261
873.948	22272
874.077	22177
874.206	22284
874.335	22207
874.464	22493
874.593	22516
874.722	22523
874.851	22592
874.979	22497
875.108	22432
875.237	22428
875.365	22481
875.494	22417
875.623	22550
875.751	22417
875.88	22516
876.008	22599
876.136	22774
876.265	22915
876.393	23018
876.521	22896
876.65	22980
876.778	22923
876.906	22881
877.034	22847
877.162	22847
877.29	22839
877.418	22919
877.546	22896
877.674	22858
877.802	22755
877.93	22900
878.058	22706
878.185	22698
878.313	22725
878.441	22835
878.568	22721
878.696	22839
878.824	22858
878.951	22904
879.079	23018
879.206	23094
879.333	23014
879.461	22877
879.588	22896
879.715	23064
879.842	23204
879.97	22968
880.097	22645
880.224	22656
880.351	22618
880.478	22831
880.605	22630
880.732	22656
880.859	22927
880.986	22637
881.112	22778
881.239	22546
881.366	22360
881.493	22379
881.619	22333
881.746	22325
881.872	22310
881.999	22143
882.125	22215
882.252	22325
882.378	22268
882.505	22375
882.631	22082
882.757	22021
882.883	21903
883.01	21975
883.136	21869
883.262	21694
883.388	21728
883.514	21975
883.64	21987
883.766	21876
883.892	21633
884.018	21774
884.143	21930
884.269	21964
884.395	21587
884.52	21530
884.646	21504
884.772	21504
884.897	21572
885.023	21580
885.148	21625
885.274	21625
885.399	21553
885.524	21656
885.65	21481
885.775	21599
885.9	21625
886.025	21690
886.15	21591
886.275	21599
886.4	21424
886.525	21515
886.65	21389
886.775	21485
886.9	21686
887.025	21800
887.149	21606
887.274	21329
887.399	21382
887.523	21393
887.648	21249
887.773	21184
887.897	21359
888.021	21443
888.146	21199
888.27	21458
888.395	21447
888.519	21397
888.643	21252
888.767	21355
888.891	21207
889.015	21081
889.139	21138
889.263	21085
889.387	21173
889.511	21374
889.635	21310
889.759	21192
889.883	21058
890.006	21180
890.13	21108
890.254	21039
890.377	21032
890.501	20739
890.624	20834
890.748	20933
890.871	20762
890.995	20663
891.118	20705
891.241	20606
891.364	20598
891.488	20731
891.611	20693
891.734	20727
891.857	20674
891.98	20663
892.103	20792
892.226	20602
892.349	20552
892.471	20571
892.594	20663
892.717	20651
892.839	20724
892.962	20739
893.085	20613
893.207	20537
893.33	20503
893.452	20499
893.575	20575
893.697	20522
893.819	20735
893.941	20891
894.064	20887
894.186	20511
894.308	20568
894.43	20693
894.552	20686
894.674	20686
894.796	20431
894.918	20568
895.04	20476
895.161	20743
895.283	20587
895.405	20511
895.526	20621
895.648	20613
895.769	20556
895.891	20640
896.012	20560
896.134	20621
896.255	20636
896.376	20556
896.498	20579
896.619	20629
896.74	20495
896.861	20625
896.982	20868
897.103	21062
897.224	20876
897.345	20689
897.466	20731
897.587	20872
897.708	20906
897.828	20792
897.949	20746
898.07	20602
898.19	20625
898.311	20811
898.431	20648
898.552	20792
898.672	20826
898.792	20796
898.913	20838
899.033	20617
899.153	20648
899.273	20541
899.393	20537
899.513	20606
899.633	20465
899.753	20511
899.873	20541
899.993	20377
900.113	20267
900.232	20503
900.352	20476
900.472	20385
900.591	20187
900.711	20301
900.83	20301
900.95	20290
901.069	20271
901.189	20134
901.308	19959
901.427	19936
901.546	19909
901.665	19826
901.784	19921
901.904	19803
902.023	19624
902.141	19377
902.26	19335
902.379	19529
902.498	19392
902.617	19247
902.735	19327
902.854	19472
902.973	19190
903.091	19057
903.21	19038
903.328	18970
903.446	18985
903.565	18772
903.683	18958
903.801	18711
903.919	18817
904.038	18665
904.156	18604
904.274	18620
904.392	18593
904.51	18525
904.627	18566
904.745	18730
904.863	18661
904.981	18460
905.098	18285
905.216	18251
905.334	18243
905.451	18319
905.569	18254
905.686	18369
905.803	18315
905.921	18155
906.038	18167
906.155	18114
906.272	17897
906.389	17939
906.506	17764
906.623	17920
906.74	17790
906.857	17821
906.974	17672
907.091	17824
907.208	17958
907.324	17893
907.441	17794
907.557	17516
907.674	17497
907.79	17448
907.907	17440
908.023	17444
908.139	17505
908.256	17455
908.372	17360
908.488	17265
908.604	17303
908.72	17193
908.836	17204
908.952	17166
909.068	17235
909.184	17322
909.3	17216
909.415	17299
909.531	17147
909.647	16885
909.762	16995
909.878	16972
909.993	16957
910.108	16881
910.224	16930
910.339	16797
910.454	16869
910.57	16660
910.685	16694
910.8	16987
910.915	17006
911.03	16618
911.145	16565
911.259	16531
911.374	16512
911.489	16390
911.604	16314
911.718	16299
911.833	16223
911.947	16173
912.062	16169
912.176	16363
912.291	16310
912.405	16333
912.519	16512
912.633	16440
912.748	16230
912.862	16265
912.976	16150
913.09	16044
913.204	15972
913.318	16093
913.431	16143
913.545	16173
913.659	16280
913.772	16093
913.886	15892
914	15880
914.113	15941
914.226	15983
914.34	15972
914.453	15603
914.566	15857
914.68	15793
914.793	15724
914.906	15633
915.019	15496
915.132	15408
915.245	15515
915.358	15561
915.47	15420
915.583	15443
915.696	15591
915.809	15656
915.921	15625
916.034	15329
916.146	15310
916.259	15329
916.371	15515
916.483	15500
916.595	15218
916.708	15294
916.82	15370
916.932	15192
917.044	15230
917.156	15237
917.268	15116
917.38	15146
917.491	15146
917.603	15097
917.715	15154
917.826	15066
917.938	15074
918.049	14998
918.161	15135
918.272	15135
918.384	15081
918.495	15047
918.606	14872
918.717	14842
918.828	14944
918.939	14963
919.05	14731
919.161	14864
919.272	14689
919.383	14739
919.494	14842
919.604	15001
919.715	14819
919.826	14743
919.936	14716
920.047	14891
920.157	14902
920.267	15020
920.378	14868
920.488	14750
920.598	14902
920.708	15165
920.818	14937
920.928	14975
921.038	15154
921.148	15081
921.258	14872
921.368	14682
921.477	14514
921.587	14499
921.697	14434
921.806	14507
921.916	14423
922.025	14278
922.134	14229
922.244	14142
922.353	14240
922.462	14073
922.571	13986
922.68	13833
922.789	13883
922.898	13883
923.007	13719
923.116	13845
923.224	13822
923.333	13784
923.442	13731
923.55	13674
923.659	13700
923.767	13666
923.876	13582
923.984	13636
924.092	13491
924.201	13514
924.309	13510
924.417	13552
924.525	13559
924.633	13441
924.741	14488
924.849	13232
924.956	13384
925.064	13354
925.172	13171
925.279	13209
925.387	13255
925.494	13282
925.602	13453
925.709	13301
925.816	13118
925.924	13202
926.031	13221
926.138	13209
926.245	13175
926.352	13091
926.459	13194
926.566	13225
926.673	13012
926.779	13031
926.886	12875
926.993	12726
927.099	12806
927.206	12764
927.312	12741
927.419	12776
927.525	12791
927.631	12798
927.737	12684
927.843	12593
927.95	12525
928.056	12574
928.162	12585
928.267	12677
928.373	13164
928.479	12650
928.585	12506
928.69	12578
928.796	12597
928.901	12498
929.007	12353
929.112	12407
929.218	12452
929.323	12372
929.428	12361
929.533	12464
929.638	12330
929.743	12330
929.848	12353
929.953	12163
930.058	12186
930.163	12015
930.267	12045
930.372	12022
930.477	12019
930.581	12273
930.685	12019
930.79	11878
930.894	11878
930.998	11866
931.103	12060
931.207	11688
931.311	11490
931.415	11497
931.519	11265
931.623	11254
