Data from test_V78500241_2240.txt Node
Date: Fri Mar 25 15:57:19 CST 2022
User: usil
Spectrometer: V785-0024
Trigger mode: 0
Integration Time (sec): 4.000000E-1
Scans to average: 1
Nonlinearity correction enabled: false
Boxcar width: 0
Storing dark spectrum: false
XAxis mode: Wavelengths
Number of Pixels in Spectrum: 1024
>>>>>Begin Spectral Data<<<<<
801.071	28561
801.214	28569
801.356	28268
801.499	28230
801.641	28166
801.783	28044
801.926	28162
802.068	28215
802.211	28029
802.353	27907
802.496	27838
802.638	27732
802.78	27701
802.923	27660
803.065	27599
803.208	27622
803.35	27781
803.492	27934
803.635	27903
803.777	27831
803.919	27861
804.061	28230
804.204	28097
804.346	27831
804.488	27793
804.63	27800
804.773	27873
804.915	28109
805.057	28173
805.199	27884
805.341	28021
805.483	28021
805.626	27987
805.768	28185
805.91	28044
806.052	28097
806.194	27926
806.336	28166
806.478	28097
806.62	28086
806.762	28268
806.904	28363
807.046	28645
807.188	28504
807.33	28497
807.472	28508
807.614	28478
807.756	28592
807.898	28508
808.04	28295
808.182	28440
808.324	28405
808.465	28451
808.607	28713
808.749	28824
808.891	28862
809.033	28877
809.174	28771
809.316	28744
809.458	28649
809.6	28691
809.741	29086
809.883	28888
810.025	28999
810.166	29056
810.308	29067
810.45	28923
810.591	28831
810.733	28771
810.875	28797
811.016	28702
811.158	28611
811.299	28839
811.441	28904
811.582	29041
811.724	28892
811.865	28733
812.007	28896
812.148	28710
812.29	28888
812.431	28976
812.573	29109
812.714	29105
812.855	29318
812.997	29356
813.138	29585
813.279	29482
813.421	29345
813.562	29273
813.703	29086
813.845	29041
813.986	28782
814.127	28504
814.268	28348
814.41	28565
814.551	28531
814.692	28596
814.833	28344
814.974	28363
815.115	28580
815.256	28341
815.397	28375
815.539	28303
815.68	28276
815.821	28337
815.962	28276
816.103	28280
816.244	28109
816.385	28090
816.526	28067
816.666	27956
816.807	27781
816.948	27975
817.089	27975
817.23	27766
817.371	27797
817.512	27850
817.653	27755
817.793	27835
817.934	27755
818.075	27652
818.216	27785
818.356	27701
818.497	27694
818.638	27504
818.778	27530
818.919	27515
819.06	27679
819.2	27789
819.341	27816
819.481	27698
819.622	27895
819.762	28116
819.903	28048
820.043	28101
820.184	27903
820.324	28017
820.465	27934
820.605	27869
820.746	27869
820.886	27679
821.026	27789
821.167	27800
821.307	27975
821.447	27781
821.588	27797
821.728	27504
821.868	27351
822.008	27313
822.149	27310
822.289	27222
822.429	26986
822.569	26986
822.709	27028
822.849	26883
822.99	26724
823.13	26746
823.27	26629
823.41	26686
823.55	26427
823.69	26549
823.83	26678
823.97	26571
824.11	26438
824.25	26446
824.389	26412
824.529	26518
824.669	26309
824.809	26533
824.949	26560
825.089	26530
825.228	26412
825.368	26130
825.508	26400
825.648	26320
825.787	26336
825.927	26396
826.067	26229
826.206	26256
826.346	26377
826.485	26328
826.625	26244
826.765	26453
826.904	26282
827.044	26107
827.183	26161
827.323	25936
827.462	26065
827.601	26149
827.741	25955
827.88	26054
828.02	25917
828.159	25959
828.298	26069
828.437	26073
828.577	25928
828.716	26180
828.855	25970
828.994	25681
829.134	25746
829.273	25734
829.412	25662
829.551	25590
829.69	25693
829.829	25791
829.968	25852
830.107	25887
830.246	25605
830.385	25658
830.524	25529
830.663	25525
830.802	25415
830.941	25365
831.08	25346
831.219	25263
831.357	25373
831.496	25548
831.635	25278
831.774	25327
831.913	25255
832.051	25190
832.19	25187
832.329	25232
832.467	25072
832.606	25061
832.744	24985
832.883	25034
833.022	24814
833.16	24970
833.299	25057
833.437	24920
833.576	25012
833.714	25095
833.852	25088
833.991	24962
834.129	25183
834.267	25129
834.406	25148
834.544	25126
834.682	25209
834.821	25019
834.959	25156
835.097	24932
835.235	25240
835.373	24916
835.511	25050
835.65	24814
835.788	24928
835.926	24760
836.064	24627
836.202	24726
836.34	24833
836.478	25012
836.615	24757
836.753	24852
836.891	24970
837.029	24947
837.167	24772
837.305	24840
837.443	24772
837.58	24787
837.718	24730
837.856	24642
837.993	24681
838.131	24654
838.269	24559
838.406	24661
838.544	24597
838.681	24410
838.819	24258
838.956	24209
839.094	24095
839.231	24178
839.369	24414
839.506	24471
839.643	24525
839.781	24121
839.918	24129
840.055	24076
840.193	24095
840.33	24030
840.467	24228
840.604	24224
840.742	24467
840.879	24007
841.016	24018
841.153	23954
841.29	24121
841.427	24026
841.564	24098
841.701	24015
841.838	24106
841.975	23969
842.112	23931
842.249	23950
842.385	23855
842.522	23969
842.659	23859
842.796	23840
842.933	23866
843.069	23889
843.206	23729
843.343	23737
843.479	23832
843.616	23779
843.752	23592
843.889	23577
844.025	23874
844.162	23638
844.298	23672
844.435	23684
844.571	23722
844.708	23634
844.844	23733
844.98	23733
845.117	23699
845.253	23543
845.389	23512
845.525	23722
845.661	23425
845.798	23376
845.934	23391
846.07	23425
846.206	23406
846.342	23414
846.478	23284
846.614	23223
846.75	23029
846.886	22999
847.022	23105
847.158	23060
847.294	23041
847.429	23132
847.565	23041
847.701	23318
847.837	22854
847.972	22748
848.108	22900
848.244	22843
848.379	22694
848.515	22607
848.65	22557
848.786	22675
848.921	22790
849.057	22755
849.192	22782
849.328	22626
849.463	22573
849.598	22565
849.734	22523
849.869	22402
850.004	22409
850.14	22394
850.275	22481
850.41	22322
850.545	22390
850.68	22379
850.815	22413
850.95	22497
851.085	22580
851.22	22500
851.355	22363
851.49	22428
851.625	22413
851.76	22436
851.895	22337
852.03	22348
852.165	22500
852.299	22428
852.434	22462
852.569	22447
852.703	22291
852.838	22550
852.973	22599
853.107	22565
853.242	22360
853.376	22375
853.511	22109
853.645	22109
853.78	22325
853.914	22295
854.048	22101
854.183	22333
854.317	22196
854.451	22265
854.585	22162
854.72	22246
854.854	22287
854.988	22181
855.122	22265
855.256	22112
855.39	22211
855.524	22284
855.658	22432
855.792	22215
855.926	22280
856.06	22310
856.194	22265
856.327	22284
856.461	22242
856.595	22207
856.729	22287
856.862	22242
856.996	22242
857.13	22295
857.263	22299
857.397	22367
857.53	22143
857.664	22219
857.797	22272
857.931	22363
858.064	22356
858.197	22348
858.331	22177
858.464	22234
858.597	22093
858.731	22173
858.864	22093
858.997	22181
859.13	22242
859.263	22249
859.396	22303
859.529	22337
859.662	22059
859.795	22211
859.928	22211
860.061	22417
860.194	22402
860.327	22253
860.46	22398
860.592	22310
860.725	22421
860.858	22424
860.99	22204
861.123	22177
861.256	22131
861.388	22223
861.521	22953
861.653	22135
861.786	22051
861.918	21991
862.05	22074
862.183	22055
862.315	22375
862.447	22249
862.58	22147
862.712	21956
862.844	22063
862.976	22082
863.108	21994
863.24	22478
863.372	21880
863.504	21907
863.636	21838
863.768	21918
863.9	22051
864.032	21835
864.164	21831
864.296	21960
864.428	22040
864.559	21945
864.691	22002
864.823	21838
864.954	21934
865.086	21865
865.217	21819
865.349	21781
865.48	21766
865.612	21850
865.743	21956
865.875	21850
866.006	21785
866.137	21797
866.269	21759
866.4	21690
866.531	21724
866.662	21667
866.793	21709
866.924	21709
867.055	21835
867.186	21755
867.317	21720
867.448	21542
867.579	21717
867.71	21595
867.841	21622
867.972	21816
868.103	21648
868.233	21785
868.364	21656
868.495	21865
868.625	21956
868.756	22105
868.886	21797
869.017	22017
869.147	22051
869.278	21968
869.408	22036
869.539	21934
869.669	22002
869.799	21956
869.929	21956
870.06	22143
870.19	22284
870.32	22276
870.45	22219
870.58	22459
870.71	22360
870.84	22344
870.97	22325
871.1	22356
871.23	22474
871.36	22519
871.489	22402
871.619	22314
871.749	22729
871.879	22580
872.008	22637
872.138	22611
872.267	22622
872.397	22535
872.526	22386
872.656	22413
872.785	22413
872.915	22626
873.044	22645
873.173	22607
873.303	22656
873.432	22630
873.561	22767
873.69	22653
873.819	22557
873.948	22660
874.077	22584
874.206	22489
874.335	22577
874.464	22771
874.593	22824
874.722	22801
874.851	22740
874.979	22786
875.108	22869
875.237	22752
875.365	22736
875.494	22736
875.623	22824
875.751	22634
875.88	22790
876.008	22953
876.136	22968
876.265	23162
876.393	23307
876.521	23303
876.65	23223
876.778	23178
876.906	23121
877.034	23174
877.162	23010
877.29	23124
877.418	23189
877.546	23227
877.674	23208
877.802	23170
877.93	23193
878.058	23090
878.185	23006
878.313	22995
878.441	23136
878.568	22999
878.696	23174
878.824	23208
878.951	23208
879.079	23273
879.206	23505
879.333	23345
879.461	23212
879.588	23356
879.715	23334
879.842	23417
879.97	23227
880.097	22991
880.224	22900
880.351	23060
880.478	22991
880.605	22908
880.732	23003
880.859	23109
880.986	23022
881.112	22991
881.239	22740
881.366	22744
881.493	22687
881.619	22519
881.746	22607
881.872	22618
881.999	22470
882.125	22512
882.252	22500
882.378	22615
882.505	22622
882.631	22497
882.757	22287
882.883	22363
883.01	22204
883.136	22242
883.262	22177
883.388	22032
883.514	22200
883.64	22215
883.766	22093
883.892	21949
884.018	22074
884.143	22109
884.269	22249
884.395	21994
884.52	21743
884.646	21846
884.772	21846
884.897	21800
885.023	21789
885.148	21922
885.274	22006
885.399	21899
885.524	21812
885.65	21808
885.775	21865
885.9	21785
886.025	21972
886.15	21922
886.275	21766
886.4	21854
886.525	21819
886.65	21694
886.775	21736
886.9	21937
887.025	22044
887.149	21800
887.274	21720
887.399	21637
887.523	21633
887.648	21564
887.773	21519
887.897	21618
888.021	21644
888.146	21526
888.27	21595
888.395	21690
888.519	21580
888.643	21644
888.767	21580
888.891	21625
889.015	21416
889.139	21485
889.263	21359
889.387	21580
889.511	21622
889.635	21576
889.759	21386
889.883	21405
890.006	21473
890.13	21420
890.254	21313
890.377	21294
890.501	20963
890.624	21055
890.748	21211
890.871	20956
890.995	20986
891.118	21028
891.241	20929
891.364	21062
891.488	21024
891.611	21074
891.734	20986
891.857	21043
891.98	20952
892.103	21062
892.226	20906
892.349	20921
892.471	20716
892.594	20933
892.717	20967
892.839	20891
892.962	20895
893.085	20876
893.207	20857
893.33	20648
893.452	20800
893.575	20849
893.697	20838
893.819	20868
893.941	20960
894.064	21036
894.186	20952
894.308	20800
894.43	20910
894.552	21047
894.674	20819
894.796	20636
894.918	20727
895.04	20876
895.161	20994
895.283	20895
895.405	20807
895.526	20853
895.648	20750
895.769	20864
895.891	20899
896.012	20792
896.134	20796
896.255	20845
896.376	20876
896.498	20899
896.619	20788
896.74	20838
896.861	20960
896.982	21146
897.103	21207
897.224	21123
897.345	21085
897.466	21070
897.587	21070
897.708	21226
897.828	21036
897.949	20998
898.07	20982
898.19	20857
898.311	21074
898.431	20975
898.552	21043
898.672	21127
898.792	21032
898.913	20975
899.033	20918
899.153	20796
899.273	20769
899.393	20788
899.513	20880
899.633	20674
899.753	20735
899.873	20712
899.993	20712
900.113	20693
900.232	20773
900.352	20686
900.472	20583
900.591	20465
900.711	20514
900.83	20568
900.95	20636
901.069	20480
901.189	20602
901.308	20301
901.427	20069
901.546	20138
901.665	20073
901.784	20092
901.904	19936
902.023	19955
902.141	19780
902.26	19548
902.379	19681
902.498	19689
902.617	19594
902.735	19757
902.854	19578
902.973	19499
903.091	19141
903.21	19339
903.328	19266
903.446	19160
903.565	19019
903.683	19107
903.801	19019
903.919	19129
904.038	18958
904.156	18764
904.274	18852
904.392	18920
904.51	18745
904.627	18817
904.745	18810
904.863	18897
904.981	18654
905.098	18494
905.216	18509
905.334	18525
905.451	18456
905.569	18403
905.686	18593
905.803	18490
905.921	18350
906.038	18471
906.155	18365
906.272	18152
906.389	18174
906.506	18106
906.623	18049
906.74	17996
906.857	17988
906.974	18026
907.091	18091
907.208	18136
907.324	18190
907.441	17878
907.557	17809
907.674	17687
907.79	17691
907.907	17710
908.023	17691
908.139	17813
908.256	17627
908.372	17653
908.488	17551
908.604	17505
908.72	17368
908.836	17501
908.952	17433
909.068	17505
909.184	17501
909.3	17512
909.415	17482
909.531	17474
909.647	17204
909.762	17197
909.878	17155
909.993	17193
910.108	17113
910.224	17079
910.339	17098
910.454	17086
910.57	16908
910.685	16862
910.8	17151
910.915	17094
911.03	16953
911.145	16771
911.259	16611
911.374	16710
911.489	16592
911.604	16584
911.718	16409
911.833	16512
911.947	16386
912.062	16306
912.176	16542
912.291	16462
912.405	16497
912.519	16675
912.633	16634
912.748	16512
912.862	16504
912.976	16329
913.09	16253
913.204	16257
913.318	16196
913.431	16394
913.545	16291
913.659	16451
913.772	16242
913.886	16200
914	15998
914.113	16158
914.226	16204
914.34	16120
914.453	15949
914.566	16051
914.68	15941
914.793	15915
914.906	15842
915.019	15728
915.132	15679
915.245	15694
915.358	15656
915.47	15637
915.583	15736
915.696	15686
915.809	15759
915.921	15770
916.034	15610
916.146	15603
916.259	15526
916.371	15580
916.483	15591
916.595	15511
916.708	15591
916.82	15584
916.932	15431
917.044	15488
917.156	15416
917.268	15275
917.38	15325
917.491	15306
917.603	15321
917.715	15428
917.826	15408
917.938	15230
918.049	15195
918.161	15245
918.272	15359
918.384	15351
918.495	15245
918.606	15089
918.717	15032
918.828	14990
918.939	15036
919.05	14979
919.161	14929
919.272	14857
919.383	14914
919.494	15020
919.604	15222
919.715	15062
919.826	14986
919.936	14963
920.047	15142
920.157	14960
920.267	15150
920.378	15055
920.488	14982
920.598	15161
920.708	15405
920.818	15066
920.928	15131
921.038	15256
921.148	15218
921.258	14971
921.368	14918
921.477	14807
921.587	14697
921.697	14686
921.806	14781
921.916	14560
922.025	14431
922.134	14389
922.244	14393
922.353	14374
922.462	14290
922.571	14161
922.68	13982
922.789	13928
922.898	14043
923.007	13982
923.116	14035
923.224	14100
923.333	13928
923.442	13875
923.55	13875
923.659	13890
923.767	13822
923.876	13803
923.984	13928
924.092	13700
924.201	13746
924.309	13708
924.417	13727
924.525	13693
924.633	13677
924.741	14495
924.849	13422
924.956	13601
925.064	13350
925.172	13350
925.279	13365
925.387	13430
925.494	13362
925.602	13533
925.709	13468
925.816	13320
925.924	13346
926.031	13415
926.138	13225
926.245	13335
926.352	13282
926.459	13453
926.566	13335
926.673	13293
926.779	13149
926.886	13118
926.993	12981
927.099	12973
927.206	12886
927.312	12856
927.419	12962
927.525	12981
927.631	12882
927.737	12852
927.843	12795
927.95	12684
928.056	12692
928.162	12844
928.267	12787
928.373	13426
928.479	12783
928.585	12608
928.69	12669
928.796	12711
928.901	12608
929.007	12551
929.112	12677
929.218	12593
929.323	12448
929.428	12467
929.533	12627
929.638	12464
929.743	12376
929.848	12479
929.953	12460
930.058	12300
930.163	12175
930.267	12197
930.372	12216
930.477	12026
930.581	12323
930.685	12194
930.79	12068
930.894	12079
930.998	12045
931.103	12235
931.207	11718
931.311	11695
931.415	11630
931.519	11417
931.623	11341
