Data from test_V78500241_3388.txt Node
Date: Fri Mar 25 16:05:16 CST 2022
User: usil
Spectrometer: V785-0024
Trigger mode: 0
Integration Time (sec): 4.000000E-1
Scans to average: 1
Nonlinearity correction enabled: false
Boxcar width: 0
Storing dark spectrum: false
XAxis mode: Wavelengths
Number of Pixels in Spectrum: 1024
>>>>>Begin Spectral Data<<<<<
801.071	28554
801.214	28382
801.356	28242
801.499	28154
801.641	28006
801.783	28048
801.926	28185
802.068	28040
802.211	28124
802.353	28048
802.496	27739
802.638	27800
802.78	27724
802.923	27720
803.065	27732
803.208	27641
803.35	27808
803.492	28010
803.635	28010
803.777	27994
803.919	27888
804.061	28226
804.204	27994
804.346	27968
804.488	27895
804.63	28010
804.773	27869
804.915	27987
805.057	28059
805.199	28074
805.341	28063
805.483	28265
805.626	28242
805.768	28055
805.91	27979
806.052	28101
806.194	28078
806.336	28390
806.478	28124
806.62	28128
806.762	28276
806.904	28466
807.046	28679
807.188	28535
807.33	28641
807.472	28717
807.614	28470
807.756	28356
807.898	28443
808.04	28371
808.182	28428
808.324	28401
808.465	28611
808.607	28755
808.749	28805
808.891	28987
809.033	29044
809.174	28908
809.316	28828
809.458	28801
809.6	28630
809.741	28904
809.883	29086
810.025	29094
810.166	29170
810.308	29086
810.45	29162
810.591	28949
810.733	28816
810.875	28862
811.016	28725
811.158	28812
811.299	28904
811.441	28991
811.582	29048
811.724	29029
811.865	28831
812.007	28866
812.148	28816
812.29	28930
812.431	28999
812.573	29269
812.714	29406
812.855	29280
812.997	29501
813.138	29455
813.279	29627
813.421	29421
813.562	29326
813.703	29071
813.845	29079
813.986	28797
814.127	28588
814.268	28481
814.41	28535
814.551	28478
814.692	28557
814.833	28413
814.974	28474
815.115	28519
815.256	28401
815.397	28360
815.539	28367
815.68	28341
815.821	28230
815.962	28261
816.103	28303
816.244	28272
816.385	28112
816.526	28196
816.666	28040
816.807	27895
816.948	27861
817.089	28029
817.23	27846
817.371	27816
817.512	27854
817.653	27892
817.793	27644
817.934	27892
818.075	28010
818.216	27781
818.356	27819
818.497	27743
818.638	27641
818.778	27538
818.919	27622
819.06	27717
819.2	27663
819.341	27819
819.481	27914
819.622	27987
819.762	28124
819.903	28249
820.043	28021
820.184	28070
820.324	28010
820.465	27953
820.605	27987
820.746	27865
820.886	27827
821.026	27930
821.167	27873
821.307	28059
821.447	27922
821.588	27720
821.728	27603
821.868	27515
822.008	27291
822.149	27431
822.289	27249
822.429	27245
822.569	27074
822.709	26944
822.849	26895
822.99	26823
823.13	26921
823.27	26880
823.41	26697
823.55	26526
823.69	26602
823.83	26606
823.97	26590
824.11	26305
824.25	26431
824.389	26393
824.529	26533
824.669	26526
824.809	26530
824.949	26533
825.089	26632
825.228	26560
825.368	26370
825.508	26305
825.648	26332
825.787	26419
825.927	26446
826.067	26408
826.206	26336
826.346	26495
826.485	26358
826.625	26248
826.765	26473
826.904	26442
827.044	26275
827.183	26233
827.323	25982
827.462	26225
827.601	26016
827.741	26130
827.88	26161
828.02	25925
828.159	25955
828.298	26081
828.437	26138
828.577	26187
828.716	25997
828.855	25978
828.994	25643
829.134	25837
829.273	25765
829.412	25757
829.551	25727
829.69	25715
829.829	25830
829.968	25791
830.107	25807
830.246	25742
830.385	25795
830.524	25696
830.663	25575
830.802	25666
830.941	25354
831.08	25365
831.219	25491
831.357	25537
831.496	25586
831.635	25324
831.774	25293
831.913	25308
832.051	25156
832.19	25008
832.329	25118
832.467	25088
832.606	25156
832.744	24973
832.883	24958
833.022	25050
833.16	25175
833.299	25053
833.437	25019
833.576	25312
833.714	25145
833.852	25160
833.991	25160
834.129	25164
834.267	25031
834.406	25057
834.544	25065
834.682	25103
834.821	25057
834.959	25354
835.097	25012
835.235	25270
835.373	25053
835.511	25046
835.65	24939
835.788	25129
835.926	25000
836.064	24734
836.202	24901
836.34	24859
836.478	24954
836.615	24977
836.753	24935
836.891	25000
837.029	24913
837.167	24829
837.305	24825
837.443	24966
837.58	24722
837.718	24791
837.856	24703
837.993	24620
838.131	24715
838.269	24585
838.406	24688
838.544	24578
838.681	24460
838.819	24509
838.956	24327
839.094	24258
839.231	24311
839.369	24323
839.506	24563
839.643	24460
839.781	24216
839.918	24186
840.055	24254
840.193	24186
840.33	24213
840.467	24220
840.604	24159
840.742	24467
840.879	23912
841.016	24011
841.153	24076
841.29	24125
841.427	24026
841.564	24133
841.701	24136
841.838	24102
841.975	24015
842.112	24057
842.249	23923
842.385	23908
842.522	24133
842.659	23954
842.796	23809
842.933	23889
843.069	23859
843.206	23843
843.343	23889
843.479	24022
843.616	23897
843.752	23748
843.889	23767
844.025	23836
844.162	23821
844.298	23619
844.435	23741
844.571	23642
844.708	23722
844.844	23779
844.98	23707
845.117	23714
845.253	23646
845.389	23436
845.525	23509
845.661	23585
845.798	23353
845.934	23452
846.07	23436
846.206	23429
846.342	23566
846.478	23334
846.614	23265
846.75	23121
846.886	23105
847.022	23128
847.158	23094
847.294	23159
847.429	23121
847.565	23239
847.701	23337
847.837	22869
847.972	22786
848.108	23022
848.244	22938
848.379	22812
848.515	22740
848.65	22618
848.786	22744
848.921	22645
849.057	22847
849.192	22736
849.328	22710
849.463	22721
849.598	22523
849.734	22588
849.869	22630
850.004	22500
850.14	22527
850.275	22504
850.41	22386
850.545	22432
850.68	22333
850.815	22508
850.95	22394
851.085	22687
851.22	22630
851.355	22538
851.49	22516
851.625	22443
851.76	22527
851.895	22440
852.03	22409
852.165	22577
852.299	22577
852.434	22656
852.569	22504
852.703	22497
852.838	22500
852.973	22596
853.107	22607
853.242	22478
853.376	22367
853.511	22314
853.645	22135
853.78	22436
853.914	22303
854.048	22325
854.183	22310
854.317	22402
854.451	22531
854.585	22306
854.72	22295
854.854	22318
854.988	22276
855.122	22436
855.256	22230
855.39	22223
855.524	22344
855.658	22287
855.792	22470
855.926	22284
856.06	22303
856.194	22363
856.327	22211
856.461	22219
856.595	22238
856.729	22284
856.862	22382
856.996	22424
857.13	22303
857.263	22489
857.397	22485
857.53	22303
857.664	22295
857.797	22398
857.931	22497
858.064	22413
858.197	22455
858.331	22379
858.464	22265
858.597	22261
858.731	22276
858.864	22257
858.997	22428
859.13	22303
859.263	22333
859.396	22497
859.529	22249
859.662	22341
859.795	22284
859.928	22363
860.061	22504
860.194	22584
860.327	22360
860.46	22550
860.592	22459
860.725	22432
860.858	22356
860.99	22310
861.123	22265
861.256	22318
861.388	22371
861.521	22946
861.653	22272
861.786	22101
861.918	22166
862.05	22200
862.183	22246
862.315	22337
862.447	22287
862.58	22211
862.712	22021
862.844	21968
862.976	22173
863.108	22238
863.24	22573
863.372	21918
863.504	21994
863.636	22078
863.768	22074
863.9	21994
864.032	22036
864.164	21983
864.296	21991
864.428	22188
864.559	22082
864.691	22109
864.823	22067
864.954	21880
865.086	22131
865.217	21861
865.349	21861
865.48	21934
865.612	21991
865.743	21975
865.875	21979
866.006	21972
866.137	22029
866.269	21873
866.4	21888
866.531	21846
866.662	21846
866.793	21781
866.924	21907
867.055	21819
867.186	21846
867.317	21808
867.448	21644
867.579	21713
867.71	21739
867.841	21736
867.972	21876
868.103	21892
868.233	21956
868.364	21819
868.495	21998
868.625	22124
868.756	22059
868.886	21907
869.017	22051
869.147	22284
869.278	22238
869.408	22090
869.539	22074
869.669	22188
869.799	22154
869.929	22230
870.06	22188
870.19	22344
870.32	22280
870.45	22398
870.58	22436
870.71	22447
870.84	22645
870.97	22375
871.1	22474
871.23	22706
871.36	22740
871.489	22542
871.619	22691
871.749	22641
871.879	22691
872.008	22805
872.138	22637
872.267	22679
872.397	22523
872.526	22398
872.656	22527
872.785	22573
872.915	22862
873.044	22923
873.173	22717
873.303	22904
873.432	22740
873.561	22790
873.69	22759
873.819	22554
873.948	22835
874.077	22706
874.206	22721
874.335	22713
874.464	22786
874.593	22896
874.722	22915
874.851	22949
874.979	23083
875.108	23064
875.237	22778
875.365	22809
875.494	22778
875.623	23018
875.751	22965
875.88	23003
876.008	22987
876.136	23166
876.265	23261
876.393	23471
876.521	23353
876.65	23349
876.778	23166
876.906	23265
877.034	23269
877.162	23231
877.29	23231
877.418	23414
877.546	23364
877.674	23330
877.802	23239
877.93	23204
878.058	23261
878.185	23239
878.313	23220
878.441	23220
878.568	23003
878.696	23197
878.824	23231
878.951	23277
879.079	23482
879.206	23570
879.333	23467
879.461	23364
879.588	23296
879.715	23288
879.842	23501
879.97	23307
880.097	23086
880.224	23109
880.351	23159
880.478	23109
880.605	23109
880.732	23086
880.859	23303
880.986	22972
881.112	23132
881.239	22953
881.366	22736
881.493	22801
881.619	22466
881.746	22713
881.872	22733
881.999	22653
882.125	22668
882.252	22698
882.378	22691
882.505	22774
882.631	22584
882.757	22226
882.883	22451
883.01	22352
883.136	22413
883.262	22158
883.388	22105
883.514	22363
883.64	22284
883.766	22230
883.892	22109
884.018	22112
884.143	22188
884.269	22291
884.395	22044
884.52	21983
884.646	22017
884.772	21922
884.897	21903
885.023	21949
885.148	22078
885.274	21987
885.399	22067
885.524	22025
885.65	21934
885.775	21926
885.9	21983
886.025	22147
886.15	21930
886.275	21846
886.4	21911
886.525	21953
886.65	21770
886.775	21797
886.9	22055
887.025	22166
887.149	21865
887.274	21743
887.399	21686
887.523	21644
887.648	21515
887.773	21603
887.897	21823
888.021	21789
888.146	21625
888.27	21854
888.395	21808
888.519	21823
888.643	21857
888.767	21679
888.891	21587
889.015	21572
889.139	21610
889.263	21542
889.387	21614
889.511	21709
889.635	21603
889.759	21564
889.883	21416
890.006	21488
890.13	21542
890.254	21397
890.377	21481
890.501	21214
890.624	21207
890.748	21272
890.871	21195
890.995	21013
891.118	21066
891.241	21070
891.364	21081
891.488	21131
891.611	20998
891.734	21104
891.857	21192
891.98	21116
892.103	21119
892.226	21150
892.349	20906
892.471	20819
892.594	20872
892.717	21062
892.839	21020
892.962	20944
893.085	21093
893.207	20944
893.33	20872
893.452	20975
893.575	21161
893.697	20956
893.819	21028
893.941	21150
894.064	21062
894.186	20891
894.308	20796
894.43	20982
894.552	21096
894.674	21058
894.796	20834
894.918	20819
895.04	20967
895.161	20971
895.283	20899
895.405	20876
895.526	20918
895.648	20906
895.769	21039
895.891	20990
896.012	21096
896.134	20895
896.255	20921
896.376	20998
896.498	20872
896.619	21013
896.74	20948
896.861	21070
896.982	21298
897.103	21405
897.224	21180
897.345	21036
897.466	21009
897.587	21165
897.708	21211
897.828	21154
897.949	21108
898.07	20876
898.19	21062
898.311	21256
898.431	21074
898.552	21119
898.672	21180
898.792	21233
898.913	21237
899.033	21017
899.153	20857
899.273	20727
899.393	20849
899.513	20952
899.633	20872
899.753	20868
899.873	20735
899.993	21036
900.113	20944
900.232	20731
900.352	20785
900.472	20682
900.591	20636
900.711	20689
900.83	20545
900.95	20792
901.069	20750
901.189	20507
901.308	20267
901.427	20195
901.546	20046
901.665	20221
901.784	20187
901.904	20100
902.023	20062
902.141	19776
902.26	19578
902.379	19811
902.498	19837
902.617	19639
902.735	19784
902.854	19772
902.973	19647
903.091	19495
903.21	19464
903.328	19430
903.446	19232
903.565	19282
903.683	19187
903.801	19069
903.919	19126
904.038	19103
904.156	19000
904.274	18966
904.392	18916
904.51	18962
904.627	18943
904.745	18996
904.863	18993
904.981	18764
905.098	18627
905.216	18620
905.334	18745
905.451	18566
905.569	18578
905.686	18661
905.803	18601
905.921	18372
906.038	18418
906.155	18388
906.272	18327
906.389	18308
906.506	18068
906.623	18083
906.74	17984
906.857	18091
906.974	18022
907.091	18216
907.208	18216
907.324	18235
907.441	17988
907.557	17790
907.674	17794
907.79	17737
907.907	17802
908.023	17790
908.139	17817
908.256	17752
908.372	17684
908.488	17703
908.604	17638
908.72	17581
908.836	17539
908.952	17497
909.068	17642
909.184	17539
909.3	17577
909.415	17619
909.531	17528
909.647	17242
909.762	17250
909.878	17178
909.993	17372
910.108	17117
910.224	17239
910.339	17117
910.454	17025
910.57	17086
910.685	16965
910.8	17383
910.915	17280
911.03	17083
911.145	16908
911.259	16828
911.374	16824
911.489	16706
911.604	16713
911.718	16622
911.833	16519
911.947	16523
912.062	16478
912.176	16459
912.291	16611
912.405	16611
912.519	16698
912.633	16729
912.748	16535
912.862	16531
912.976	16436
913.09	16284
913.204	16253
913.318	16299
913.431	16478
913.545	16417
913.659	16489
913.772	16356
913.886	16215
914	16181
914.113	16322
914.226	16348
914.34	16211
914.453	16055
914.566	16143
914.68	16006
914.793	16036
914.906	15838
915.019	15797
915.132	15732
915.245	15781
915.358	15789
915.47	15717
915.583	15778
915.696	15663
915.809	15857
915.921	15888
916.034	15739
916.146	15637
916.259	15603
916.371	15759
916.483	15739
916.595	15595
916.708	15561
916.82	15618
916.932	15458
917.044	15519
917.156	15496
917.268	15332
917.38	15412
917.491	15374
917.603	15412
917.715	15386
917.826	15431
917.938	15233
918.049	15169
918.161	15355
918.272	15401
918.384	15443
918.495	15340
918.606	15195
918.717	15146
918.828	15291
918.939	15184
919.05	15020
919.161	15112
919.272	14864
919.383	15055
919.494	15127
919.604	15275
919.715	15089
919.826	15017
919.936	15142
920.047	15142
920.157	15062
920.267	15275
920.378	15142
920.488	15070
920.598	15214
920.708	15370
920.818	15176
920.928	15157
921.038	15424
921.148	15336
921.258	15047
921.368	15062
921.477	14876
921.587	14842
921.697	14678
921.806	14845
921.916	14682
922.025	14503
922.134	14556
922.244	14434
922.353	14495
922.462	14339
922.571	14282
922.68	14100
922.789	14058
922.898	14119
923.007	14081
923.116	14027
923.224	14016
923.333	13951
923.442	13997
923.55	13852
923.659	13936
923.767	14008
923.876	13890
923.984	13932
924.092	13765
924.201	13776
924.309	13799
924.417	13849
924.525	13712
924.633	13776
924.741	14636
924.849	13491
924.956	13582
925.064	13464
925.172	13460
925.279	13400
925.387	13426
925.494	13468
925.602	13620
925.709	13388
925.816	13320
925.924	13434
926.031	13514
926.138	13396
926.245	13472
926.352	13384
926.459	13400
926.566	13426
926.673	13285
926.779	13240
926.886	13263
926.993	12993
927.099	13034
927.206	12985
927.312	12920
927.419	13053
927.525	13031
927.631	13000
927.737	12920
927.843	12897
927.95	12802
928.056	12875
928.162	12798
928.267	12920
928.373	13415
928.479	12817
928.585	12688
928.69	12730
928.796	12719
928.901	12760
929.007	12532
929.112	12631
929.218	12540
929.323	12574
929.428	12525
929.533	12582
929.638	12498
929.743	12578
929.848	12585
929.953	12502
930.058	12311
930.163	12205
930.267	12163
930.372	12330
930.477	12194
930.581	12365
930.685	12342
930.79	12064
930.894	12129
930.998	12079
931.103	12171
931.207	11851
931.311	11828
931.415	11699
931.519	11452
931.623	11452
