Data from test_V78500241_1916.txt Node
Date: Fri Mar 25 15:55:04 CST 2022
User: usil
Spectrometer: V785-0024
Trigger mode: 0
Integration Time (sec): 4.000000E-1
Scans to average: 1
Nonlinearity correction enabled: false
Boxcar width: 0
Storing dark spectrum: false
XAxis mode: Wavelengths
Number of Pixels in Spectrum: 1024
>>>>>Begin Spectral Data<<<<<
801.071	28584
801.214	28630
801.356	28478
801.499	28489
801.641	28192
801.783	28253
801.926	28272
802.068	28363
802.211	28070
802.353	28105
802.496	28063
802.638	28032
802.78	27846
802.923	28006
803.065	27762
803.208	27960
803.35	27949
803.492	27953
803.635	28131
803.777	28074
803.919	28192
804.061	28527
804.204	28242
804.346	28234
804.488	28143
804.63	28291
804.773	28078
804.915	28177
805.057	28318
805.199	28169
805.341	28367
805.483	28421
805.626	28455
805.768	28280
805.91	28375
806.052	28417
806.194	28200
806.336	28592
806.478	28451
806.62	28394
806.762	28485
806.904	28577
807.046	28900
807.188	28919
807.33	28839
807.472	28911
807.614	28771
807.756	28850
807.898	28698
808.04	28611
808.182	28584
808.324	28596
808.465	28847
808.607	28900
808.749	29102
808.891	29185
809.033	29143
809.174	29052
809.316	28877
809.458	28968
809.6	29079
809.741	29155
809.883	29067
810.025	29303
810.166	29296
810.308	29299
810.45	29212
810.591	29193
810.733	29212
810.875	28991
811.016	28896
811.158	28888
811.299	29132
811.441	29117
811.582	29079
811.724	29124
811.865	29003
812.007	29090
812.148	29010
812.29	29048
812.431	29254
812.573	29337
812.714	29448
812.855	29512
812.997	29726
813.138	29836
813.279	29608
813.421	29699
813.562	29543
813.703	29395
813.845	29242
813.986	29033
814.127	28976
814.268	28778
814.41	28778
814.551	28634
814.692	28866
814.833	28752
814.974	28584
815.115	28885
815.256	28519
815.397	28596
815.539	28683
815.68	28599
815.821	28481
815.962	28512
816.103	28474
816.244	28268
816.385	28325
816.526	28306
816.666	28162
816.807	27979
816.948	28192
817.089	28211
817.23	28131
817.371	28036
817.512	27854
817.653	27994
817.793	28006
817.934	28120
818.075	27972
818.216	28109
818.356	27945
818.497	27888
818.638	27922
818.778	27800
818.919	27808
819.06	27907
819.2	27888
819.341	28135
819.481	28063
819.622	28177
819.762	28371
819.903	28280
820.043	28333
820.184	28124
820.324	28219
820.465	28219
820.605	28124
820.746	28166
820.886	28044
821.026	28158
821.167	28063
821.307	28147
821.447	28219
821.588	27972
821.728	28010
821.868	27637
822.008	27542
822.149	27637
822.289	27515
822.429	27340
822.569	27154
822.709	27294
822.849	27093
822.99	27074
823.13	26994
823.27	26895
823.41	26842
823.55	26880
823.69	26899
823.83	26975
823.97	26792
824.11	26708
824.25	26625
824.389	26606
824.529	26731
824.669	26568
824.809	26743
824.949	26857
825.089	26754
825.228	26659
825.368	26640
825.508	26644
825.648	26461
825.787	26560
825.927	26655
826.067	26575
826.206	26617
826.346	26640
826.485	26552
826.625	26552
826.765	26716
826.904	26621
827.044	26252
827.183	26244
827.323	26423
827.462	26366
827.601	26240
827.741	26355
827.88	26214
828.02	26183
828.159	26225
828.298	26377
828.437	26294
828.577	26138
828.716	26370
828.855	26180
828.994	26031
829.134	25909
829.273	26054
829.412	25966
829.551	25947
829.69	25860
829.829	26005
829.968	26012
830.107	26092
830.246	25963
830.385	25826
830.524	25947
830.663	25830
830.802	25628
830.941	25597
831.08	25445
831.219	25723
831.357	25643
831.496	25875
831.635	25548
831.774	25438
831.913	25472
832.051	25324
832.19	25293
832.329	25320
832.467	25213
832.606	25145
832.744	25240
832.883	25297
833.022	25137
833.16	25297
833.299	25232
833.437	25187
833.576	25396
833.714	25381
833.852	25304
833.991	25331
834.129	25506
834.267	25392
834.406	25266
834.544	25365
834.682	25362
834.821	25381
834.959	25514
835.097	25266
835.235	25293
835.373	25365
835.511	25274
835.65	25118
835.788	25137
835.926	25137
836.064	24875
836.202	25088
836.34	25072
836.478	25168
836.615	24996
836.753	25137
836.891	25240
837.029	25221
837.167	25050
837.305	24989
837.443	25137
837.58	25110
837.718	24977
837.856	24989
837.993	24821
838.131	24992
838.269	24947
838.406	24806
838.544	24905
838.681	24494
838.819	24555
838.956	24509
839.094	24460
839.231	24418
839.369	24559
839.506	24806
839.643	24650
839.781	24346
839.918	24407
840.055	24456
840.193	24376
840.33	24361
840.467	24372
840.604	24414
840.742	24620
840.879	24228
841.016	24224
841.153	24232
841.29	24323
841.427	24296
841.564	24292
841.701	24380
841.838	24224
841.975	24216
842.112	24171
842.249	24060
842.385	23977
842.522	24174
842.659	24186
842.796	24117
842.933	23923
843.069	24064
843.206	24129
843.343	24041
843.479	24064
843.616	23996
843.752	23908
843.889	23809
844.025	23942
844.162	23935
844.298	23824
844.435	23813
844.571	23885
844.708	23916
844.844	24079
844.98	23946
845.117	23954
845.253	23798
845.389	23783
845.525	23863
845.661	23741
845.798	23566
845.934	23695
846.07	23539
846.206	23745
846.342	23779
846.478	23524
846.614	23421
846.75	23299
846.886	23296
847.022	23463
847.158	23379
847.294	23345
847.429	23284
847.565	23292
847.701	23524
847.837	23109
847.972	22881
848.108	23174
848.244	23140
848.379	22892
848.515	22949
848.65	22858
848.786	22911
848.921	23060
849.057	22976
849.192	22987
849.328	22949
849.463	22934
849.598	22809
849.734	22858
849.869	22713
850.004	22706
850.14	22698
850.275	22698
850.41	22611
850.545	22649
850.68	22615
850.815	22725
850.95	22675
851.085	22953
851.22	22790
851.355	22535
851.49	22706
851.625	22550
851.76	22672
851.895	22611
852.03	22489
852.165	22706
852.299	22599
852.434	22854
852.569	22653
852.703	22649
852.838	22679
852.973	22748
853.107	22740
853.242	22641
853.376	22519
853.511	22402
853.645	22455
853.78	22497
853.914	22485
854.048	22512
854.183	22382
854.317	22413
854.451	22637
854.585	22428
854.72	22432
854.854	22516
854.988	22390
855.122	22409
855.256	22382
855.39	22504
855.524	22538
855.658	22546
855.792	22561
855.926	22527
856.06	22413
856.194	22592
856.327	22428
856.461	22462
856.595	22470
856.729	22542
856.862	22607
856.996	22531
857.13	22527
857.263	22527
857.397	22554
857.53	22375
857.664	22470
857.797	22459
857.931	22557
858.064	22546
858.197	22573
858.331	22462
858.464	22382
858.597	22295
858.731	22500
858.864	22481
858.997	22402
859.13	22413
859.263	22611
859.396	22436
859.529	22561
859.662	22497
859.795	22394
859.928	22474
860.061	22573
860.194	22729
860.327	22478
860.46	22394
860.592	22485
860.725	22672
860.858	22596
860.99	22577
861.123	22348
861.256	22550
861.388	22504
861.521	23212
861.653	22371
861.786	22280
861.918	22257
862.05	22234
862.183	22371
862.315	22352
862.447	22455
862.58	22398
862.712	22246
862.844	22150
862.976	22234
863.108	22306
863.24	22729
863.372	22147
863.504	22200
863.636	22101
863.768	22143
863.9	22139
864.032	22112
864.164	22276
864.296	22223
864.428	22238
864.559	22390
864.691	22287
864.823	22150
864.954	22291
865.086	22097
865.217	22109
865.349	21941
865.48	22120
865.612	22158
865.743	22169
865.875	22086
866.006	22002
866.137	22048
866.269	22097
866.4	22036
866.531	21953
866.662	21998
866.793	22006
866.924	22093
867.055	22040
867.186	22010
867.317	21991
867.448	21922
867.579	22006
867.71	21937
867.841	21857
867.972	21987
868.103	21979
868.233	22070
868.364	22040
868.495	22143
868.625	22181
868.756	22382
868.886	22204
869.017	22192
869.147	22192
869.278	22367
869.408	22162
869.539	22158
869.669	22299
869.799	22314
869.929	22432
870.06	22341
870.19	22561
870.32	22470
870.45	22550
870.58	22557
870.71	22809
870.84	22645
870.97	22626
871.1	22554
871.23	22786
871.36	22885
871.489	22748
871.619	22782
871.749	22710
871.879	22797
872.008	22828
872.138	22858
872.267	22778
872.397	22713
872.526	22565
872.656	22611
872.785	22641
872.915	22961
873.044	22831
873.173	22771
873.303	22748
873.432	22965
873.561	22965
873.69	22919
873.819	22782
873.948	22782
874.077	22839
874.206	22790
874.335	22824
874.464	22923
874.593	22976
874.722	23022
874.851	23113
874.979	23121
875.108	23181
875.237	22984
875.365	23029
875.494	22984
875.623	23121
875.751	22976
875.88	23132
876.008	23071
876.136	23212
876.265	23433
876.393	23554
876.521	23547
876.65	23516
876.778	23543
876.906	23421
877.034	23505
877.162	23433
877.29	23296
877.418	23490
877.546	23372
877.674	23398
877.802	23379
877.93	23429
878.058	23383
878.185	23239
878.313	23254
878.441	23433
878.568	23162
878.696	23284
878.824	23379
878.951	23360
879.079	23589
879.206	23707
879.333	23512
879.461	23322
879.588	23551
879.715	23509
879.842	23661
879.97	23459
880.097	23239
880.224	23258
880.351	23242
880.478	23170
880.605	23200
880.732	23299
880.859	23376
880.986	23098
881.112	23303
881.239	23056
881.366	22911
881.493	22881
881.619	22752
881.746	22748
881.872	22847
881.999	22755
882.125	22713
882.252	22854
882.378	22816
882.505	22721
882.631	22710
882.757	22523
882.883	22478
883.01	22459
883.136	22497
883.262	22272
883.388	22219
883.514	22508
883.64	22478
883.766	22443
883.892	22166
884.018	22299
884.143	22310
884.269	22573
884.395	22048
884.52	21994
884.646	22093
884.772	22025
884.897	21888
885.023	22169
885.148	22188
885.274	22173
885.399	22242
885.524	22059
885.65	22051
885.775	22059
885.9	22154
886.025	22181
886.15	22226
886.275	22063
886.4	21911
886.525	22090
886.65	22074
886.775	22040
886.9	22177
887.025	22230
887.149	22166
887.274	21854
887.399	21873
887.523	21953
887.648	21873
887.773	21736
887.897	21899
888.021	21892
888.146	21762
888.27	21892
888.395	21968
888.519	21808
888.643	21842
888.767	21861
888.891	21759
889.015	21766
889.139	21827
889.263	21549
889.387	21606
889.511	21812
889.635	21751
889.759	21679
889.883	21603
890.006	21633
890.13	21667
890.254	21629
890.377	21633
890.501	21336
890.624	21294
890.748	21477
890.871	21313
890.995	21135
891.118	21138
891.241	21192
891.364	21203
891.488	21252
891.611	21260
891.734	21173
891.857	21249
891.98	21036
892.103	21207
892.226	21184
892.349	21043
892.471	20975
892.594	21127
892.717	21123
892.839	21051
892.962	21096
893.085	21123
893.207	21070
893.33	20967
893.452	21001
893.575	21157
893.697	21081
893.819	21146
893.941	21283
894.064	21165
894.186	21104
894.308	21032
894.43	21188
894.552	21089
894.674	21142
894.796	20948
894.918	21074
895.04	21024
895.161	21096
895.283	21047
895.405	20952
895.526	21070
895.648	21074
895.769	21154
895.891	21135
896.012	21226
896.134	21017
896.255	20994
896.376	21070
896.498	21051
896.619	21150
896.74	21112
896.861	21066
896.982	21317
897.103	21447
897.224	21298
897.345	21279
897.466	21180
897.587	21176
897.708	21485
897.828	21279
897.949	21199
898.07	21112
898.19	21169
898.311	21310
898.431	21142
898.552	21260
898.672	21294
898.792	21351
898.913	21233
899.033	21096
899.153	20937
899.273	20838
899.393	21020
899.513	21100
899.633	20929
899.753	21001
899.873	20956
899.993	21005
900.113	20891
900.232	20929
900.352	20887
900.472	20769
900.591	20765
900.711	20807
900.83	20689
900.95	20883
901.069	20880
901.189	20674
901.308	20412
901.427	20278
901.546	20237
901.665	20294
901.784	20263
901.904	20218
902.023	19986
902.141	19852
902.26	19860
902.379	19982
902.498	19833
902.617	19807
902.735	19772
902.854	19689
902.973	19757
903.091	19571
903.21	19483
903.328	19525
903.446	19403
903.565	19274
903.683	19285
903.801	19198
903.919	19198
904.038	19274
904.156	19008
904.274	19114
904.392	19031
904.51	19046
904.627	19034
904.745	19065
904.863	19126
904.981	18833
905.098	18757
905.216	18703
905.334	18719
905.451	18646
905.569	18620
905.686	18722
905.803	18722
905.921	18578
906.038	18506
906.155	18494
906.272	18369
906.389	18319
906.506	18205
906.623	18182
906.74	18167
906.857	18144
906.974	18258
907.091	18372
907.208	18410
907.324	18270
907.441	18079
907.557	18003
907.674	17908
907.79	17863
907.907	17897
908.023	18034
908.139	17954
908.256	17893
908.372	17828
908.488	17889
908.604	17767
908.72	17672
908.836	17668
908.952	17634
909.068	17710
909.184	17699
909.3	17672
909.415	17627
909.531	17509
909.647	17440
909.762	17277
909.878	17425
909.993	17353
910.108	17391
910.224	17353
910.339	17311
910.454	17261
910.57	17143
910.685	17109
910.8	17417
910.915	17231
911.03	17216
911.145	16923
911.259	16866
911.374	16927
911.489	16889
911.604	16733
911.718	16645
911.833	16687
911.947	16630
912.062	16462
912.176	16683
912.291	16736
912.405	16713
912.519	16812
912.633	16873
912.748	16740
912.862	16626
912.976	16535
913.09	16417
913.204	16432
913.318	16447
913.431	16538
913.545	16565
913.659	16577
913.772	16390
913.886	16261
914	16280
914.113	16337
914.226	16402
914.34	16196
914.453	16150
914.566	16291
914.68	15964
914.793	16097
914.906	15918
915.019	15880
915.132	15857
915.245	15759
915.358	15884
915.47	15876
915.583	15812
915.696	15937
915.809	15930
915.921	15975
916.034	15762
916.146	15804
916.259	15808
916.371	15724
916.483	15679
916.595	15660
916.708	15625
916.82	15747
916.932	15690
917.044	15690
917.156	15523
917.268	15431
917.38	15557
917.491	15507
917.603	15378
917.715	15542
917.826	15580
917.938	15412
918.049	15332
918.161	15374
918.272	15568
918.384	15469
918.495	15458
918.606	15211
918.717	15131
918.828	15272
918.939	15241
919.05	15214
919.161	15230
919.272	14990
919.383	15047
919.494	15241
919.604	15397
919.715	15222
919.826	15195
919.936	15192
920.047	15146
920.157	15188
920.267	15370
920.378	15150
920.488	15154
920.598	15313
920.708	15424
920.818	15199
920.928	15275
921.038	15367
921.148	15378
921.258	15127
921.368	14918
921.477	14830
921.587	14826
921.697	14746
921.806	14933
921.916	14621
922.025	14575
922.134	14583
922.244	14503
922.353	14514
922.462	14400
922.571	14332
922.68	14225
922.789	14210
922.898	14237
923.007	14100
923.116	14145
923.224	14100
923.333	14119
923.442	14024
923.55	13993
923.659	14115
923.767	14043
923.876	13963
923.984	13959
924.092	13868
924.201	13993
924.309	13799
924.417	13928
924.525	13753
924.633	13814
924.741	14697
924.849	13666
924.956	13750
925.064	13514
925.172	13491
925.279	13499
925.387	13510
925.494	13563
925.602	13624
925.709	13575
925.816	13464
925.924	13502
926.031	13719
926.138	13491
926.245	13518
926.352	13354
926.459	13426
926.566	13521
926.673	13392
926.779	13297
926.886	13213
926.993	13107
927.099	13156
927.206	13050
927.312	13004
927.419	13069
927.525	13065
927.631	13168
927.737	12947
927.843	12954
927.95	12753
928.056	13008
928.162	12890
928.267	12947
928.373	13430
928.479	13000
928.585	12715
928.69	12821
928.796	12905
928.901	12825
929.007	12627
929.112	12700
929.218	12722
929.323	12658
929.428	12597
929.533	12711
929.638	12559
929.743	12639
929.848	12559
929.953	12555
930.058	12547
930.163	12239
930.267	12353
930.372	12486
930.477	12277
930.581	12410
930.685	12308
930.79	12213
930.894	12254
930.998	12228
931.103	12315
931.207	11870
931.311	11745
931.415	11699
931.519	11524
931.623	11551
