Data from test_V78500241_3012.txt Node
Date: Fri Mar 25 16:02:39 CST 2022
User: usil
Spectrometer: V785-0024
Trigger mode: 0
Integration Time (sec): 4.000000E-1
Scans to average: 1
Nonlinearity correction enabled: false
Boxcar width: 0
Storing dark spectrum: false
XAxis mode: Wavelengths
Number of Pixels in Spectrum: 1024
>>>>>Begin Spectral Data<<<<<
801.071	28489
801.214	28470
801.356	28352
801.499	28219
801.641	28120
801.783	27949
801.926	28211
802.068	27987
802.211	28006
802.353	28116
802.496	27854
802.638	27724
802.78	27831
802.923	27625
803.065	27675
803.208	27713
803.35	27759
803.492	28013
803.635	28025
803.777	27835
803.919	28131
804.061	28322
804.204	28147
804.346	27956
804.488	27876
804.63	27975
804.773	27918
804.915	28025
805.057	28158
805.199	28032
805.341	28074
805.483	28192
805.626	28177
805.768	27979
805.91	28120
806.052	28284
806.194	28029
806.336	28382
806.478	28143
806.62	28032
806.762	28185
806.904	28363
807.046	28713
807.188	28592
807.33	28641
807.472	28645
807.614	28436
807.756	28622
807.898	28565
808.04	28409
808.182	28379
808.324	28535
808.465	28367
808.607	28786
808.749	28805
808.891	28961
809.033	28946
809.174	28885
809.316	28828
809.458	28820
809.6	28816
809.741	28957
809.883	28991
810.025	29060
810.166	29128
810.308	29159
810.45	29155
810.591	29098
810.733	28999
810.875	28729
811.016	28759
811.158	28694
811.299	29029
811.441	28984
811.582	28946
811.724	28957
811.865	28839
812.007	28942
812.148	28790
812.29	28961
812.431	29113
812.573	29064
812.714	29227
812.855	29296
812.997	29592
813.138	29653
813.279	29501
813.421	29334
813.562	29364
813.703	29193
813.845	29265
813.986	28949
814.127	28523
814.268	28546
814.41	28546
814.551	28516
814.692	28615
814.833	28401
814.974	28466
815.115	28523
815.256	28546
815.397	28341
815.539	28523
815.68	28337
815.821	28531
815.962	28341
816.103	28386
816.244	28253
816.385	28169
816.526	28265
816.666	27987
816.807	27918
816.948	27892
817.089	27876
817.23	27892
817.371	27880
817.512	27770
817.653	27956
817.793	27857
817.934	27914
818.075	27911
818.216	27884
818.356	27785
818.497	27797
818.638	27690
818.778	27641
818.919	27652
819.06	27614
819.2	27774
819.341	27949
819.481	27789
819.622	27998
819.762	28135
819.903	28120
820.043	28280
820.184	28036
820.324	28139
820.465	28131
820.605	27968
820.746	27953
820.886	27953
821.026	27914
821.167	27880
821.307	28044
821.447	27987
821.588	27743
821.728	27652
821.868	27427
822.008	27180
822.149	27408
822.289	27435
822.429	27074
822.569	27089
822.709	26899
822.849	26868
822.99	26826
823.13	26781
823.27	26788
823.41	26655
823.55	26514
823.69	26640
823.83	26571
823.97	26735
824.11	26530
824.25	26480
824.389	26636
824.529	26617
824.669	26537
824.809	26670
824.949	26560
825.089	26617
825.228	26446
825.368	26347
825.508	26438
825.648	26484
825.787	26473
825.927	26423
826.067	26336
826.206	26522
826.346	26434
826.485	26412
826.625	26381
826.765	26480
826.904	26450
827.044	26278
827.183	26225
827.323	26043
827.462	26259
827.601	26062
827.741	26145
827.88	26202
828.02	25974
828.159	26016
828.298	26058
828.437	26172
828.577	25936
828.716	26157
828.855	26001
828.994	25811
829.134	25890
829.273	25780
829.412	25772
829.551	25674
829.69	25734
829.829	25731
829.968	25849
830.107	25925
830.246	25871
830.385	25765
830.524	25578
830.663	25620
830.802	25491
830.941	25483
831.08	25430
831.219	25468
831.357	25476
831.496	25643
831.635	25476
831.774	25289
831.913	25274
832.051	25308
832.19	25190
832.329	25194
832.467	25019
832.606	25095
832.744	25012
832.883	25099
833.022	24985
833.16	25126
833.299	25122
833.437	25137
833.576	25156
833.714	25099
833.852	25232
833.991	25148
834.129	25316
834.267	25320
834.406	25194
834.544	25107
834.682	25042
834.821	25042
834.959	25365
835.097	25179
835.235	25187
835.373	25046
835.511	25190
835.65	25000
835.788	25034
835.926	24882
836.064	24821
836.202	24875
836.34	25004
836.478	24939
836.615	24985
836.753	24954
836.891	25072
837.029	25038
837.167	24878
837.305	24711
837.443	24798
837.58	24711
837.718	24951
837.856	24814
837.993	24863
838.131	24711
838.269	24597
838.406	24719
838.544	24547
838.681	24498
838.819	24426
838.956	24342
839.094	24216
839.231	24308
839.369	24410
839.506	24650
839.643	24540
839.781	24201
839.918	24308
840.055	24281
840.193	24148
840.33	24117
840.467	24117
840.604	24209
840.742	24460
840.879	23931
841.016	23904
841.153	24041
841.29	24209
841.427	24057
841.564	24136
841.701	24083
841.838	24205
841.975	24053
842.112	24087
842.249	23942
842.385	23878
842.522	24091
842.659	23969
842.796	23866
842.933	23999
843.069	23912
843.206	23946
843.343	23889
843.479	23885
843.616	23874
843.752	23866
843.889	23627
844.025	23760
844.162	23714
844.298	23790
844.435	23764
844.571	23695
844.708	23733
844.844	23908
844.98	23870
845.117	23840
845.253	23657
845.389	23604
845.525	23581
845.661	23478
845.798	23353
845.934	23501
846.07	23360
846.206	23528
846.342	23448
846.478	23322
846.614	23231
846.75	23155
846.886	23159
847.022	23204
847.158	23143
847.294	23086
847.429	23197
847.565	23113
847.701	23318
847.837	22873
847.972	22850
848.108	22885
848.244	22923
848.379	22755
848.515	22672
848.65	22717
848.786	22816
848.921	22790
849.057	22900
849.192	22904
849.328	22771
849.463	22793
849.598	22630
849.734	22736
849.869	22649
850.004	22542
850.14	22569
850.275	22554
850.41	22405
850.545	22516
850.68	22478
850.815	22546
850.95	22546
851.085	22618
851.22	22645
851.355	22500
851.49	22485
851.625	22421
851.76	22462
851.895	22485
852.03	22447
852.165	22554
852.299	22615
852.434	22668
852.569	22557
852.703	22573
852.838	22538
852.973	22668
853.107	22596
853.242	22432
853.376	22246
853.511	22139
853.645	22314
853.78	22485
853.914	22310
854.048	22238
854.183	22295
854.317	22428
854.451	22519
854.585	22379
854.72	22249
854.854	22375
854.988	22413
855.122	22234
855.256	22310
855.39	22413
855.524	22504
855.658	22386
855.792	22386
855.926	22329
856.06	22268
856.194	22371
856.327	22253
856.461	22204
856.595	22329
856.729	22303
856.862	22421
856.996	22192
857.13	22379
857.263	22363
857.397	22409
857.53	22363
857.664	22371
857.797	22352
857.931	22516
858.064	22257
858.197	22459
858.331	22261
858.464	22204
858.597	22257
858.731	22341
858.864	22356
858.997	22257
859.13	22390
859.263	22272
859.396	22402
859.529	22337
859.662	22287
859.795	22261
859.928	22352
860.061	22557
860.194	22440
860.327	22295
860.46	22287
860.592	22440
860.725	22432
860.858	22508
860.99	22363
861.123	22421
861.256	22337
861.388	22299
861.521	23124
861.653	22303
861.786	22120
861.918	22051
862.05	22101
862.183	22318
862.315	22337
862.447	22352
862.58	22280
862.712	22055
862.844	21991
862.976	22120
863.108	22120
863.24	22402
863.372	21983
863.504	22109
863.636	22135
863.768	22215
863.9	22067
864.032	21899
864.164	21975
864.296	22025
864.428	22158
864.559	22105
864.691	22078
864.823	22162
864.954	21945
865.086	21998
865.217	21972
865.349	21778
865.48	21838
865.612	21895
865.743	22067
865.875	22109
866.006	21926
866.137	21918
866.269	21983
866.4	21895
866.531	21812
866.662	21679
866.793	21812
866.924	21895
867.055	21937
867.186	21903
867.317	21827
867.448	21781
867.579	21819
867.71	21785
867.841	21888
867.972	21797
868.103	21869
868.233	21823
868.364	21842
868.495	21972
868.625	22048
868.756	22230
868.886	21953
869.017	22021
869.147	22169
869.278	22192
869.408	22112
869.539	22048
869.669	22120
869.799	22074
869.929	22246
870.06	22181
870.19	22348
870.32	22489
870.45	22344
870.58	22436
870.71	22641
870.84	22653
870.97	22398
871.1	22519
871.23	22603
871.36	22721
871.489	22596
871.619	22596
871.749	22790
871.879	22675
872.008	22782
872.138	22607
872.267	22508
872.397	22626
872.526	22565
872.656	22481
872.785	22561
872.915	22679
873.044	22782
873.173	22637
873.303	22748
873.432	22809
873.561	22805
873.69	22668
873.819	22679
873.948	22786
874.077	22733
874.206	22599
874.335	22706
874.464	22927
874.593	22862
874.722	22896
874.851	22968
874.979	23033
875.108	22873
875.237	22961
875.365	22759
875.494	22957
875.623	22961
875.751	22862
875.88	22873
876.008	23079
876.136	23109
876.265	23334
876.393	23402
876.521	23311
876.65	23387
876.778	23429
876.906	23376
877.034	23246
877.162	23299
877.29	23128
877.418	23269
877.546	23277
877.674	23353
877.802	23269
877.93	23151
878.058	23223
878.185	23200
878.313	23261
878.441	23254
878.568	23181
878.696	23117
878.824	23261
878.951	23258
879.079	23349
879.206	23615
879.333	23539
879.461	23368
879.588	23353
879.715	23471
879.842	23505
879.97	23345
880.097	22999
880.224	23140
880.351	23197
880.478	23197
880.605	22896
880.732	23140
880.859	23326
880.986	23071
881.112	23185
881.239	22877
881.366	22809
881.493	22752
881.619	22733
881.746	22653
881.872	22698
881.999	22577
882.125	22607
882.252	22675
882.378	22622
882.505	22786
882.631	22538
882.757	22318
882.883	22363
883.01	22291
883.136	22322
883.262	22169
883.388	22185
883.514	22337
883.64	22402
883.766	22287
883.892	22055
884.018	22185
884.143	22162
884.269	22409
884.395	21972
884.52	21838
884.646	22051
884.772	21892
884.897	21888
885.023	22017
885.148	22074
885.274	22070
885.399	22116
885.524	21983
885.65	21884
885.775	21937
885.9	21960
886.025	22093
886.15	21926
886.275	21934
886.4	21819
886.525	21987
886.65	21759
886.775	21846
886.9	21953
887.025	22200
887.149	21937
887.274	21808
887.399	21679
887.523	21728
887.648	21641
887.773	21648
887.897	21709
888.021	21739
888.146	21462
888.27	21816
888.395	21823
888.519	21713
888.643	21686
888.767	21739
888.891	21545
889.015	21485
889.139	21614
889.263	21545
889.387	21641
889.511	21785
889.635	21857
889.759	21492
889.883	21500
890.006	21504
890.13	21530
890.254	21462
890.377	21507
890.501	21211
890.624	21230
890.748	21321
890.871	21218
890.995	21077
891.118	20921
891.241	21047
891.364	21055
891.488	21195
891.611	21020
891.734	21085
891.857	21085
891.98	21207
892.103	21055
892.226	21028
892.349	21036
892.471	21051
892.594	20845
892.717	21070
892.839	20838
892.962	20830
893.085	21051
893.207	20986
893.33	20906
893.452	20872
893.575	20902
893.697	20883
893.819	21066
893.941	21096
894.064	21001
894.186	20845
894.308	20777
894.43	21066
894.552	20990
894.674	21058
894.796	20792
894.918	20792
895.04	20982
895.161	21051
895.283	20929
895.405	20906
895.526	20956
895.648	20902
895.769	21017
895.891	20933
896.012	21009
896.134	21013
896.255	20906
896.376	20933
896.498	20971
896.619	20956
896.74	20811
896.861	21013
896.982	21214
897.103	21241
897.224	21173
897.345	21100
897.466	21100
897.587	21165
897.708	21306
897.828	21207
897.949	21077
898.07	21001
898.19	21070
898.311	21192
898.431	21119
898.552	21077
898.672	21161
898.792	21169
898.913	21222
899.033	21036
899.153	20998
899.273	20720
899.393	20849
899.513	20845
899.633	20895
899.753	20929
899.873	20777
899.993	20910
900.113	20693
900.232	20857
900.352	20708
900.472	20697
900.591	20606
900.711	20705
900.83	20571
900.95	20735
901.069	20804
901.189	20606
901.308	20355
901.427	20267
901.546	20256
901.665	20275
901.784	20237
901.904	20012
902.023	19993
902.141	19841
902.26	19757
902.379	19925
902.498	19628
902.617	19685
902.735	19776
902.854	19658
902.973	19662
903.091	19480
903.21	19362
903.328	19362
903.446	19312
903.565	19198
903.683	19270
903.801	19133
903.919	19110
904.038	19099
904.156	19050
904.274	19008
904.392	18947
904.51	18840
904.627	19015
904.745	18970
904.863	18924
904.981	18795
905.098	18612
905.216	18498
905.334	18703
905.451	18604
905.569	18585
905.686	18688
905.803	18703
905.921	18365
906.038	18452
906.155	18418
906.272	18376
906.389	18292
906.506	18213
906.623	18098
906.74	18038
906.857	18057
906.974	18057
907.091	18224
907.208	18289
907.324	18152
907.441	18125
907.557	17847
907.674	17843
907.79	17733
907.907	17790
908.023	17863
908.139	17840
908.256	17764
908.372	17752
908.488	17703
908.604	17592
908.72	17596
908.836	17562
908.952	17486
909.068	17608
909.184	17745
909.3	17604
909.415	17577
909.531	17448
909.647	17284
909.762	17292
909.878	17288
909.993	17284
910.108	17284
910.224	17197
910.339	17208
910.454	17136
910.57	17117
910.685	17037
910.8	17242
910.915	17181
911.03	17022
911.145	16908
911.259	16805
911.374	16835
911.489	16812
911.604	16710
911.718	16596
911.833	16550
911.947	16451
912.062	16436
912.176	16558
912.291	16618
912.405	16596
912.519	16683
912.633	16683
912.748	16611
912.862	16527
912.976	16497
913.09	16344
913.204	16409
913.318	16447
913.431	16558
913.545	16459
913.659	16489
913.772	16295
913.886	16257
914	16215
914.113	16310
914.226	16299
914.34	16246
914.453	16109
914.566	16188
914.68	16063
914.793	16025
914.906	15846
915.019	15785
915.132	15736
915.245	15732
915.358	15888
915.47	15766
915.583	15804
915.696	15701
915.809	15846
915.921	15861
916.034	15800
916.146	15717
916.259	15614
916.371	15850
916.483	15800
916.595	15622
916.708	15641
916.82	15622
916.932	15561
917.044	15523
917.156	15519
917.268	15443
917.38	15355
917.491	15393
917.603	15336
917.715	15393
917.826	15386
917.938	15393
918.049	15287
918.161	15325
918.272	15507
918.384	15469
918.495	15302
918.606	15195
918.717	15104
918.828	15218
918.939	15150
919.05	15161
919.161	15237
919.272	14944
919.383	14975
919.494	15222
919.604	15298
919.715	15100
919.826	15108
919.936	15093
920.047	15112
920.157	15051
920.267	15389
920.378	15173
920.488	15100
920.598	15306
920.708	15389
920.818	15203
920.928	15131
921.038	15401
921.148	15378
921.258	15138
921.368	14842
921.477	14800
921.587	14765
921.697	14701
921.806	14765
921.916	14651
922.025	14442
922.134	14480
922.244	14347
922.353	14518
922.462	14374
922.571	14244
922.68	14096
922.789	14115
922.898	14168
923.007	13986
923.116	14126
923.224	14123
923.333	14096
923.442	13917
923.55	13913
923.659	13947
923.767	14005
923.876	13951
923.984	14016
924.092	13742
924.201	13803
924.309	13750
924.417	13875
924.525	13715
924.633	13799
924.741	14568
924.849	13567
924.956	13647
925.064	13510
925.172	13457
925.279	13529
925.387	13544
925.494	13514
925.602	13639
925.709	13491
925.816	13365
925.924	13388
926.031	13468
926.138	13407
926.245	13449
926.352	13377
926.459	13510
926.566	13438
926.673	13381
926.779	13270
926.886	13221
926.993	13031
927.099	12935
927.206	13004
927.312	13000
927.419	13095
927.525	12989
927.631	13004
927.737	12935
927.843	12867
927.95	12886
928.056	12897
928.162	12829
928.267	12943
928.373	13464
928.479	12829
928.585	12738
928.69	12837
928.796	12795
928.901	12673
929.007	12517
929.112	12684
929.218	12627
929.323	12528
929.428	12566
929.533	12692
929.638	12483
929.743	12506
929.848	12555
929.953	12445
930.058	12407
930.163	12175
930.267	12262
930.372	12346
930.477	12213
930.581	12456
930.685	12342
930.79	12148
930.894	12155
930.998	12068
931.103	12216
931.207	11882
931.311	11764
931.415	11657
931.519	11520
931.623	11417
