Data from test_V78500241_624.txt Node
Date: Fri Mar 25 15:46:07 CST 2022
User: usil
Spectrometer: V785-0024
Trigger mode: 0
Integration Time (sec): 4.000000E-1
Scans to average: 1
Nonlinearity correction enabled: false
Boxcar width: 0
Storing dark spectrum: false
XAxis mode: Wavelengths
Number of Pixels in Spectrum: 1024
>>>>>Begin Spectral Data<<<<<
801.071	27732
801.214	27591
801.356	27431
801.499	27412
801.641	27123
801.783	27036
801.926	27116
802.068	27184
802.211	27036
802.353	26998
802.496	26910
802.638	26659
802.78	26857
802.923	26712
803.065	26754
803.208	26701
803.35	26838
803.492	26830
803.635	26925
803.777	26929
803.919	26963
804.061	27382
804.204	26929
804.346	26876
804.488	26735
804.63	26880
804.773	26705
804.915	27017
805.057	27005
805.199	26868
805.341	27001
805.483	27135
805.626	26921
805.768	26963
805.91	27146
806.052	26994
806.194	27062
806.336	27214
806.478	27157
806.62	27062
806.762	27058
806.904	27367
807.046	27492
807.188	27519
807.33	27344
807.472	27538
807.614	27466
807.756	27466
807.898	27245
808.04	27351
808.182	27359
808.324	27370
808.465	27355
808.607	27507
808.749	27618
808.891	27717
809.033	27903
809.174	27880
809.316	27648
809.458	27743
809.6	27785
809.741	27838
809.883	27835
810.025	27972
810.166	27949
810.308	27914
810.45	27994
810.591	27873
810.733	27831
810.875	27724
811.016	27557
811.158	27534
811.299	27755
811.441	27728
811.582	27797
811.724	27568
811.865	27591
812.007	27808
812.148	27759
812.29	27808
812.431	27804
812.573	27960
812.714	28013
812.855	28105
812.997	28306
813.138	28360
813.279	28322
813.421	28173
813.562	28306
813.703	27968
813.845	27854
813.986	27633
814.127	27469
814.268	27382
814.41	27397
814.551	27447
814.692	27443
814.833	27344
814.974	27382
815.115	27252
815.256	27275
815.397	27199
815.539	27211
815.68	27214
815.821	27005
815.962	27211
816.103	27173
816.244	27070
816.385	27036
816.526	26971
816.666	26891
816.807	26682
816.948	26720
817.089	26902
817.23	26659
817.371	26644
817.512	26648
817.653	26678
817.793	26484
817.934	26724
818.075	26746
818.216	26701
818.356	26674
818.497	26564
818.638	26415
818.778	26533
818.919	26453
819.06	26575
819.2	26674
819.341	26511
819.481	26655
819.622	26853
819.762	27009
819.903	26952
820.043	26880
820.184	26792
820.324	26785
820.465	26872
820.605	26845
820.746	26807
820.886	26552
821.026	26697
821.167	26796
821.307	26648
821.447	26571
821.588	26571
821.728	26396
821.868	26313
822.008	26073
822.149	26115
822.289	26016
822.429	25860
822.569	25731
822.709	25833
822.849	25723
822.99	25700
823.13	25594
823.27	25578
823.41	25400
823.55	25422
823.69	25350
823.83	25544
823.97	25343
824.11	25217
824.25	25183
824.389	25221
824.529	25430
824.669	25324
824.809	25514
824.949	25434
825.089	25270
825.228	25236
825.368	25164
825.508	25095
825.648	25236
825.787	25160
825.927	25164
826.067	25107
826.206	25080
826.346	25168
826.485	25095
826.625	25114
826.765	25198
826.904	25183
827.044	24920
827.183	24981
827.323	24787
827.462	24951
827.601	24798
827.741	24726
827.88	24837
828.02	24661
828.159	24646
828.298	24810
828.437	24821
828.577	24825
828.716	24882
828.855	24772
828.994	24650
829.134	24532
829.273	24540
829.412	24517
829.551	24426
829.69	24464
829.829	24517
829.968	24593
830.107	24563
830.246	24494
830.385	24452
830.524	24418
830.663	24323
830.802	24243
830.941	24064
831.08	24110
831.219	24186
831.357	24270
831.496	24338
831.635	24205
831.774	23973
831.913	23980
832.051	23866
832.19	23931
832.329	23931
832.467	23874
832.606	23748
832.744	23722
832.883	23843
833.022	23695
833.16	23817
833.299	23965
833.437	23783
833.576	23859
833.714	23870
833.852	23897
833.991	23832
834.129	23923
834.267	24003
834.406	23863
834.544	23859
834.682	23771
834.821	23741
834.959	24034
835.097	23954
835.235	23798
835.373	23802
835.511	23642
835.65	23665
835.788	23737
835.926	23516
836.064	23547
836.202	23551
836.34	23691
836.478	23866
836.615	23642
836.753	23729
836.891	23805
837.029	23695
837.167	23611
837.305	23547
837.443	23554
837.58	23585
837.718	23547
837.856	23585
837.993	23524
838.131	23608
838.269	23444
838.406	23497
838.544	23258
838.681	23284
838.819	23136
838.956	22968
839.094	22999
839.231	23033
839.369	23121
839.506	23368
839.643	23254
839.781	22934
839.918	22953
840.055	23037
840.193	22862
840.33	22934
840.467	22961
840.604	23014
840.742	23223
840.879	22744
841.016	22782
841.153	22805
841.29	23067
841.427	23006
841.564	22946
841.701	22995
841.838	22869
841.975	22885
842.112	22923
842.249	22748
842.385	22588
842.522	22927
842.659	22672
842.796	22793
842.933	22736
843.069	22542
843.206	22656
843.343	22683
843.479	22710
843.616	22615
843.752	22440
843.889	22398
844.025	22653
844.162	22447
844.298	22618
844.435	22360
844.571	22459
844.708	22519
844.844	22630
844.98	22531
845.117	22531
845.253	22337
845.389	22329
845.525	22341
845.661	22249
845.798	22173
845.934	22272
846.07	22139
846.206	22295
846.342	22337
846.478	22181
846.614	22044
846.75	21949
846.886	21888
847.022	22044
847.158	21922
847.294	21930
847.429	22002
847.565	21968
847.701	22226
847.837	21625
847.972	21625
848.108	21663
848.244	21736
848.379	21580
848.515	21603
848.65	21462
848.786	21511
848.921	21568
849.057	21583
849.192	21580
849.328	21428
849.463	21523
849.598	21408
849.734	21393
849.869	21332
850.004	21245
850.14	21355
850.275	21298
850.41	21256
850.545	21214
850.68	21230
850.815	21188
850.95	21214
851.085	21336
851.22	21374
851.355	21249
851.49	21260
851.625	21199
851.76	21184
851.895	21249
852.03	21161
852.165	21321
852.299	21127
852.434	21363
852.569	21298
852.703	21298
852.838	21367
852.973	21447
853.107	21408
853.242	21230
853.376	21203
853.511	21077
853.645	20975
853.78	21245
853.914	21051
854.048	21077
854.183	21051
854.317	21230
854.451	21279
854.585	21116
854.72	21260
854.854	21058
854.988	20956
855.122	21058
855.256	20929
855.39	21043
855.524	21192
855.658	21043
855.792	20971
855.926	20944
856.06	21131
856.194	21036
856.327	20925
856.461	21074
856.595	20941
856.729	20960
856.862	21184
856.996	21070
857.13	21192
857.263	21230
857.397	21081
857.53	21024
857.664	21062
857.797	21245
857.931	21184
858.064	21150
858.197	21093
858.331	21104
858.464	21039
858.597	21005
858.731	20990
858.864	21032
858.997	21020
859.13	21070
859.263	21036
859.396	21142
859.529	21112
859.662	21085
859.795	21001
859.928	21081
860.061	21268
860.194	21226
860.327	21104
860.46	21005
860.592	21207
860.725	21249
860.858	21241
860.99	21085
861.123	21009
861.256	20925
861.388	21020
861.521	21682
861.653	20914
861.786	20891
861.918	20941
862.05	21028
862.183	21062
862.315	21077
862.447	21062
862.58	20952
862.712	20724
862.844	20743
862.976	20933
863.108	20819
863.24	21074
863.372	20651
863.504	20887
863.636	20834
863.768	20861
863.9	20788
864.032	20754
864.164	20792
864.296	20800
864.428	20880
864.559	20807
864.691	20864
864.823	20857
864.954	20670
865.086	20800
865.217	20655
865.349	20549
865.48	20830
865.612	20693
865.743	20857
865.875	20796
866.006	20590
866.137	20758
866.269	20705
866.4	20632
866.531	20617
866.662	20488
866.793	20537
866.924	20655
867.055	20663
867.186	20560
867.317	20613
867.448	20552
867.579	20632
867.71	20526
867.841	20579
867.972	20640
868.103	20552
868.233	20552
868.364	20587
868.495	20712
868.625	20838
868.756	20921
868.886	20701
869.017	20857
869.147	20952
869.278	21028
869.408	20883
869.539	20902
869.669	20979
869.799	20895
869.929	20880
870.06	20910
870.19	21184
870.32	21135
870.45	21127
870.58	21207
870.71	21378
870.84	21310
870.97	21211
871.1	21268
871.23	21431
871.36	21401
871.489	21359
871.619	21462
871.749	21412
871.879	21397
872.008	21603
872.138	21473
872.267	21515
872.397	21249
872.526	21302
872.656	21374
872.785	21306
872.915	21492
873.044	21622
873.173	21496
873.303	21576
873.432	21545
873.561	21583
873.69	21526
873.819	21367
873.948	21492
874.077	21637
874.206	21507
874.335	21492
874.464	21583
874.593	21736
874.722	21728
874.851	21884
874.979	21709
875.108	21903
875.237	21625
875.365	21622
875.494	21675
875.623	21831
875.751	21644
875.88	21774
876.008	21884
876.136	21781
876.265	22025
876.393	22211
876.521	22112
876.65	22162
876.778	22070
876.906	22131
877.034	22112
877.162	22040
877.29	21960
877.418	22139
877.546	21975
877.674	22029
877.802	21987
877.93	22101
878.058	21991
878.185	21975
878.313	22025
878.441	22021
878.568	21884
878.696	21899
878.824	22010
878.951	22143
879.079	22234
879.206	22329
879.333	22223
879.461	22143
879.588	22120
879.715	22226
879.842	22409
879.97	22162
880.097	21857
880.224	21781
880.351	22025
880.478	21922
880.605	21831
880.732	21865
880.859	22078
880.986	21941
881.112	21983
881.239	21785
881.366	21835
881.493	21538
881.619	21576
881.746	21485
881.872	21481
881.999	21291
882.125	21431
882.252	21428
882.378	21424
882.505	21549
882.631	21481
882.757	21180
882.883	21294
883.01	21146
883.136	21119
883.262	21074
883.388	20963
883.514	21176
883.64	21169
883.766	21146
883.892	20906
884.018	20975
884.143	21085
884.269	21218
884.395	20826
884.52	20746
884.646	20777
884.772	20807
884.897	20724
885.023	20811
885.148	20925
885.274	20906
885.399	20868
885.524	20746
885.65	20925
885.775	20838
885.9	20826
886.025	20914
886.15	20994
886.275	20743
886.4	20716
886.525	20682
886.65	20872
886.775	20663
886.9	20948
887.025	20963
887.149	20861
887.274	20621
887.399	20598
887.523	20526
887.648	20648
887.773	20556
887.897	20556
888.021	20663
888.146	20541
888.27	20575
888.395	20648
888.519	20556
888.643	20640
888.767	20651
888.891	20377
889.015	20431
889.139	20442
889.263	20298
889.387	20492
889.511	20537
889.635	20518
889.759	20423
889.883	20351
890.006	20263
890.13	20366
890.254	20282
890.377	20263
890.501	20046
890.624	20043
890.748	20111
890.871	20065
890.995	19864
891.118	19909
891.241	19936
891.364	19947
891.488	20084
891.611	20046
891.734	19978
891.857	20024
891.98	19928
892.103	19967
892.226	19875
892.349	19906
892.471	19788
892.594	19727
892.717	19807
892.839	19830
892.962	19936
893.085	19944
893.207	19875
893.33	19772
893.452	19624
893.575	19890
893.697	19887
893.819	20161
893.941	20062
894.064	19852
894.186	19856
894.308	19780
894.43	19955
894.552	19989
894.674	19898
894.796	19833
894.918	19887
895.04	19822
895.161	19879
895.283	19890
895.405	19856
895.526	19852
895.648	19772
895.769	19860
895.891	19913
896.012	20020
896.134	19906
896.255	19978
896.376	19780
896.498	19955
896.619	19951
896.74	19860
896.861	20001
896.982	20252
897.103	20301
897.224	20172
897.345	20115
897.466	20035
897.587	20115
897.708	20149
897.828	20202
897.949	20157
898.07	20027
898.19	19993
898.311	20107
898.431	20100
898.552	20069
898.672	20202
898.792	20122
898.913	20119
899.033	19963
899.153	19913
899.273	19784
899.393	19826
899.513	19917
899.633	19947
899.753	19887
899.873	19791
899.993	19906
900.113	19757
900.232	19830
900.352	19868
900.472	19715
900.591	19590
900.711	19647
900.83	19628
900.95	19731
901.069	19719
901.189	19582
901.308	19358
901.427	19156
901.546	19255
901.665	19255
901.784	19244
901.904	19053
902.023	19004
902.141	18882
902.26	18802
902.379	18875
902.498	18810
902.617	18776
902.735	18825
902.854	18711
902.973	18654
903.091	18388
903.21	18422
903.328	18410
903.446	18327
903.565	18228
903.683	18323
903.801	18091
903.919	18251
904.038	18163
904.156	17980
904.274	18110
904.392	17984
904.51	17866
904.627	18003
904.745	18068
904.863	18087
904.981	17828
905.098	17699
905.216	17695
905.334	17649
905.451	17668
905.569	17634
905.686	17809
905.803	17668
905.921	17452
906.038	17615
906.155	17482
906.272	17402
906.389	17315
906.506	17220
906.623	17330
906.74	17231
906.857	17075
906.974	17151
907.091	17356
907.208	17284
907.324	17280
907.441	17006
907.557	16885
907.674	16915
907.79	16793
907.907	16949
908.023	16972
908.139	16820
908.256	16877
908.372	16752
908.488	16820
908.604	16710
908.72	16550
908.836	16634
908.952	16656
909.068	16649
909.184	16691
909.3	16607
909.415	16740
909.531	16687
909.647	16409
909.762	16394
909.878	16455
909.993	16344
910.108	16303
910.224	16268
910.339	16337
910.454	16226
910.57	16124
910.685	16109
910.8	16375
910.915	16230
911.03	16067
911.145	16010
911.259	15918
911.374	15911
911.489	15857
911.604	15778
911.718	15660
911.833	15732
911.947	15561
912.062	15538
912.176	15724
912.291	15705
912.405	15690
912.519	15915
912.633	15949
912.748	15781
912.862	15587
912.976	15466
913.09	15363
913.204	15500
913.318	15408
913.431	15553
913.545	15553
913.659	15584
913.772	15389
913.886	15294
914	15184
914.113	15435
914.226	15439
914.34	15367
914.453	15211
914.566	15260
914.68	15211
914.793	15165
914.906	14948
915.019	14895
915.132	14804
915.245	14895
915.358	14857
915.47	14986
915.583	14933
915.696	14895
915.809	15039
915.921	15127
916.034	14845
916.146	14876
916.259	14857
916.371	14998
916.483	14929
916.595	14800
916.708	14621
916.82	14765
916.932	14743
917.044	14613
917.156	14697
917.268	14583
917.38	14670
917.491	14507
917.603	14610
917.715	14598
917.826	14579
917.938	14530
918.049	14396
918.161	14526
918.272	14701
918.384	14670
918.495	14522
918.606	14385
918.717	14240
918.828	14396
918.939	14396
919.05	14286
919.161	14358
919.272	14142
919.383	14195
919.494	14423
919.604	14415
919.715	14400
919.826	14336
919.936	14259
920.047	14419
920.157	14408
920.267	14423
920.378	14393
920.488	14366
920.598	14484
920.708	14571
920.818	14457
920.928	14415
921.038	14579
921.148	14549
921.258	14286
921.368	14123
921.477	14039
921.587	14005
921.697	13967
921.806	14058
921.916	13875
922.025	13723
922.134	13624
922.244	13658
922.353	13734
922.462	13460
922.571	13556
922.68	13422
922.789	13396
922.898	13362
923.007	13297
923.116	13282
923.224	13354
923.333	13350
923.442	13217
923.55	13072
923.659	13160
923.767	13187
923.876	13084
923.984	13266
924.092	13065
924.201	13050
924.309	13080
924.417	12951
924.525	12993
924.633	13000
924.741	13734
924.849	12837
924.956	12935
925.064	12817
925.172	12795
925.279	12795
925.387	12745
925.494	12757
925.602	12962
925.709	12867
925.816	12734
925.924	12688
926.031	12760
926.138	12711
926.245	12787
926.352	12604
926.459	12814
926.566	12829
926.673	12639
926.779	12574
926.886	12486
926.993	12418
927.099	12437
927.206	12319
927.312	12243
927.419	12369
927.525	12319
927.631	12285
927.737	12228
927.843	12209
927.95	12045
928.056	12098
928.162	12258
928.267	12285
928.373	12806
928.479	12178
928.585	12087
928.69	12175
928.796	12194
928.901	12053
929.007	11935
929.112	12022
929.218	11946
929.323	11923
929.428	11882
929.533	12064
929.638	11882
929.743	11863
929.848	11885
929.953	11805
930.058	11718
930.163	11573
930.267	11646
930.372	11741
930.477	11581
930.581	11802
930.685	11547
930.79	11452
930.894	11535
930.998	11471
931.103	11589
931.207	11330
931.311	11105
931.415	11094
931.519	10869
931.623	10881
