Data from test_V78500241_2304.txt Node
Date: Fri Mar 25 15:57:45 CST 2022
User: usil
Spectrometer: V785-0024
Trigger mode: 0
Integration Time (sec): 4.000000E-1
Scans to average: 1
Nonlinearity correction enabled: false
Boxcar width: 0
Storing dark spectrum: false
XAxis mode: Wavelengths
Number of Pixels in Spectrum: 1024
>>>>>Begin Spectral Data<<<<<
801.071	28995
801.214	28965
801.356	28660
801.499	28622
801.641	28417
801.783	28401
801.926	28588
802.068	28546
802.211	28485
802.353	28356
802.496	28344
802.638	28230
802.78	28242
802.923	28059
803.065	28101
803.208	28093
803.35	28166
803.492	28230
803.635	28394
803.777	28352
803.919	28535
804.061	28713
804.204	28630
804.346	28462
804.488	28440
804.63	28504
804.773	28394
804.915	28561
805.057	28656
805.199	28599
805.341	28588
805.483	28577
805.626	28615
805.768	28512
805.91	28668
806.052	28656
806.194	28596
806.336	28839
806.478	28569
806.62	28580
806.762	28793
806.904	29010
807.046	29056
807.188	29121
807.33	29140
807.472	29124
807.614	28968
807.756	29197
807.898	28866
808.04	28911
808.182	28885
808.324	28980
808.465	28961
808.607	29250
808.749	29349
808.891	29566
809.033	29611
809.174	29334
809.316	29212
809.458	29368
809.6	29261
809.741	29524
809.883	29482
810.025	29577
810.166	29710
810.308	29710
810.45	29573
810.591	29680
810.733	29490
810.875	29330
811.016	29178
811.158	29239
811.299	29444
811.441	29455
811.582	29539
811.724	29261
811.865	29322
812.007	29315
812.148	29425
812.29	29395
812.431	29509
812.573	29577
812.714	29794
812.855	29885
812.997	30030
813.138	30041
813.279	29965
813.421	29931
813.562	29718
813.703	29718
813.845	29554
813.986	29155
814.127	29136
814.268	29014
814.41	29075
814.551	29166
814.692	29113
814.833	29060
814.974	29098
815.115	29143
815.256	28911
815.397	29006
815.539	29003
815.68	28900
815.821	28888
815.962	28938
816.103	28862
816.244	28778
816.385	28675
816.526	28679
816.666	28603
816.807	28356
816.948	28405
817.089	28596
817.23	28386
817.371	28417
817.512	28314
817.653	28405
817.793	28352
817.934	28303
818.075	28318
818.216	28428
818.356	28329
818.497	28341
818.638	28128
818.778	28257
818.919	28211
819.06	28169
819.2	28295
819.341	28360
819.481	28409
819.622	28584
819.762	28740
819.903	28668
820.043	28535
820.184	28508
820.324	28645
820.465	28622
820.605	28459
820.746	28508
820.886	28306
821.026	28405
821.167	28363
821.307	28462
821.447	28432
821.588	28306
821.728	28325
821.868	28067
822.008	27918
822.149	27808
822.289	27819
822.429	27724
822.569	27568
822.709	27553
822.849	27473
822.99	27481
823.13	27401
823.27	27367
823.41	27310
823.55	27074
823.69	27199
823.83	27325
823.97	27173
824.11	26979
824.25	27119
824.389	26979
824.529	27116
824.669	27104
824.809	27127
824.949	26990
825.089	27119
825.228	27123
825.368	26842
825.508	26956
825.648	26880
825.787	26921
825.927	27047
826.067	26739
826.206	26929
826.346	26937
826.485	27032
826.625	26864
826.765	27112
826.904	26963
827.044	26739
827.183	26697
827.323	26716
827.462	26617
827.601	26708
827.741	26655
827.88	26712
828.02	26541
828.159	26617
828.298	26564
828.437	26727
828.577	26590
828.716	26765
828.855	26613
828.994	26355
829.134	26275
829.273	26286
829.412	26343
829.551	26221
829.69	26309
829.829	26328
829.968	26377
830.107	26336
830.246	26313
830.385	26229
830.524	26229
830.663	26149
830.802	25982
830.941	25875
831.08	25890
831.219	26020
831.357	26058
831.496	26218
831.635	25982
831.774	25898
831.913	25811
832.051	25693
832.19	25674
832.329	25761
832.467	25715
832.606	25590
832.744	25502
832.883	25502
833.022	25487
833.16	25578
833.299	25647
833.437	25521
833.576	25643
833.714	25613
833.852	25746
833.991	25670
834.129	25761
834.267	25681
834.406	25693
834.544	25674
834.682	25655
834.821	25628
834.959	25780
835.097	25616
835.235	25666
835.373	25594
835.511	25616
835.65	25514
835.788	25544
835.926	25403
836.064	25396
836.202	25358
836.34	25422
836.478	25578
836.615	25381
836.753	25438
836.891	25464
837.029	25392
837.167	25381
837.305	25293
837.443	25274
837.58	25415
837.718	25373
837.856	25266
837.993	25384
838.131	25285
838.269	25187
838.406	25137
838.544	25148
838.681	24962
838.819	24920
838.956	24635
839.094	24753
839.231	24848
839.369	24985
839.506	25145
839.643	25034
839.781	24677
839.918	24760
840.055	24711
840.193	24741
840.33	24654
840.467	24536
840.604	24601
840.742	24958
840.879	24650
841.016	24471
841.153	24517
841.29	24665
841.427	24669
841.564	24658
841.701	24639
841.838	24555
841.975	24623
842.112	24475
842.249	24380
842.385	24372
842.522	24505
842.659	24536
842.796	24388
842.933	24460
843.069	24296
843.206	24357
843.343	24433
843.479	24353
843.616	24334
843.752	24194
843.889	24247
844.025	24209
844.162	24239
844.298	24437
844.435	24148
844.571	24228
844.708	24125
844.844	24330
844.98	24369
845.117	24247
845.253	24213
845.389	24133
845.525	24041
845.661	24106
845.798	23817
845.934	23950
846.07	23828
846.206	23939
846.342	23916
846.478	23851
846.614	23623
846.75	23551
846.886	23657
847.022	23707
847.158	23608
847.294	23604
847.429	23547
847.565	23649
847.701	23897
847.837	23467
847.972	23376
848.108	23425
848.244	23463
848.379	23269
848.515	23242
848.65	23208
848.786	23258
848.921	23246
849.057	23341
849.192	23288
849.328	23261
849.463	23212
849.598	23212
849.734	23094
849.869	23136
850.004	22999
850.14	22984
850.275	23090
850.41	22839
850.545	22908
850.68	22953
850.815	22908
850.95	22915
851.085	23102
851.22	23033
851.355	23067
851.49	23006
851.625	23060
851.76	22934
851.895	22820
852.03	22946
852.165	22949
852.299	23071
852.434	23090
852.569	23003
852.703	22946
852.838	23010
852.973	23147
853.107	23151
853.242	22980
853.376	22816
853.511	22740
853.645	22698
853.78	22911
853.914	22828
854.048	22881
854.183	22820
854.317	22744
854.451	23052
854.585	22934
854.72	22793
854.854	22885
854.988	22752
855.122	22812
855.256	22584
855.39	22877
855.524	22908
855.658	22923
855.792	22889
855.926	22885
856.06	22854
856.194	22961
856.327	22755
856.461	22835
856.595	22736
856.729	22729
856.862	22938
856.996	22755
857.13	22839
857.263	22908
857.397	22866
857.53	22839
857.664	22801
857.797	22999
857.931	22915
858.064	22809
858.197	22892
858.331	22828
858.464	22748
858.597	22786
858.731	22767
858.864	22809
858.997	22885
859.13	22862
859.263	22858
859.396	22999
859.529	22843
859.662	22797
859.795	22828
859.928	22930
860.061	22984
860.194	23010
860.327	22896
860.46	22755
860.592	22995
860.725	22938
860.858	22873
860.99	22847
861.123	22664
861.256	22755
861.388	22771
861.521	23512
861.653	22653
861.786	22618
861.918	22615
862.05	22611
862.183	22656
862.315	22660
862.447	22786
862.58	22782
862.712	22592
862.844	22379
862.976	22687
863.108	22561
863.24	22889
863.372	22538
863.504	22363
863.636	22500
863.768	22626
863.9	22523
864.032	22531
864.164	22489
864.296	22493
864.428	22645
864.559	22588
864.691	22577
864.823	22542
864.954	22447
865.086	22466
865.217	22333
865.349	22371
865.48	22379
865.612	22242
865.743	22470
865.875	22405
866.006	22352
866.137	22459
866.269	22390
866.4	22478
866.531	22280
866.662	22322
866.793	22382
866.924	22215
867.055	22276
867.186	22299
867.317	22192
867.448	22166
867.579	22291
867.71	22215
867.841	22120
867.972	22318
868.103	22128
868.233	22398
868.364	22299
868.495	22333
868.625	22557
868.756	22717
868.886	22394
869.017	22462
869.147	22774
869.278	22694
869.408	22664
869.539	22508
869.669	22626
869.799	22565
869.929	22774
870.06	22679
870.19	22812
870.32	22873
870.45	22965
870.58	22900
870.71	23060
870.84	22999
870.97	22995
871.1	22805
871.23	23185
871.36	23204
871.489	23090
871.619	23132
871.749	23162
871.879	23117
872.008	23223
872.138	23094
872.267	23189
872.397	23067
872.526	23010
872.656	23113
872.785	23041
872.915	23071
873.044	23231
873.173	23197
873.303	23162
873.432	23200
873.561	23326
873.69	23128
873.819	23181
873.948	23216
874.077	23136
874.206	23189
874.335	23200
874.464	23288
874.593	23395
874.722	23273
874.851	23398
874.979	23463
875.108	23387
875.237	23254
875.365	23212
875.494	23277
875.623	23353
875.751	23341
875.88	23455
876.008	23433
876.136	23528
876.265	23764
876.393	23893
876.521	23885
876.65	23771
876.778	23745
876.906	23718
877.034	23672
877.162	23813
877.29	23668
877.418	23661
877.546	23771
877.674	23611
877.802	23695
877.93	23665
878.058	23608
878.185	23589
878.313	23592
878.441	23699
878.568	23444
878.696	23710
878.824	23684
878.951	23790
879.079	23935
879.206	23958
879.333	23710
879.461	23794
879.588	23863
879.715	23843
879.842	24060
879.97	23703
880.097	23562
880.224	23448
880.351	23455
880.478	23627
880.605	23433
880.732	23592
880.859	23676
880.986	23505
881.112	23497
881.239	23391
881.366	23318
881.493	23132
881.619	23162
881.746	23102
881.872	23121
881.999	23094
882.125	22987
882.252	23048
882.378	22965
882.505	23014
882.631	22980
882.757	22847
882.883	22858
883.01	22805
883.136	22664
883.262	22626
883.388	22531
883.514	22797
883.64	22771
883.766	22713
883.892	22516
884.018	22550
884.143	22637
884.269	22698
884.395	22489
884.52	22474
884.646	22405
884.772	22390
884.897	22318
885.023	22573
885.148	22447
885.274	22500
885.399	22466
885.524	22341
885.65	22363
885.775	22421
885.9	22337
886.025	22432
886.15	22497
886.275	22314
886.4	22352
886.525	22344
886.65	22325
886.775	22238
886.9	22481
887.025	22535
887.149	22325
887.274	22147
887.399	22093
887.523	21983
887.648	22200
887.773	21972
887.897	22295
888.021	22162
888.146	21956
888.27	22238
888.395	22295
888.519	22105
888.643	22234
888.767	22166
888.891	22002
889.015	21991
889.139	22010
889.263	21842
889.387	22112
889.511	22025
889.635	22017
889.759	21968
889.883	21842
890.006	21945
890.13	22036
890.254	21899
890.377	21846
890.501	21572
890.624	21561
890.748	21637
890.871	21644
890.995	21530
891.118	21416
891.241	21564
891.364	21416
891.488	21469
891.611	21511
891.734	21477
891.857	21549
891.98	21633
892.103	21435
892.226	21424
892.349	21340
892.471	21279
892.594	21336
892.717	21332
892.839	21344
892.962	21367
893.085	21450
893.207	21351
893.33	21233
893.452	21405
893.575	21492
893.697	21302
893.819	21500
893.941	21568
894.064	21500
894.186	21275
894.308	21222
894.43	21443
894.552	21454
894.674	21313
894.796	21313
894.918	21382
895.04	21317
895.161	21359
895.283	21348
895.405	21329
895.526	21340
895.648	21252
895.769	21420
895.891	21313
896.012	21348
896.134	21386
896.255	21275
896.376	21329
896.498	21287
896.619	21283
896.74	21336
896.861	21294
896.982	21682
897.103	21686
897.224	21488
897.345	21492
897.466	21500
897.587	21500
897.708	21698
897.828	21622
897.949	21431
898.07	21393
898.19	21469
898.311	21591
898.431	21424
898.552	21454
898.672	21447
898.792	21564
898.913	21447
899.033	21458
899.153	21344
899.273	21165
899.393	21222
899.513	21340
899.633	21218
899.753	21272
899.873	21226
899.993	21298
900.113	21272
900.232	21150
900.352	21085
900.472	21062
900.591	20918
900.711	21123
900.83	20956
900.95	21096
901.069	20998
901.189	20902
901.308	20697
901.427	20492
901.546	20541
901.665	20484
901.784	20686
901.904	20400
902.023	20362
902.141	20142
902.26	20100
902.379	20271
902.498	20008
902.617	20115
902.735	20092
902.854	20084
902.973	20016
903.091	19681
903.21	19712
903.328	19715
903.446	19700
903.565	19658
903.683	19533
903.801	19354
903.919	19529
904.038	19403
904.156	19202
904.274	19324
904.392	19282
904.51	19213
904.627	19255
904.745	19285
904.863	19194
904.981	19110
905.098	19088
905.216	19004
905.334	19050
905.451	18985
905.569	18886
905.686	19034
905.803	18905
905.921	18665
906.038	18688
906.155	18810
906.272	18669
906.389	18620
906.506	18467
906.623	18418
906.74	18540
906.857	18350
906.974	18361
907.091	18540
907.208	18627
907.324	18597
907.441	18388
907.557	18148
907.674	18133
907.79	18171
907.907	18163
908.023	18213
908.139	18136
908.256	18114
908.372	18098
908.488	18060
908.604	18003
908.72	17798
908.836	17863
908.952	17760
909.068	17824
909.184	17904
909.3	17920
909.415	18011
909.531	17847
909.647	17646
909.762	17570
909.878	17604
909.993	17509
910.108	17562
910.224	17611
910.339	17528
910.454	17448
910.57	17322
910.685	17356
910.8	17615
910.915	17543
911.03	17429
911.145	17303
911.259	17124
911.374	17098
911.489	17098
911.604	17045
911.718	16847
911.833	16850
911.947	16881
912.062	16721
912.176	16908
912.291	16877
912.405	16850
912.519	17105
912.633	17048
912.748	17029
912.862	16729
912.976	16740
913.09	16596
913.204	16694
913.318	16740
913.431	16820
913.545	16843
913.659	16809
913.772	16596
913.886	16527
914	16409
914.113	16626
914.226	16523
914.34	16561
914.453	16379
914.566	16538
914.68	16223
914.793	16348
914.906	16116
915.019	16169
915.132	15998
915.245	16086
915.358	16112
915.47	16090
915.583	16036
915.696	16055
915.809	16219
915.921	16181
916.034	16025
916.146	15911
916.259	15964
916.371	16109
916.483	16013
916.595	15930
916.708	15922
916.82	15846
916.932	15831
917.044	15755
917.156	15762
917.268	15679
917.38	15724
917.491	15633
917.603	15705
917.715	15865
917.826	15823
917.938	15671
918.049	15530
918.161	15648
918.272	15781
918.384	15671
918.495	15507
918.606	15447
918.717	15412
918.828	15549
918.939	15424
919.05	15389
919.161	15348
919.272	15249
919.383	15260
919.494	15408
919.604	15633
919.715	15363
919.826	15325
919.936	15317
920.047	15473
920.157	15389
920.267	15416
920.378	15351
920.488	15336
920.598	15572
920.708	15652
920.818	15466
920.928	15401
921.038	15690
921.148	15572
921.258	15214
921.368	15249
921.477	15085
921.587	15081
921.697	14960
921.806	15055
921.916	14914
922.025	14792
922.134	14670
922.244	14655
922.353	14769
922.462	14587
922.571	14590
922.68	14362
922.789	14267
922.898	14267
923.007	14317
923.116	14370
923.224	14389
923.333	14282
923.442	14119
923.55	14092
923.659	14252
923.767	14218
923.876	14103
923.984	14176
924.092	14077
924.201	14100
924.309	14008
924.417	14046
924.525	14001
924.633	14039
924.741	14902
924.849	13837
924.956	13875
925.064	13822
925.172	13772
925.279	13772
925.387	13655
925.494	13651
925.602	13921
925.709	13712
925.816	13548
925.924	13586
926.031	13700
926.138	13670
926.245	13670
926.352	13548
926.459	13628
926.566	13685
926.673	13533
926.779	13434
926.886	13533
926.993	13316
927.099	13289
927.206	13141
927.312	13209
927.419	13274
927.525	13217
927.631	13194
927.737	13164
927.843	13038
927.95	13069
928.056	13126
928.162	13095
928.267	13023
928.373	13681
928.479	13084
928.585	12993
928.69	13065
928.796	13050
928.901	12859
929.007	12753
929.112	12966
929.218	12856
929.323	12825
929.428	12730
929.533	12856
929.638	12696
929.743	12715
929.848	12684
929.953	12677
930.058	12597
930.163	12441
930.267	12521
930.372	12532
930.477	12384
930.581	12547
930.685	12380
930.79	12258
930.894	12327
930.998	12277
931.103	12414
931.207	12114
931.311	11939
931.415	11821
931.519	11672
931.623	11649
