Data from test_V78500241_3287.txt Node
Date: Fri Mar 25 16:04:34 CST 2022
User: usil
Spectrometer: V785-0024
Trigger mode: 0
Integration Time (sec): 4.000000E-1
Scans to average: 1
Nonlinearity correction enabled: false
Boxcar width: 0
Storing dark spectrum: false
XAxis mode: Wavelengths
Number of Pixels in Spectrum: 1024
>>>>>Begin Spectral Data<<<<<
801.071	28717
801.214	28436
801.356	28329
801.499	28303
801.641	28051
801.783	28074
801.926	28223
802.068	28204
802.211	28078
802.353	27949
802.496	27941
802.638	27895
802.78	27789
802.923	27701
803.065	27701
803.208	27739
803.35	27751
803.492	28017
803.635	27953
803.777	27918
803.919	28116
804.061	28181
804.204	28109
804.346	27880
804.488	27953
804.63	28078
804.773	27918
804.915	28147
805.057	28238
805.199	28063
805.341	28306
805.483	28223
805.626	28242
805.768	28124
805.91	28226
806.052	28154
806.194	28265
806.336	28291
806.478	28158
806.62	28150
806.762	28413
806.904	28618
807.046	28733
807.188	28702
807.33	28554
807.472	28683
807.614	28683
807.756	28641
807.898	28523
808.04	28447
808.182	28485
808.324	28523
808.465	28466
808.607	28733
808.749	28892
808.891	28999
809.033	28980
809.174	28900
809.316	28987
809.458	28946
809.6	28869
809.741	28908
809.883	29048
810.025	29185
810.166	29212
810.308	29102
810.45	29124
810.591	29090
810.733	28965
810.875	28828
811.016	28961
811.158	28790
811.299	29022
811.441	28987
811.582	28965
811.724	28938
811.865	28930
812.007	28972
812.148	28938
812.29	29044
812.431	29128
812.573	29337
812.714	29334
812.855	29429
812.997	29474
813.138	29562
813.279	29452
813.421	29379
813.562	29375
813.703	29239
813.845	29193
813.986	28927
814.127	28683
814.268	28561
814.41	28626
814.551	28577
814.692	28672
814.833	28573
814.974	28645
815.115	28664
815.256	28341
815.397	28584
815.539	28500
815.68	28299
815.821	28329
815.962	28470
816.103	28390
816.244	28207
816.385	28268
816.526	28177
816.666	28029
816.807	27835
816.948	28002
817.089	28059
817.23	27972
817.371	27979
817.512	27747
817.653	27914
817.793	27835
817.934	27907
818.075	27998
818.216	27926
818.356	27907
818.497	27831
818.638	27667
818.778	27732
818.919	27800
819.06	27698
819.2	27972
819.341	27903
819.481	27975
819.622	28051
819.762	28356
819.903	28135
820.043	28177
820.184	28082
820.324	28006
820.465	28158
820.605	28211
820.746	28078
820.886	27884
821.026	28074
821.167	28051
821.307	28105
821.447	28002
821.588	27991
821.728	27743
821.868	27648
822.008	27561
822.149	27408
822.289	27275
822.429	27116
822.569	26960
822.709	27005
822.849	26948
822.99	26830
823.13	26819
823.27	26864
823.41	26625
823.55	26579
823.69	26785
823.83	26686
823.97	26651
824.11	26476
824.25	26545
824.389	26560
824.529	26514
824.669	26404
824.809	26724
824.949	26708
825.089	26609
825.228	26648
825.368	26427
825.508	26374
825.648	26370
825.787	26450
825.927	26533
826.067	26541
826.206	26484
826.346	26465
826.485	26419
826.625	26484
826.765	26636
826.904	26507
827.044	26267
827.183	26206
827.323	26115
827.462	26210
827.601	26050
827.741	26073
827.88	26233
828.02	26054
828.159	26206
828.298	26244
828.437	26180
828.577	26221
828.716	26301
828.855	26024
828.994	25963
829.134	25772
829.273	25947
829.412	25856
829.551	25765
829.69	25928
829.829	25894
829.968	25989
830.107	25978
830.246	25879
830.385	25822
830.524	25845
830.663	25582
830.802	25609
830.941	25445
831.08	25499
831.219	25464
831.357	25537
831.496	25761
831.635	25476
831.774	25445
831.913	25263
832.051	25266
832.19	25160
832.329	25209
832.467	25160
832.606	25141
832.744	25141
832.883	25076
833.022	25099
833.16	25133
833.299	25232
833.437	25168
833.576	25293
833.714	25133
833.852	25343
833.991	25259
834.129	25164
834.267	25255
834.406	25187
834.544	25129
834.682	25209
834.821	25164
834.959	25365
835.097	25175
835.235	25023
835.373	25118
835.511	25171
835.65	25103
835.788	25057
835.926	25084
836.064	24741
836.202	24905
836.34	24947
836.478	25050
836.615	25050
836.753	24932
836.891	25156
837.029	25015
837.167	24916
837.305	24932
837.443	24886
837.58	24798
837.718	24837
837.856	24996
837.993	24730
838.131	24802
838.269	24688
838.406	24840
838.544	24623
838.681	24479
838.819	24486
838.956	24407
839.094	24353
839.231	24292
839.369	24445
839.506	24536
839.643	24505
839.781	24357
839.918	24262
840.055	24429
840.193	24289
840.33	24190
840.467	24194
840.604	24311
840.742	24559
840.879	24057
841.016	24194
841.153	24228
841.29	24285
841.427	24216
841.564	24388
841.701	24292
841.838	24213
841.975	24102
842.112	24182
842.249	24110
842.385	23935
842.522	24232
842.659	24060
842.796	23882
842.933	24095
843.069	23878
843.206	23866
843.343	24022
843.479	23965
843.616	23927
843.752	23836
843.889	23843
844.025	23931
844.162	23851
844.298	23874
844.435	23828
844.571	23710
844.708	23718
844.844	23977
844.98	23870
845.117	23805
845.253	23756
845.389	23566
845.525	23760
845.661	23619
845.798	23501
845.934	23585
846.07	23486
846.206	23577
846.342	23585
846.478	23478
846.614	23296
846.75	23124
846.886	23083
847.022	23269
847.158	23265
847.294	23261
847.429	23307
847.565	23242
847.701	23440
847.837	22858
847.972	23037
848.108	23048
848.244	22991
848.379	22889
848.515	22767
848.65	22816
848.786	22687
848.921	22858
849.057	22930
849.192	22850
849.328	22797
849.463	22797
849.598	22592
849.734	22752
849.869	22641
850.004	22481
850.14	22531
850.275	22550
850.41	22516
850.545	22508
850.68	22592
850.815	22672
850.95	22512
851.085	22637
851.22	22622
851.355	22618
851.49	22519
851.625	22493
851.76	22641
851.895	22481
852.03	22375
852.165	22531
852.299	22630
852.434	22672
852.569	22634
852.703	22493
852.838	22538
852.973	22668
853.107	22675
853.242	22603
853.376	22432
853.511	22246
853.645	22329
853.78	22508
853.914	22314
854.048	22284
854.183	22394
854.317	22512
854.451	22577
854.585	22363
854.72	22329
854.854	22500
854.988	22306
855.122	22421
855.256	22299
855.39	22382
855.524	22451
855.658	22325
855.792	22413
855.926	22322
856.06	22443
856.194	22588
856.327	22375
856.461	22242
856.595	22352
856.729	22333
856.862	22390
856.996	22436
857.13	22405
857.263	22413
857.397	22455
857.53	22390
857.664	22360
857.797	22462
857.931	22451
858.064	22474
858.197	22535
858.331	22333
858.464	22329
858.597	22249
858.731	22436
858.864	22303
858.997	22424
859.13	22398
859.263	22287
859.396	22527
859.529	22432
859.662	22215
859.795	22291
859.928	22390
860.061	22447
860.194	22687
860.327	22356
860.46	22432
860.592	22497
860.725	22512
860.858	22580
860.99	22398
861.123	22154
861.256	22268
861.388	22493
861.521	23185
861.653	22268
861.786	22173
861.918	22162
862.05	22268
862.183	22215
862.315	22341
862.447	22421
862.58	22276
862.712	22109
862.844	22040
862.976	22204
863.108	22109
863.24	22607
863.372	22010
863.504	22067
863.636	22040
863.768	22078
863.9	22181
864.032	22226
864.164	22032
864.296	22219
864.428	22322
864.559	22158
864.691	22116
864.823	22116
864.954	22025
865.086	22090
865.217	22029
865.349	21979
865.48	22017
865.612	21968
865.743	22067
865.875	22051
866.006	21850
866.137	21964
866.269	22051
866.4	21937
866.531	21926
866.662	21930
866.793	21823
866.924	21903
867.055	21876
867.186	21941
867.317	21812
867.448	21778
867.579	21899
867.71	21816
867.841	21835
867.972	21838
868.103	21956
868.233	21850
868.364	21987
868.495	21964
868.625	22204
868.756	22219
868.886	22105
869.017	22181
869.147	22246
869.278	22276
869.408	22097
869.539	22128
869.669	22242
869.799	22215
869.929	22284
870.06	22200
870.19	22466
870.32	22447
870.45	22481
870.58	22596
870.71	22641
870.84	22615
870.97	22504
871.1	22573
871.23	22729
871.36	22809
871.489	22603
871.619	22702
871.749	22828
871.879	22736
872.008	22771
872.138	22729
872.267	22599
872.397	22561
872.526	22580
872.656	22577
872.785	22504
872.915	22733
873.044	22721
873.173	22797
873.303	22744
873.432	22588
873.561	22816
873.69	22771
873.819	22702
873.948	22866
874.077	22786
874.206	22687
874.335	22904
874.464	22968
874.593	22930
874.722	22938
874.851	23003
874.979	22885
875.108	22961
875.237	22961
875.365	22949
875.494	23060
875.623	23090
875.751	22923
875.88	22908
876.008	23189
876.136	23197
876.265	23307
876.393	23501
876.521	23463
876.65	23638
876.778	23356
876.906	23326
877.034	23280
877.162	23322
877.29	23269
877.418	23322
877.546	23250
877.674	23303
877.802	23261
877.93	23353
878.058	23353
878.185	23231
878.313	23261
878.441	23143
878.568	23181
878.696	23299
878.824	23341
878.951	23467
879.079	23528
879.206	23528
879.333	23543
879.461	23261
879.588	23452
879.715	23512
879.842	23634
879.97	23379
880.097	23189
880.224	23273
880.351	23216
880.478	23246
880.605	23147
880.732	23151
880.859	23414
880.986	23174
881.112	23223
881.239	22930
881.366	22927
881.493	22694
881.619	22645
881.746	22649
881.872	22809
881.999	22706
882.125	22721
882.252	22725
882.378	22557
882.505	22839
882.631	22664
882.757	22478
882.883	22500
883.01	22424
883.136	22417
883.262	22226
883.388	22246
883.514	22394
883.64	22424
883.766	22253
883.892	22166
884.018	22268
884.143	22466
884.269	22421
884.395	22204
884.52	22036
884.646	22093
884.772	21960
884.897	21968
885.023	21926
885.148	22219
885.274	22059
885.399	22131
885.524	21964
885.65	22150
885.775	22067
885.9	22029
886.025	21987
886.15	21934
886.275	21846
886.4	21903
886.525	21998
886.65	21941
886.775	22021
886.9	22040
887.025	22204
887.149	21907
887.274	21682
887.399	21755
887.523	21797
887.648	21804
887.773	21739
887.897	21808
888.021	21713
888.146	21568
888.27	21911
888.395	21926
888.519	21838
888.643	21713
888.767	21793
888.891	21591
889.015	21469
889.139	21675
889.263	21428
889.387	21797
889.511	21713
889.635	21694
889.759	21595
889.883	21530
890.006	21644
890.13	21694
890.254	21462
890.377	21458
890.501	21291
890.624	21256
890.748	21336
890.871	21264
890.995	21173
891.118	21131
891.241	21135
891.364	21123
891.488	21218
891.611	21214
891.734	21161
891.857	21199
891.98	21252
892.103	21173
892.226	21112
892.349	21062
892.471	20921
892.594	21043
892.717	21039
892.839	20975
892.962	21055
893.085	21074
893.207	21013
893.33	20925
893.452	20807
893.575	20914
893.697	20960
893.819	21211
893.941	21184
894.064	21256
894.186	20788
894.308	20891
894.43	21096
894.552	21230
894.674	21039
894.796	20880
894.918	21017
895.04	20895
895.161	21005
895.283	20944
895.405	20861
895.526	21028
895.648	20918
895.769	21024
895.891	21001
896.012	21036
896.134	21032
896.255	20986
896.376	20994
896.498	21062
896.619	21017
896.74	20971
896.861	21017
896.982	21294
897.103	21454
897.224	21169
897.345	21154
897.466	21161
897.587	21272
897.708	21313
897.828	21359
897.949	21123
898.07	20982
898.19	21180
898.311	21291
898.431	21135
898.552	21150
898.672	21302
898.792	21237
898.913	21245
899.033	21123
899.153	21112
899.273	21013
899.393	20899
899.513	21005
899.633	20948
899.753	21001
899.873	20849
899.993	20975
900.113	20914
900.232	20906
900.352	20918
900.472	20731
900.591	20651
900.711	20739
900.83	20659
900.95	20811
901.069	20743
901.189	20598
901.308	20385
901.427	20183
901.546	20305
901.665	20195
901.784	20271
901.904	20107
902.023	19986
902.141	19944
902.26	19818
902.379	19947
902.498	19837
902.617	19715
902.735	19841
902.854	19791
902.973	19651
903.091	19457
903.21	19426
903.328	19487
903.446	19354
903.565	19266
903.683	19247
903.801	19209
903.919	19099
904.038	19141
904.156	19023
904.274	19000
904.392	18863
904.51	18966
904.627	18848
904.745	19038
904.863	19148
904.981	18802
905.098	18597
905.216	18684
905.334	18642
905.451	18570
905.569	18635
905.686	18753
905.803	18612
905.921	18330
906.038	18582
906.155	18452
906.272	18270
906.389	18304
906.506	18254
906.623	18205
906.74	18167
906.857	18053
906.974	18110
907.091	18163
907.208	18194
907.324	18163
907.441	18121
907.557	17908
907.674	17832
907.79	17863
907.907	17802
908.023	17882
908.139	17726
908.256	17855
908.372	17756
908.488	17802
908.604	17630
908.72	17657
908.836	17638
908.952	17562
909.068	17589
909.184	17710
909.3	17627
909.415	17535
909.531	17543
909.647	17334
909.762	17356
909.878	17318
909.993	17296
910.108	17372
910.224	17246
910.339	17200
910.454	17105
910.57	17105
910.685	17052
910.8	17296
910.915	17322
911.03	17109
911.145	16995
911.259	16805
911.374	16847
911.489	16831
911.604	16729
911.718	16653
911.833	16733
911.947	16424
912.062	16527
912.176	16542
912.291	16660
912.405	16542
912.519	16797
912.633	16957
912.748	16615
912.862	16664
912.976	16577
913.09	16375
913.204	16341
913.318	16531
913.431	16493
913.545	16500
913.659	16546
913.772	16322
913.886	16287
914	16207
914.113	16261
914.226	16287
914.34	16314
914.453	16063
914.566	16226
914.68	16017
914.793	16055
914.906	15991
915.019	15861
915.132	15762
915.245	15797
915.358	15793
915.47	15827
915.583	15819
915.696	15838
915.809	15934
915.921	15842
916.034	15641
916.146	15747
916.259	15682
916.371	15808
916.483	15701
916.595	15732
916.708	15705
916.82	15568
916.932	15625
917.044	15572
917.156	15599
917.268	15473
917.38	15469
917.491	15386
917.603	15473
917.715	15515
917.826	15466
917.938	15420
918.049	15344
918.161	15367
918.272	15466
918.384	15504
918.495	15359
918.606	15310
918.717	15173
918.828	15112
918.939	15214
919.05	15032
919.161	15108
919.272	14891
919.383	15066
919.494	15176
919.604	15291
919.715	15066
919.826	15089
919.936	15184
920.047	15188
920.157	15047
920.267	15317
920.378	15138
920.488	15104
920.598	15298
920.708	15264
920.818	15256
920.928	15252
921.038	15386
921.148	15370
921.258	15085
921.368	15005
921.477	14872
921.587	14823
921.697	14610
921.806	14773
921.916	14610
922.025	14541
922.134	14412
922.244	14457
922.353	14480
922.462	14343
922.571	14328
922.68	14145
922.789	14111
922.898	14115
923.007	14206
923.116	14164
923.224	14103
923.333	14092
923.442	13974
923.55	14016
923.659	13982
923.767	14020
923.876	13887
923.984	13993
924.092	13913
924.201	13830
924.309	13822
924.417	13940
924.525	13723
924.633	13731
924.741	14495
924.849	13594
924.956	13693
925.064	13586
925.172	13438
925.279	13525
925.387	13582
925.494	13487
925.602	13620
925.709	13533
925.816	13384
925.924	13460
926.031	13487
926.138	13343
926.245	13445
926.352	13358
926.459	13453
926.566	13400
926.673	13346
926.779	13198
926.886	13263
926.993	13080
927.099	13080
927.206	12939
927.312	12977
927.419	13160
927.525	13019
927.631	13080
927.737	12977
927.843	12939
927.95	12783
928.056	12878
928.162	12798
928.267	12943
928.373	13438
928.479	13050
928.585	12665
928.69	12798
928.796	12928
928.901	12741
929.007	12521
929.112	12662
929.218	12688
929.323	12604
929.428	12574
929.533	12715
929.638	12494
929.743	12479
929.848	12604
929.953	12563
930.058	12448
930.163	12239
930.267	12209
930.372	12365
930.477	12209
930.581	12426
930.685	12304
930.79	12186
930.894	12175
930.998	12091
931.103	12197
931.207	11828
931.311	11760
931.415	11680
931.519	11547
931.623	11490
