Data from test_V78500241_2524.txt Node
Date: Fri Mar 25 15:59:17 CST 2022
User: usil
Spectrometer: V785-0024
Trigger mode: 0
Integration Time (sec): 4.000000E-1
Scans to average: 1
Nonlinearity correction enabled: false
Boxcar width: 0
Storing dark spectrum: false
XAxis mode: Wavelengths
Number of Pixels in Spectrum: 1024
>>>>>Begin Spectral Data<<<<<
801.071	28679
801.214	28713
801.356	28459
801.499	28451
801.641	28344
801.783	28405
801.926	28261
802.068	28462
802.211	28253
802.353	28272
802.496	28059
802.638	28109
802.78	27975
802.923	27941
803.065	27770
803.208	27998
803.35	27968
803.492	28166
803.635	28257
803.777	28097
803.919	28166
804.061	28603
804.204	28303
804.346	28166
804.488	28169
804.63	28154
804.773	28131
804.915	28097
805.057	28459
805.199	28261
805.341	28253
805.483	28371
805.626	28474
805.768	28226
805.91	28382
806.052	28459
806.194	28356
806.336	28485
806.478	28371
806.62	28516
806.762	28516
806.904	28603
807.046	28797
807.188	28782
807.33	28759
807.472	28938
807.614	28850
807.756	28854
807.898	28805
808.04	28710
808.182	28607
808.324	28618
808.465	28820
808.607	29128
808.749	29029
808.891	29117
809.033	29307
809.174	29181
809.316	29014
809.458	29105
809.6	29006
809.741	29151
809.883	29239
810.025	29220
810.166	29364
810.308	29273
810.45	29341
810.591	29337
810.733	28961
810.875	29033
811.016	28976
811.158	29052
811.299	29242
811.441	29273
811.582	29341
811.724	29113
811.865	29029
812.007	29079
812.148	29136
812.29	29094
812.431	29288
812.573	29379
812.714	29471
812.855	29600
812.997	29752
813.138	29870
813.279	29836
813.421	29547
813.562	29573
813.703	29414
813.845	29315
813.986	29117
814.127	28812
814.268	28698
814.41	28672
814.551	28706
814.692	28965
814.833	28725
814.974	28782
815.115	28991
815.256	28710
815.397	28664
815.539	28687
815.68	28542
815.821	28710
815.962	28523
816.103	28557
816.244	28554
816.385	28557
816.526	28478
816.666	28352
816.807	28124
816.948	28257
817.089	28181
817.23	28192
817.371	28013
817.512	28059
817.653	28017
817.793	28067
817.934	28021
818.075	28154
818.216	28124
818.356	28097
818.497	27964
818.638	27964
818.778	27812
818.919	27869
819.06	28070
819.2	27831
819.341	28093
819.481	28139
819.622	28322
819.762	28447
819.903	28565
820.043	28162
820.184	28344
820.324	28265
820.465	28363
820.605	28207
820.746	28337
820.886	28070
821.026	28200
821.167	28192
821.307	28322
821.447	28051
821.588	28010
821.728	27918
821.868	27622
822.008	27660
822.149	27629
822.289	27519
822.429	27466
822.569	27272
822.709	27310
822.849	27005
822.99	27131
823.13	27028
823.27	27062
823.41	27005
823.55	26826
823.69	26990
823.83	26937
823.97	26899
824.11	26792
824.25	26697
824.389	26800
824.529	26918
824.669	26693
824.809	26830
824.949	26933
825.089	26785
825.228	26777
825.368	26541
825.508	26644
825.648	26575
825.787	26701
825.927	26590
826.067	26613
826.206	26617
826.346	26743
826.485	26788
826.625	26659
826.765	26746
826.904	26762
827.044	26396
827.183	26400
827.323	26248
827.462	26408
827.601	26457
827.741	26374
827.88	26404
828.02	26134
828.159	26328
828.298	26476
828.437	26351
828.577	26313
828.716	26423
828.855	26161
828.994	26096
829.134	26081
829.273	25982
829.412	25909
829.551	25906
829.69	26088
829.829	25970
829.968	26103
830.107	26138
830.246	25982
830.385	25986
830.524	25917
830.663	25788
830.802	25750
830.941	25818
831.08	25590
831.219	25841
831.357	25712
831.496	25837
831.635	25616
831.774	25609
831.913	25677
832.051	25381
832.19	25392
832.329	25502
832.467	25343
832.606	25217
832.744	25270
832.883	25285
833.022	25221
833.16	25232
833.299	25282
833.437	25411
833.576	25316
833.714	25331
833.852	25559
833.991	25384
834.129	25491
834.267	25449
834.406	25377
834.544	25396
834.682	25514
834.821	25316
834.959	25502
835.097	25213
835.235	25491
835.373	25335
835.511	25354
835.65	25213
835.788	25137
835.926	25122
836.064	24943
836.202	25065
836.34	25152
836.478	25213
836.615	25217
836.753	25236
836.891	25324
837.029	25198
837.167	25046
837.305	25019
837.443	25107
837.58	25046
837.718	25148
837.856	25046
837.993	24977
838.131	24992
838.269	24829
838.406	25053
838.544	24837
838.681	24665
838.819	24722
838.956	24486
839.094	24380
839.231	24505
839.369	24658
839.506	24871
839.643	24707
839.781	24486
839.918	24346
840.055	24498
840.193	24426
840.33	24441
840.467	24407
840.604	24448
840.742	24593
840.879	24239
841.016	24350
841.153	24346
841.29	24460
841.427	24353
841.564	24395
841.701	24281
841.838	24270
841.975	24273
842.112	24251
842.249	24254
842.385	24155
842.522	24384
842.659	24110
842.796	24205
842.933	24182
843.069	24110
843.206	24125
843.343	24224
843.479	24228
843.616	24076
843.752	23958
843.889	23912
844.025	24003
844.162	23973
844.298	23927
844.435	23950
844.571	23817
844.708	23980
844.844	24129
844.98	23999
845.117	23984
845.253	23687
845.389	23817
845.525	23722
845.661	23756
845.798	23691
845.934	23741
846.07	23661
846.206	23562
846.342	23623
846.478	23589
846.614	23455
846.75	23212
846.886	23337
847.022	23345
847.158	23368
847.294	23353
847.429	23337
847.565	23254
847.701	23524
847.837	23216
847.972	22991
848.108	23178
848.244	23143
848.379	22995
848.515	23037
848.65	22908
848.786	22984
848.921	22968
849.057	23060
849.192	22995
849.328	23037
849.463	23006
849.598	22869
849.734	22801
849.869	22839
850.004	22668
850.14	22717
850.275	22710
850.41	22622
850.545	22660
850.68	22637
850.815	22626
850.95	22778
851.085	22862
851.22	22801
851.355	22653
851.49	22767
851.625	22729
851.76	22713
851.895	22535
852.03	22584
852.165	22637
852.299	22786
852.434	22847
852.569	22736
852.703	22858
852.838	22763
852.973	22793
853.107	22820
853.242	22729
853.376	22706
853.511	22508
853.645	22516
853.78	22736
853.914	22538
854.048	22538
854.183	22432
854.317	22493
854.451	22721
854.585	22341
854.72	22466
854.854	22584
854.988	22542
855.122	22519
855.256	22417
855.39	22542
855.524	22580
855.658	22462
855.792	22557
855.926	22531
856.06	22573
856.194	22656
856.327	22527
856.461	22569
856.595	22493
856.729	22462
856.862	22588
856.996	22622
857.13	22607
857.263	22713
857.397	22668
857.53	22535
857.664	22569
857.797	22607
857.931	22653
858.064	22508
858.197	22592
858.331	22557
858.464	22512
858.597	22314
858.731	22516
858.864	22561
858.997	22451
859.13	22462
859.263	22413
859.396	22721
859.529	22432
859.662	22527
859.795	22557
859.928	22489
860.061	22698
860.194	22774
860.327	22542
860.46	22455
860.592	22618
860.725	22596
860.858	22706
860.99	22592
861.123	22470
861.256	22341
861.388	22592
861.521	23223
861.653	22390
861.786	22371
861.918	22310
862.05	22421
862.183	22466
862.315	22500
862.447	22607
862.58	22470
862.712	22310
862.844	22207
862.976	22314
863.108	22337
863.24	22573
863.372	22200
863.504	22360
863.636	22188
863.768	22314
863.9	22276
864.032	22112
864.164	22116
864.296	22185
864.428	22310
864.559	22314
864.691	22280
864.823	22211
864.954	22166
865.086	22230
865.217	22051
865.349	22036
865.48	22109
865.612	22131
865.743	22280
865.875	21994
866.006	21987
866.137	22196
866.269	22128
866.4	22128
866.531	21991
866.662	22101
866.793	22109
866.924	21960
867.055	22181
867.186	22090
867.317	22002
867.448	21972
867.579	22082
867.71	21964
867.841	22090
867.972	22025
868.103	22036
868.233	22059
868.364	21972
868.495	22128
868.625	22318
868.756	22428
868.886	22219
869.017	22295
869.147	22375
869.278	22470
869.408	22310
869.539	22268
869.669	22318
869.799	22493
869.929	22455
870.06	22386
870.19	22668
870.32	22573
870.45	22649
870.58	22538
870.71	22679
870.84	22858
870.97	22805
871.1	22656
871.23	22835
871.36	22919
871.489	22752
871.619	22858
871.749	22847
871.879	22908
872.008	22980
872.138	22862
872.267	22877
872.397	22717
872.526	22702
872.656	22675
872.785	22812
872.915	22923
873.044	22984
873.173	22835
873.303	22900
873.432	23075
873.561	23079
873.69	22881
873.819	22957
873.948	23094
874.077	23025
874.206	22953
874.335	23044
874.464	23041
874.593	23109
874.722	23029
874.851	23151
874.979	23280
875.108	23231
875.237	23204
875.365	22972
875.494	23166
875.623	23166
875.751	23083
875.88	23155
876.008	23235
876.136	23303
876.265	23398
876.393	23661
876.521	23440
876.65	23528
876.778	23539
876.906	23429
877.034	23440
877.162	23463
877.29	23467
877.418	23429
877.546	23455
877.674	23520
877.802	23452
877.93	23440
878.058	23387
878.185	23406
878.313	23425
878.441	23421
878.568	23368
878.696	23436
878.824	23478
878.951	23539
879.079	23714
879.206	23805
879.333	23687
879.461	23581
879.588	23501
879.715	23646
879.842	23745
879.97	23535
880.097	23433
880.224	23254
880.351	23284
880.478	23273
880.605	23189
880.732	23315
880.859	23425
880.986	23170
881.112	23398
881.239	23254
881.366	23052
881.493	22976
881.619	22786
881.746	22923
881.872	22911
881.999	22923
882.125	22710
882.252	22908
882.378	22866
882.505	22938
882.631	22664
882.757	22504
882.883	22557
883.01	22538
883.136	22470
883.262	22363
883.388	22413
883.514	22447
883.64	22508
883.766	22451
883.892	22306
884.018	22284
884.143	22535
884.269	22580
884.395	22234
884.52	22185
884.646	22147
884.772	22105
884.897	22135
885.023	22169
885.148	22280
885.274	22382
885.399	22200
885.524	22143
885.65	22147
885.775	22116
885.9	22200
886.025	22238
886.15	22090
886.275	22192
886.4	22143
886.525	22143
886.65	22143
886.775	22017
886.9	22295
887.025	22352
887.149	21968
887.274	21903
887.399	21865
887.523	21945
887.648	21930
887.773	21705
887.897	21983
888.021	21934
888.146	21892
888.27	21941
888.395	22010
888.519	21975
888.643	21926
888.767	21941
888.891	21785
889.015	21694
889.139	21705
889.263	21739
889.387	21838
889.511	21892
889.635	21789
889.759	21701
889.883	21526
890.006	21709
890.13	21717
890.254	21568
890.377	21629
890.501	21488
890.624	21230
890.748	21454
890.871	21336
890.995	21355
891.118	21173
891.241	21348
891.364	21195
891.488	21420
891.611	21169
891.734	21138
891.857	21260
891.98	21272
892.103	21260
892.226	21142
892.349	21195
892.471	21028
892.594	21150
892.717	21214
892.839	21176
892.962	21100
893.085	21184
893.207	21104
893.33	21032
893.452	20918
893.575	21222
893.697	21081
893.819	21306
893.941	21431
894.064	21195
894.186	20963
894.308	21119
894.43	21131
894.552	21169
894.674	21081
894.796	20944
894.918	21138
895.04	21058
895.161	21188
895.283	21165
895.405	20994
895.526	21146
895.648	21058
895.769	21058
895.891	21154
896.012	21218
896.134	21233
896.255	21199
896.376	21055
896.498	21116
896.619	21051
896.74	21135
896.861	21108
896.982	21477
897.103	21488
897.224	21431
897.345	21439
897.466	21154
897.587	21355
897.708	21348
897.828	21393
897.949	21112
898.07	21089
898.19	21226
898.311	21317
898.431	21192
898.552	21272
898.672	21344
898.792	21241
898.913	21264
899.033	21192
899.153	21256
899.273	20960
899.393	21017
899.513	21081
899.633	21066
899.753	21028
899.873	20941
899.993	20994
900.113	21001
900.232	20975
900.352	21017
900.472	20929
900.591	20830
900.711	20788
900.83	20796
900.95	20967
901.069	20807
901.189	20560
901.308	20423
901.427	20377
901.546	20381
901.665	20374
901.784	20442
901.904	20332
902.023	20126
902.141	19993
902.26	19898
902.379	20012
902.498	19936
902.617	19940
902.735	19879
902.854	19822
902.973	19685
903.091	19472
903.21	19662
903.328	19559
903.446	19403
903.565	19343
903.683	19316
903.801	19266
903.919	19388
904.038	19282
904.156	19179
904.274	19175
904.392	19126
904.51	19114
904.627	19012
904.745	19061
904.863	19148
904.981	18909
905.098	18859
905.216	18886
905.334	18745
905.451	18795
905.569	18757
905.686	18829
905.803	18738
905.921	18601
906.038	18589
906.155	18528
906.272	18479
906.389	18433
906.506	18361
906.623	18342
906.74	18224
906.857	18232
906.974	18213
907.091	18346
907.208	18441
907.324	18182
907.441	18182
907.557	18068
907.674	17954
907.79	17927
907.907	17946
908.023	18030
908.139	17954
908.256	17893
908.372	17885
908.488	17901
908.604	17745
908.72	17657
908.836	17672
908.952	17505
909.068	17699
909.184	17824
909.3	17619
909.415	17703
909.531	17619
909.647	17376
909.762	17406
909.878	17360
909.993	17421
910.108	17307
910.224	17459
910.339	17383
910.454	17227
910.57	17189
910.685	17132
910.8	17387
910.915	17398
911.03	17204
911.145	17060
911.259	16972
911.374	16930
911.489	16904
911.604	16908
911.718	16702
911.833	16698
911.947	16618
912.062	16603
912.176	16736
912.291	16805
912.405	16634
912.519	16866
912.633	16847
912.748	16824
912.862	16691
912.976	16481
913.09	16455
913.204	16421
913.318	16565
913.431	16630
913.545	16603
913.659	16554
913.772	16481
913.886	16306
914	16333
914.113	16455
914.226	16462
914.34	16322
914.453	16135
914.566	16382
914.68	16299
914.793	16147
914.906	15964
915.019	15922
915.132	15861
915.245	15937
915.358	15880
915.47	15861
915.583	15888
915.696	15918
915.809	15972
915.921	16128
916.034	15804
916.146	15812
916.259	15778
916.371	15865
916.483	15778
916.595	15724
916.708	15690
916.82	15701
916.932	15591
917.044	15701
917.156	15553
917.268	15466
917.38	15542
917.491	15428
917.603	15500
917.715	15652
917.826	15595
917.938	15469
918.049	15405
918.161	15447
918.272	15576
918.384	15504
918.495	15416
918.606	15298
918.717	15348
918.828	15359
918.939	15252
919.05	15127
919.161	15233
919.272	15032
919.383	15135
919.494	15218
919.604	15477
919.715	15218
919.826	15150
919.936	15203
920.047	15211
920.157	15222
920.267	15386
920.378	15157
920.488	15184
920.598	15386
920.708	15500
920.818	15317
920.928	15363
921.038	15538
921.148	15428
921.258	15123
921.368	15058
921.477	14918
921.587	14918
921.697	14925
921.806	14933
921.916	14910
922.025	14636
922.134	14526
922.244	14522
922.353	14686
922.462	14358
922.571	14408
922.68	14248
922.789	14275
922.898	14271
923.007	14168
923.116	14191
923.224	14119
923.333	14142
923.442	14096
923.55	13951
923.659	14073
923.767	14115
923.876	13871
923.984	13974
924.092	13875
924.201	13947
924.309	13890
924.417	13856
924.525	13883
924.633	13852
924.741	14598
924.849	13704
924.956	13814
925.064	13601
925.172	13506
925.279	13548
925.387	13685
925.494	13578
925.602	13708
925.709	13662
925.816	13506
925.924	13441
926.031	13639
926.138	13460
926.245	13472
926.352	13415
926.459	13476
926.566	13533
926.673	13403
926.779	13320
926.886	13244
926.993	13126
927.099	13069
927.206	13084
927.312	13110
927.419	13160
927.525	13164
927.631	13031
927.737	12958
927.843	12966
927.95	12791
928.056	12977
928.162	12962
928.267	13038
928.373	13540
928.479	13015
928.585	12779
928.69	12924
928.796	12905
928.901	12757
929.007	12563
929.112	12764
929.218	12829
929.323	12627
929.428	12612
929.533	12810
929.638	12582
929.743	12635
929.848	12631
929.953	12566
930.058	12456
930.163	12258
930.267	12338
930.372	12479
930.477	12159
930.581	12521
930.685	12467
930.79	12106
930.894	12239
930.998	12163
931.103	12311
931.207	11882
931.311	11859
931.415	11798
931.519	11509
931.623	11589
