Data from test_V78500241_1157.txt Node
Date: Fri Mar 25 15:49:48 CST 2022
User: usil
Spectrometer: V785-0024
Trigger mode: 0
Integration Time (sec): 4.000000E-1
Scans to average: 1
Nonlinearity correction enabled: false
Boxcar width: 0
Storing dark spectrum: false
XAxis mode: Wavelengths
Number of Pixels in Spectrum: 1024
>>>>>Begin Spectral Data<<<<<
801.071	28500
801.214	28386
801.356	28188
801.499	28109
801.641	27899
801.783	27945
801.926	28036
802.068	28021
802.211	27926
802.353	27804
802.496	27736
802.638	27690
802.78	27728
802.923	27656
803.065	27477
803.208	27515
803.35	27690
803.492	27846
803.635	27895
803.777	27778
803.919	27888
804.061	28181
804.204	27816
804.346	27869
804.488	27865
804.63	27854
804.773	27724
804.915	27808
805.057	28002
805.199	27873
805.341	27899
805.483	28078
805.626	28166
805.768	27941
805.91	28128
806.052	28044
806.194	27983
806.336	28291
806.478	28032
806.62	27987
806.762	28238
806.904	28459
807.046	28668
807.188	28569
807.33	28519
807.472	28542
807.614	28481
807.756	28398
807.898	28421
808.04	28230
808.182	28287
808.324	28424
808.465	28550
808.607	28615
808.749	28847
808.891	28801
809.033	28866
809.174	28812
809.316	28641
809.458	28847
809.6	28645
809.741	28828
809.883	28908
810.025	28984
810.166	29041
810.308	28965
810.45	29044
810.591	28850
810.733	28729
810.875	28786
811.016	28691
811.158	28603
811.299	28790
811.441	28923
811.582	28965
811.724	28831
811.865	28805
812.007	28824
812.148	28698
812.29	28862
812.431	28847
812.573	29033
812.714	29044
812.855	29254
812.997	29421
813.138	29433
813.279	29486
813.421	29242
813.562	29269
813.703	28987
813.845	29075
813.986	28645
814.127	28565
814.268	28519
814.41	28550
814.551	28500
814.692	28596
814.833	28436
814.974	28447
815.115	28500
815.256	28234
815.397	28459
815.539	28299
815.68	28329
815.821	28120
815.962	28147
816.103	28253
816.244	28147
816.385	27937
816.526	28112
816.666	27789
816.807	27743
816.948	27785
817.089	27838
817.23	27831
817.371	27736
817.512	27709
817.653	27709
817.793	27633
817.934	27789
818.075	27850
818.216	27876
818.356	27739
818.497	27561
818.638	27469
818.778	27603
818.919	27576
819.06	27561
819.2	27781
819.341	27774
819.481	27755
819.622	27892
819.762	28196
819.903	27964
820.043	27960
820.184	27930
820.324	27861
820.465	28032
820.605	27949
820.746	27934
820.886	27827
821.026	27873
821.167	27785
821.307	27968
821.447	27884
821.588	27698
821.728	27709
821.868	27473
822.008	27294
822.149	27317
822.289	27256
822.429	26998
822.569	27001
822.709	26940
822.849	26811
822.99	26925
823.13	26693
823.27	26674
823.41	26545
823.55	26446
823.69	26473
823.83	26598
823.97	26370
824.11	26309
824.25	26290
824.389	26366
824.529	26530
824.669	26336
824.809	26385
824.949	26587
825.089	26549
825.228	26465
825.368	26415
825.508	26415
825.648	26442
825.787	26233
825.927	26514
826.067	26339
826.206	26317
826.346	26366
826.485	26294
826.625	26381
826.765	26275
826.904	26332
827.044	25917
827.183	26046
827.323	26050
827.462	26134
827.601	26027
827.741	26111
827.88	26012
828.02	25997
828.159	25997
828.298	26107
828.437	26092
828.577	26153
828.716	26218
828.855	26016
828.994	25864
829.134	25662
829.273	25723
829.412	25742
829.551	25647
829.69	25776
829.829	25753
829.968	25742
830.107	25906
830.246	25727
830.385	25693
830.524	25655
830.663	25578
830.802	25415
830.941	25419
831.08	25194
831.219	25506
831.357	25381
831.496	25521
831.635	25324
831.774	25346
831.913	25232
832.051	25133
832.19	25072
832.329	25206
832.467	24989
832.606	24973
832.744	25012
832.883	25004
833.022	25008
833.16	25099
833.299	25118
833.437	25160
833.576	24981
833.714	24992
833.852	25110
833.991	25114
834.129	25126
834.267	25088
834.406	25095
834.544	25080
834.682	25080
834.821	25031
834.959	25148
835.097	25133
835.235	25099
835.373	24989
835.511	24977
835.65	24996
835.788	24913
835.926	24916
836.064	24844
836.202	24741
836.34	24932
836.478	24913
836.615	24951
836.753	24905
836.891	24928
837.029	24909
837.167	24787
837.305	24928
837.443	24677
837.58	24776
837.718	24768
837.856	24760
837.993	24757
838.131	24730
838.269	24601
838.406	24616
838.544	24661
838.681	24426
838.819	24296
838.956	24064
839.094	24159
839.231	24315
839.369	24346
839.506	24604
839.643	24616
839.781	24213
839.918	24091
840.055	24197
840.193	24060
840.33	24038
840.467	24079
840.604	24106
840.742	24273
840.879	23996
841.016	24083
841.153	24098
841.29	24171
841.427	24083
841.564	24076
841.701	24117
841.838	23916
841.975	23988
842.112	23965
842.249	23980
842.385	23916
842.522	24144
842.659	23992
842.796	23733
842.933	23832
843.069	23775
843.206	23737
843.343	23824
843.479	23817
843.616	23878
843.752	23600
843.889	23577
844.025	23779
844.162	23627
844.298	23649
844.435	23653
844.571	23611
844.708	23634
844.844	23855
844.98	23703
845.117	23824
845.253	23490
845.389	23395
845.525	23577
845.661	23360
845.798	23406
845.934	23379
846.07	23303
846.206	23395
846.342	23421
846.478	23402
846.614	23220
846.75	23064
846.886	23052
847.022	23151
847.158	23159
847.294	23189
847.429	23121
847.565	22999
847.701	23299
847.837	22778
847.972	22824
848.108	22816
848.244	22873
848.379	22816
848.515	22660
848.65	22679
848.786	22691
848.921	22752
849.057	22641
849.192	22809
849.328	22725
849.463	22550
849.598	22504
849.734	22481
849.869	22550
850.004	22500
850.14	22478
850.275	22462
850.41	22299
850.545	22344
850.68	22409
850.815	22493
850.95	22386
851.085	22546
851.22	22443
851.355	22382
851.49	22280
851.625	22390
851.76	22356
851.895	22405
852.03	22310
852.165	22375
852.299	22371
852.434	22516
852.569	22348
852.703	22447
852.838	22405
852.973	22523
853.107	22596
853.242	22512
853.376	22356
853.511	22116
853.645	22352
853.78	22299
853.914	22188
854.048	22188
854.183	22261
854.317	22413
854.451	22325
854.585	22356
854.72	22329
854.854	22341
854.988	22246
855.122	22204
855.256	22200
855.39	22147
855.524	22177
855.658	22367
855.792	22238
855.926	22318
856.06	22268
856.194	22337
856.327	22246
856.461	22268
856.595	22192
856.729	22299
856.862	22287
856.996	22325
857.13	22402
857.263	22402
857.397	22405
857.53	22246
857.664	22329
857.797	22242
857.931	22344
858.064	22371
858.197	22223
858.331	22253
858.464	22143
858.597	22185
858.731	22021
858.864	22158
858.997	22120
859.13	22215
859.263	22417
859.396	22325
859.529	22036
859.662	22253
859.795	22211
859.928	22223
860.061	22314
860.194	22356
860.327	22303
860.46	22249
860.592	22299
860.725	22329
860.858	22306
860.99	22295
861.123	22226
861.256	22150
861.388	22128
861.521	22885
861.653	22017
861.786	22036
861.918	22128
862.05	22154
862.183	22139
862.315	22154
862.447	22226
862.58	22257
862.712	22040
862.844	21766
862.976	21994
863.108	22013
863.24	22580
863.372	21876
863.504	21964
863.636	21876
863.768	21918
863.9	21907
864.032	21892
864.164	21987
864.296	21979
864.428	22036
864.559	21949
864.691	22048
864.823	21964
864.954	21949
865.086	21949
865.217	21846
865.349	21713
865.48	21816
865.612	21785
865.743	21968
865.875	21911
866.006	21762
866.137	21842
866.269	21781
866.4	21743
866.531	21667
866.662	21675
866.793	21785
866.924	21831
867.055	21812
867.186	21728
867.317	21709
867.448	21667
867.579	21747
867.71	21644
867.841	21675
867.972	21652
868.103	21762
868.233	21720
868.364	21743
868.495	21911
868.625	21979
868.756	22131
868.886	21903
869.017	22002
869.147	22109
869.278	22105
869.408	21972
869.539	21994
869.669	22055
869.799	22010
869.929	22093
870.06	22067
870.19	22352
870.32	22272
870.45	22249
870.58	22386
870.71	22432
870.84	22455
870.97	22386
871.1	22344
871.23	22546
871.36	22653
871.489	22421
871.619	22550
871.749	22554
871.879	22580
872.008	22752
872.138	22630
872.267	22641
872.397	22466
872.526	22424
872.656	22421
872.785	22424
872.915	22546
873.044	22645
873.173	22584
873.303	22508
873.432	22729
873.561	22645
873.69	22656
873.819	22687
873.948	22683
874.077	22580
874.206	22683
874.335	22660
874.464	22748
874.593	22820
874.722	22733
874.851	22839
874.979	22759
875.108	22892
875.237	22740
875.365	22630
875.494	22706
875.623	22847
875.751	22866
875.88	22748
876.008	22995
876.136	22968
876.265	23208
876.393	23356
876.521	23216
876.65	23261
876.778	23109
876.906	23261
877.034	23242
877.162	23193
877.29	23113
877.418	23185
877.546	23121
877.674	23132
877.802	23159
877.93	23197
878.058	23170
878.185	22957
878.313	23132
878.441	23086
878.568	23006
878.696	23048
878.824	23159
878.951	23200
879.079	23414
879.206	23570
879.333	23311
879.461	23239
879.588	23227
879.715	23368
879.842	23493
879.97	23258
880.097	23037
880.224	23067
880.351	22873
880.478	23025
880.605	22953
880.732	23022
880.859	23124
880.986	22991
881.112	23052
881.239	22801
881.366	22668
881.493	22588
881.619	22596
881.746	22531
881.872	22569
881.999	22569
882.125	22451
882.252	22596
882.378	22459
882.505	22630
882.631	22394
882.757	22341
882.883	22360
883.01	22276
883.136	22143
883.262	22131
883.388	22051
883.514	22234
883.64	22322
883.766	22185
883.892	21972
884.018	22070
884.143	22154
884.269	22242
884.395	21873
884.52	21827
884.646	21816
884.772	21766
884.897	21762
885.023	21926
885.148	21945
885.274	21960
885.399	21949
885.524	21850
885.65	21892
885.775	21998
885.9	21785
886.025	21956
886.15	21975
886.275	21823
886.4	21770
886.525	21781
886.65	21789
886.775	21720
886.9	21949
887.025	22040
887.149	21819
887.274	21644
887.399	21595
887.523	21526
887.648	21679
887.773	21488
887.897	21724
888.021	21663
888.146	21553
888.27	21648
888.395	21587
888.519	21534
888.643	21614
888.767	21496
888.891	21564
889.015	21405
889.139	21481
889.263	21348
889.387	21416
889.511	21629
889.635	21481
889.759	21359
889.883	21367
890.006	21382
890.13	21507
890.254	21287
890.377	21359
890.501	21233
890.624	21001
890.748	21192
890.871	21184
890.995	20967
891.118	21009
891.241	21051
891.364	20998
891.488	21051
891.611	20990
891.734	21066
891.857	20990
891.98	21024
892.103	20967
892.226	20937
892.349	20921
892.471	20720
892.594	20864
892.717	20899
892.839	20902
892.962	20910
893.085	20910
893.207	20906
893.33	20720
893.452	20701
893.575	20925
893.697	20765
893.819	21051
893.941	21039
894.064	20933
894.186	20716
894.308	20815
894.43	20918
894.552	21032
894.674	20876
894.796	20765
894.918	20845
895.04	20838
895.161	20880
895.283	20842
895.405	20826
895.526	20800
895.648	20830
895.769	20963
895.891	20857
896.012	20933
896.134	20811
896.255	20838
896.376	20883
896.498	20876
896.619	20921
896.74	20769
896.861	20842
896.982	21165
897.103	21230
897.224	21085
897.345	20986
897.466	20910
897.587	21127
897.708	21245
897.828	20979
897.949	20948
898.07	20819
898.19	20918
898.311	20986
898.431	20994
898.552	21055
898.672	21039
898.792	21081
898.913	21169
899.033	20876
899.153	20792
899.273	20659
899.393	20849
899.513	20800
899.633	20914
899.753	20716
899.873	20716
899.993	20788
900.113	20773
900.232	20743
900.352	20716
900.472	20625
900.591	20526
900.711	20526
900.83	20533
900.95	20651
901.069	20587
901.189	20442
901.308	20180
901.427	20027
901.546	20122
901.665	20103
901.784	20240
901.904	20012
902.023	19970
902.141	19693
902.26	19666
902.379	19753
902.498	19689
902.617	19552
902.735	19628
902.854	19540
902.973	19472
903.091	19396
903.21	19350
903.328	19301
903.446	19179
903.565	19008
903.683	19103
903.801	18920
903.919	19015
904.038	18989
904.156	18875
904.274	19004
904.392	18871
904.51	18894
904.627	18875
904.745	18878
904.863	18913
904.981	18658
905.098	18471
905.216	18547
905.334	18566
905.451	18540
905.569	18365
905.686	18604
905.803	18490
905.921	18296
906.038	18376
906.155	18243
906.272	18171
906.389	18121
906.506	18083
906.623	18038
906.74	18079
906.857	17935
906.974	17863
907.091	18064
907.208	18057
907.324	18076
907.441	17927
907.557	17832
907.674	17798
907.79	17653
907.907	17649
908.023	17741
908.139	17779
908.256	17657
908.372	17623
908.488	17767
908.604	17478
908.72	17459
908.836	17532
908.952	17474
909.068	17433
909.184	17566
909.3	17448
909.415	17611
909.531	17402
909.647	17170
909.762	17113
909.878	17212
909.993	17174
910.108	17121
910.224	17102
910.339	17193
910.454	17014
910.57	16946
910.685	16858
910.8	17185
910.915	17060
911.03	16934
911.145	16831
911.259	16706
911.374	16710
911.489	16656
911.604	16561
911.718	16523
911.833	16489
911.947	16379
912.062	16386
912.176	16512
912.291	16626
912.405	16485
912.519	16698
912.633	16763
912.748	16459
912.862	16466
912.976	16185
913.09	16230
913.204	16242
913.318	16215
913.431	16367
913.545	16489
913.659	16379
913.772	16109
913.886	16124
914	16139
914.113	16192
914.226	16173
914.34	16120
914.453	16002
914.566	16135
914.68	15953
914.793	15899
914.906	15743
915.019	15641
915.132	15713
915.245	15701
915.358	15770
915.47	15690
915.583	15690
915.696	15766
915.809	15720
915.921	15759
916.034	15599
916.146	15572
916.259	15542
916.371	15591
916.483	15511
916.595	15507
916.708	15485
916.82	15488
916.932	15523
917.044	15526
917.156	15424
917.268	15291
917.38	15348
917.491	15317
917.603	15325
917.715	15424
917.826	15363
917.938	15249
918.049	15157
918.161	15325
918.272	15374
918.384	15313
918.495	15272
918.606	15127
918.717	14998
918.828	15047
918.939	15165
919.05	14902
919.161	15085
919.272	14849
919.383	14883
919.494	15146
919.604	15233
919.715	15104
919.826	14948
919.936	14929
920.047	15161
920.157	14899
920.267	15249
920.378	15123
920.488	14975
920.598	15214
920.708	15268
920.818	15108
920.928	15104
921.038	15291
921.148	15138
921.258	15017
921.368	14800
921.477	14758
921.587	14659
921.697	14552
921.806	14644
921.916	14613
922.025	14442
922.134	14446
922.244	14328
922.353	14362
922.462	14237
922.571	14221
922.68	14043
922.789	13951
922.898	14020
923.007	13978
923.116	14077
923.224	14050
923.333	14043
923.442	13803
923.55	13769
923.659	13822
923.767	13830
923.876	13693
923.984	13868
924.092	13746
924.201	13723
924.309	13738
924.417	13784
924.525	13681
924.633	13696
924.741	14442
924.849	13415
924.956	13548
925.064	13324
925.172	13415
925.279	13388
925.387	13464
925.494	13343
925.602	13506
925.709	13419
925.816	13217
925.924	13434
926.031	13278
926.138	13304
926.245	13403
926.352	13259
926.459	13396
926.566	13381
926.673	13293
926.779	13255
926.886	13190
926.993	13088
927.099	12932
927.206	12897
927.312	12886
927.419	12924
927.525	12875
927.631	13000
927.737	12722
927.843	12730
927.95	12681
928.056	12795
928.162	12760
928.267	12798
928.373	13388
928.479	12859
928.585	12578
928.69	12662
928.796	12722
928.901	12642
929.007	12448
929.112	12597
929.218	12623
929.323	12536
929.428	12513
929.533	12517
929.638	12452
929.743	12441
929.848	12467
929.953	12414
930.058	12273
930.163	12114
930.267	12205
930.372	12327
930.477	12079
930.581	12437
930.685	12186
930.79	12022
930.894	12057
930.998	12045
931.103	12102
931.207	11859
931.311	11729
931.415	11646
931.519	11402
931.623	11402
