Data from test_V78500241_256.txt Node
Date: Fri Mar 25 15:43:34 CST 2022
User: usil
Spectrometer: V785-0024
Trigger mode: 0
Integration Time (sec): 4.000000E-1
Scans to average: 1
Nonlinearity correction enabled: false
Boxcar width: 0
Storing dark spectrum: false
XAxis mode: Wavelengths
Number of Pixels in Spectrum: 1024
>>>>>Begin Spectral Data<<<<<
801.071	29562
801.214	29429
801.356	29239
801.499	29189
801.641	29189
801.783	29162
801.926	29128
802.068	29044
802.211	28949
802.353	28946
802.496	28782
802.638	28828
802.78	28740
802.923	28603
803.065	28637
803.208	28733
803.35	28672
803.492	28828
803.635	28961
803.777	28843
803.919	28976
804.061	29170
804.204	28942
804.346	28843
804.488	28744
804.63	28839
804.773	28713
804.915	28869
805.057	28949
805.199	28820
805.341	28999
805.483	29105
805.626	28972
805.768	28843
805.91	28892
806.052	28896
806.194	28953
806.336	29151
806.478	28869
806.62	28919
806.762	29128
806.904	29231
807.046	29623
807.188	29315
807.33	29417
807.472	29577
807.614	29406
807.756	29193
807.898	29200
808.04	29246
808.182	29277
808.324	29216
808.465	29239
808.607	29288
808.749	29501
808.891	29642
809.033	29668
809.174	29604
809.316	29676
809.458	29611
809.6	29627
809.741	29665
809.883	29756
810.025	29878
810.166	29809
810.308	29878
810.45	29775
810.591	29840
810.733	29642
810.875	29566
811.016	29501
811.158	29531
811.299	29577
811.441	29748
811.582	29718
811.724	29505
811.865	29531
812.007	29649
812.148	29414
812.29	29577
812.431	29737
812.573	29821
812.714	30087
812.855	30114
812.997	30125
813.138	30194
813.279	30323
813.421	30178
813.562	29958
813.703	29927
813.845	29767
813.986	29543
814.127	29345
814.268	29284
814.41	29147
814.551	29284
814.692	29223
814.833	29231
814.974	29288
815.115	29216
815.256	29083
815.397	29006
815.539	29086
815.68	29071
815.821	28908
815.962	29151
816.103	28839
816.244	28843
816.385	28622
816.526	28691
816.666	28592
816.807	28424
816.948	28497
817.089	28512
817.23	28489
817.371	28371
817.512	28382
817.653	28303
817.793	28405
817.934	28516
818.075	28527
818.216	28565
818.356	28306
818.497	28303
818.638	28044
818.778	28257
818.919	28135
819.06	28150
819.2	28344
819.341	28436
819.481	28440
819.622	28497
819.762	28717
819.903	28618
820.043	28599
820.184	28508
820.324	28554
820.465	28577
820.605	28557
820.746	28360
820.886	28375
821.026	28424
821.167	28409
821.307	28409
821.447	28455
821.588	28196
821.728	28055
821.868	27857
822.008	27778
822.149	27778
822.289	27759
822.429	27660
822.569	27583
822.709	27397
822.849	27195
822.99	27260
823.13	27325
823.27	27241
823.41	27058
823.55	26971
823.69	26975
823.83	27214
823.97	26979
824.11	26940
824.25	26830
824.389	26857
824.529	27089
824.669	26902
824.809	27039
824.949	27020
825.089	26872
825.228	26815
825.368	26663
825.508	26712
825.648	26697
825.787	26815
825.927	26807
826.067	26674
826.206	26804
826.346	26811
826.485	26792
826.625	26678
826.765	26682
826.904	26731
827.044	26632
827.183	26419
827.323	26290
827.462	26442
827.601	26507
827.741	26511
827.88	26541
828.02	26324
828.159	26389
828.298	26328
828.437	26408
828.577	26298
828.716	26415
828.855	26290
828.994	26149
829.134	26073
829.273	26126
829.412	26065
829.551	26012
829.69	25997
829.829	25921
829.968	26122
830.107	26138
830.246	26046
830.385	26035
830.524	25917
830.663	25799
830.802	25738
830.941	25544
831.08	25540
831.219	25811
831.357	25635
831.496	25818
831.635	25605
831.774	25460
831.913	25537
832.051	25392
832.19	25396
832.329	25441
832.467	25285
832.606	25251
832.744	25263
832.883	25240
833.022	25274
833.16	25263
833.299	25301
833.437	25350
833.576	25324
833.714	25339
833.852	25327
833.991	25354
834.129	25407
834.267	25411
834.406	25320
834.544	25221
834.682	25282
834.821	25255
834.959	25320
835.097	25148
835.235	25320
835.373	25225
835.511	25171
835.65	24981
835.788	25274
835.926	25072
836.064	24943
836.202	24920
836.34	25099
836.478	25259
836.615	25080
836.753	25129
836.891	25107
837.029	25164
837.167	24989
837.305	24989
837.443	25088
837.58	24932
837.718	25053
837.856	24962
837.993	24837
838.131	24973
838.269	24783
838.406	24795
838.544	24753
838.681	24475
838.819	24547
838.956	24330
839.094	24277
839.231	24243
839.369	24483
839.506	24692
839.643	24604
839.781	24357
839.918	24174
840.055	24388
840.193	24281
840.33	24262
840.467	24285
840.604	24308
840.742	24433
840.879	24117
841.016	24155
841.153	24152
841.29	24243
841.427	24232
841.564	24194
841.701	24117
841.838	24114
841.975	24049
842.112	24102
842.249	24049
842.385	23969
842.522	24235
842.659	23950
842.796	23874
842.933	23942
843.069	23824
843.206	23859
843.343	23859
843.479	23809
843.616	23889
843.752	23585
843.889	23813
844.025	23859
844.162	23684
844.298	23764
844.435	23581
844.571	23680
844.708	23798
844.844	23733
844.98	23790
845.117	23691
845.253	23581
845.389	23501
845.525	23512
845.661	23471
845.798	23318
845.934	23376
846.07	23368
846.206	23436
846.342	23501
846.478	23303
846.614	23235
846.75	23083
846.886	23041
847.022	23159
847.158	23109
847.294	23109
847.429	23151
847.565	23124
847.701	23364
847.837	22733
847.972	22759
848.108	22767
848.244	22877
848.379	22736
848.515	22615
848.65	22634
848.786	22786
848.921	22717
849.057	22744
849.192	22618
849.328	22656
849.463	22611
849.598	22611
849.734	22607
849.869	22421
850.004	22382
850.14	22546
850.275	22459
850.41	22325
850.545	22272
850.68	22207
850.815	22375
850.95	22455
851.085	22603
851.22	22424
851.355	22333
851.49	22310
851.625	22329
851.76	22470
851.895	22169
852.03	22367
852.165	22440
852.299	22474
852.434	22561
852.569	22367
852.703	22405
852.838	22455
852.973	22398
853.107	22550
853.242	22211
853.376	22272
853.511	22059
853.645	22032
853.78	22181
853.914	22226
854.048	22238
854.183	22185
854.317	22204
854.451	22405
854.585	22215
854.72	22249
854.854	22280
854.988	22143
855.122	22265
855.256	22135
855.39	22200
855.524	22230
855.658	22253
855.792	22192
855.926	22017
856.06	22238
856.194	22341
856.327	22185
856.461	21972
856.595	22124
856.729	22162
856.862	22242
856.996	22211
857.13	22280
857.263	22299
857.397	22329
857.53	22246
857.664	22166
857.797	22333
857.931	22223
858.064	22287
858.197	22139
858.331	22074
858.464	22188
858.597	22067
858.731	22215
858.864	22093
858.997	22109
859.13	22105
859.263	22040
859.396	22177
859.529	22238
859.662	22059
859.795	22055
859.928	22070
860.061	22375
860.194	22234
860.327	22131
860.46	22177
860.592	22337
860.725	22177
860.858	22234
860.99	22238
861.123	21998
861.256	22051
861.388	22185
861.521	22866
861.653	21945
861.786	21857
861.918	22017
862.05	22154
862.183	22048
862.315	22173
862.447	22188
862.58	22044
862.712	21827
862.844	21899
862.976	21934
863.108	21922
863.24	22177
863.372	21766
863.504	21770
863.636	21671
863.768	21804
863.9	21732
864.032	21686
864.164	21694
864.296	21778
864.428	21922
864.559	21819
864.691	21899
864.823	21854
864.954	21709
865.086	21770
865.217	21694
865.349	21549
865.48	21819
865.612	21717
865.743	21713
865.875	21682
866.006	21682
866.137	21785
866.269	21766
866.4	21644
866.531	21580
866.662	21572
866.793	21622
866.924	21545
867.055	21545
867.186	21557
867.317	21534
867.448	21519
867.579	21564
867.71	21591
867.841	21469
867.972	21637
868.103	21599
868.233	21682
868.364	21511
868.495	21778
868.625	21835
868.756	21850
868.886	21793
869.017	21717
869.147	21964
869.278	21987
869.408	21987
869.539	21987
869.669	21972
869.799	21884
869.929	22032
870.06	21918
870.19	22074
870.32	22169
870.45	22219
870.58	22333
870.71	22356
870.84	22360
870.97	22329
871.1	22341
871.23	22424
871.36	22451
871.489	22306
871.619	22413
871.749	22428
871.879	22421
872.008	22451
872.138	22413
872.267	22413
872.397	22329
872.526	22344
872.656	22268
872.785	22280
872.915	22417
873.044	22596
873.173	22367
873.303	22360
873.432	22500
873.561	22599
873.69	22497
873.819	22417
873.948	22607
874.077	22428
874.206	22390
874.335	22489
874.464	22443
874.593	22615
874.722	22740
874.851	22733
874.979	22516
875.108	22702
875.237	22736
875.365	22683
875.494	22618
875.623	22713
875.751	22748
875.88	22615
876.008	22706
876.136	22828
876.265	23025
876.393	23128
876.521	23246
876.65	23181
876.778	23109
876.906	23044
877.034	23102
877.162	22961
877.29	22972
877.418	23037
877.546	23037
877.674	23102
877.802	23003
877.93	23029
878.058	23029
878.185	22889
878.313	23079
878.441	22942
878.568	22831
878.696	22972
878.824	23056
878.951	23022
879.079	23193
879.206	23280
879.333	23174
879.461	23075
879.588	23105
879.715	23170
879.842	23349
879.97	23147
880.097	22831
880.224	22881
880.351	22786
880.478	22847
880.605	22717
880.732	22736
880.859	23102
880.986	22942
881.112	22843
881.239	22691
881.366	22557
881.493	22451
881.619	22436
881.746	22405
881.872	22329
881.999	22459
882.125	22485
882.252	22481
882.378	22459
882.505	22607
882.631	22284
882.757	22154
882.883	22154
883.01	22097
883.136	22139
883.262	22021
883.388	22006
883.514	22112
883.64	22093
883.766	21972
883.892	21865
884.018	21892
884.143	21975
884.269	22154
884.395	21888
884.52	21713
884.646	21785
884.772	21625
884.897	21603
885.023	21690
885.148	21857
885.274	21793
885.399	21865
885.524	21603
885.65	21770
885.775	21812
885.9	21709
886.025	21865
886.15	21838
886.275	21679
886.4	21564
886.525	21610
886.65	21622
886.775	21625
886.9	21842
887.025	21880
887.149	21701
887.274	21576
887.399	21477
887.523	21397
887.648	21538
887.773	21458
887.897	21553
888.021	21576
888.146	21397
888.27	21637
888.395	21564
888.519	21526
888.643	21523
888.767	21530
888.891	21386
889.015	21302
889.139	21401
889.263	21192
889.387	21424
889.511	21469
889.635	21412
889.759	21233
889.883	21268
890.006	21237
890.13	21367
890.254	21123
890.377	21222
890.501	21017
890.624	20982
890.748	21009
890.871	20948
890.995	20967
891.118	20792
891.241	20807
891.364	20906
891.488	20914
891.611	20887
891.734	20815
891.857	20872
891.98	20769
892.103	20834
892.226	20708
892.349	20857
892.471	20693
892.594	20807
892.717	20750
892.839	20727
892.962	20762
893.085	20895
893.207	20697
893.33	20648
893.452	20583
893.575	20845
893.697	20621
893.819	20944
893.941	20998
894.064	20849
894.186	20606
894.308	20686
894.43	20815
894.552	21009
894.674	20849
894.796	20644
894.918	20731
895.04	20788
895.161	20887
895.283	20815
895.405	20727
895.526	20670
895.648	20724
895.769	20731
895.891	20773
896.012	20864
896.134	20800
896.255	20830
896.376	20712
896.498	20693
896.619	20853
896.74	20777
896.861	20891
896.982	21195
897.103	21252
897.224	21131
897.345	20982
897.466	20925
897.587	20937
897.708	21036
897.828	21081
897.949	20861
898.07	20811
898.19	20895
898.311	21020
898.431	20906
898.552	20910
898.672	21062
898.792	21036
898.913	20735
899.033	20849
899.153	20762
899.273	20644
899.393	20648
899.513	20670
899.633	20609
899.753	20655
899.873	20629
899.993	20682
900.113	20590
900.232	20609
900.352	20488
900.472	20396
900.591	20415
900.711	20454
900.83	20385
900.95	20549
901.069	20667
901.189	20404
901.308	20046
901.427	19967
901.546	20062
901.665	20119
901.784	19997
901.904	19921
902.023	19746
902.141	19609
902.26	19491
902.379	19609
902.498	19373
902.617	19362
902.735	19457
902.854	19491
902.973	19426
903.091	19251
903.21	19099
903.328	19137
903.446	19046
903.565	18962
903.683	18943
903.801	18814
903.919	18859
904.038	18810
904.156	18806
904.274	18768
904.392	18642
904.51	18661
904.627	18726
904.745	18738
904.863	18814
904.981	18490
905.098	18391
905.216	18429
905.334	18372
905.451	18471
905.569	18429
905.686	18353
905.803	18418
905.921	18110
906.038	18342
906.155	18091
906.272	18106
906.389	18034
906.506	17809
906.623	17847
906.74	17969
906.857	17817
906.974	17786
907.091	17984
907.208	17977
907.324	17893
907.441	17745
907.557	17642
907.674	17596
907.79	17581
907.907	17608
908.023	17493
908.139	17665
908.256	17512
908.372	17493
908.488	17455
908.604	17307
908.72	17170
908.836	17345
908.952	17303
909.068	17353
909.184	17376
909.3	17315
909.415	17322
909.531	17239
909.647	17094
909.762	16953
909.878	16828
909.993	16862
910.108	16946
910.224	16953
910.339	16961
910.454	16698
910.57	16725
910.685	16748
910.8	16987
910.915	16911
911.03	16634
911.145	16558
911.259	16535
911.374	16592
911.489	16474
911.604	16371
911.718	16226
911.833	16367
911.947	16101
912.062	16097
912.176	16379
912.291	16287
912.405	16280
912.519	16451
912.633	16417
912.748	16329
912.862	16280
912.976	16158
913.09	16025
913.204	15903
913.318	16063
913.431	16284
913.545	16173
913.659	16162
913.772	15983
913.886	15930
914	15876
914.113	15983
914.226	15915
914.34	15835
914.453	15785
914.566	15949
914.68	15823
914.793	15857
914.906	15450
915.019	15492
915.132	15355
915.245	15450
915.358	15431
915.47	15530
915.583	15424
915.696	15469
915.809	15580
915.921	15686
916.034	15382
916.146	15424
916.259	15340
916.371	15412
916.483	15389
916.595	15306
916.708	15340
916.82	15294
916.932	15291
917.044	15211
917.156	15264
917.268	15070
917.38	15127
917.491	15043
917.603	15108
917.715	15097
917.826	15256
917.938	15020
918.049	14933
918.161	15009
918.272	15226
918.384	15150
918.495	14944
918.606	14937
918.717	14750
918.828	14842
918.939	14952
919.05	14708
919.161	14697
919.272	14625
919.383	14617
919.494	14781
919.604	14933
919.715	14823
919.826	14788
919.936	14712
920.047	14849
920.157	14693
920.267	14994
920.378	14868
920.488	14769
920.598	14861
920.708	15081
920.818	14952
920.928	14910
921.038	15055
921.148	15009
921.258	14670
921.368	14560
921.477	14533
921.587	14530
921.697	14450
921.806	14454
921.916	14336
922.025	14210
922.134	14218
922.244	14126
922.353	14168
922.462	13989
922.571	14054
922.68	13803
922.789	13788
922.898	13784
923.007	13700
923.116	13852
923.224	13689
923.333	13799
923.442	13578
923.55	13563
923.659	13639
923.767	13639
923.876	13491
923.984	13594
924.092	13533
924.201	13499
924.309	13491
924.417	13476
924.525	13308
924.633	13350
924.741	14157
924.849	13145
924.956	13415
925.064	13187
925.172	13084
925.279	13168
925.387	13171
925.494	13240
925.602	13232
925.709	13209
925.816	13076
925.924	13065
926.031	13168
926.138	13069
926.245	13198
926.352	12981
926.459	13187
926.566	13217
926.673	12951
926.779	12932
926.886	12875
926.993	12764
927.099	12757
927.206	12814
927.312	12658
927.419	12662
927.525	12662
927.631	12677
927.737	12620
927.843	12502
927.95	12475
928.056	12460
928.162	12540
928.267	12544
928.373	13202
928.479	12578
928.585	12399
928.69	12357
928.796	12578
928.901	12388
929.007	12300
929.112	12399
929.218	12266
929.323	12311
929.428	12232
929.533	12376
929.638	12178
929.743	12220
929.848	12277
929.953	12136
930.058	12106
930.163	11920
930.267	11950
930.372	12034
930.477	11863
930.581	12140
930.685	11878
930.79	11752
930.894	11840
930.998	11756
931.103	11851
931.207	11520
931.311	11509
931.415	11315
931.519	11254
931.623	11098
