Data from test_V78500241_124.txt Node
Date: Fri Mar 25 15:42:39 CST 2022
User: usil
Spectrometer: V785-0024
Trigger mode: 0
Integration Time (sec): 4.000000E-1
Scans to average: 1
Nonlinearity correction enabled: false
Boxcar width: 0
Storing dark spectrum: false
XAxis mode: Wavelengths
Number of Pixels in Spectrum: 1024
>>>>>Begin Spectral Data<<<<<
801.071	29885
801.214	29866
801.356	29551
801.499	29535
801.641	29299
801.783	29463
801.926	29604
802.068	29383
802.211	29322
802.353	29318
802.496	29064
802.638	29083
802.78	28946
802.923	29185
803.065	28957
803.208	28930
803.35	28930
803.492	29254
803.635	29277
803.777	29052
803.919	29208
804.061	29406
804.204	29204
804.346	29071
804.488	29124
804.63	29136
804.773	28930
804.915	29132
805.057	29197
805.199	29064
805.341	29307
805.483	29235
805.626	29398
805.768	29155
805.91	29269
806.052	29296
806.194	29216
806.336	29387
806.478	29277
806.62	29235
806.762	29471
806.904	29330
807.046	29726
807.188	29600
807.33	29467
807.472	29695
807.614	29646
807.756	29608
807.898	29573
808.04	29497
808.182	29448
808.324	29531
808.465	29482
808.607	29790
808.749	29767
808.891	29954
809.033	30041
809.174	29897
809.316	29813
809.458	29885
809.6	29813
809.741	29855
809.883	29942
810.025	29885
810.166	30007
810.308	30091
810.45	30057
810.591	29824
810.733	29821
810.875	29691
811.016	29722
811.158	29653
811.299	29946
811.441	29832
811.582	29882
811.724	29687
811.865	29687
812.007	29923
812.148	29741
812.29	29672
812.431	29992
812.573	29973
812.714	30057
812.855	30232
812.997	30342
813.138	30513
813.279	30155
813.421	30296
813.562	30076
813.703	29992
813.845	29889
813.986	29665
814.127	29535
814.268	29455
814.41	29387
814.551	29223
814.692	29501
814.833	29280
814.974	29200
815.115	29406
815.256	29124
815.397	29086
815.539	29132
815.68	29105
815.821	28946
815.962	29086
816.103	29155
816.244	29018
816.385	28797
816.526	28843
816.666	28584
816.807	28584
816.948	28356
817.089	28611
817.23	28672
817.371	28481
817.512	28363
817.653	28485
817.793	28265
817.934	28531
818.075	28299
818.216	28447
818.356	28432
818.497	28348
818.638	28082
818.778	28299
818.919	28139
819.06	28242
819.2	28158
819.341	28325
819.481	28341
819.622	28443
819.762	28664
819.903	28573
820.043	28626
820.184	28459
820.324	28485
820.465	28710
820.605	28550
820.746	28447
820.886	28257
821.026	28470
821.167	28337
821.307	28485
821.447	28398
821.588	28234
821.728	27907
821.868	27983
822.008	27899
822.149	27892
822.289	27831
822.429	27660
822.569	27454
822.709	27412
822.849	27176
822.99	27176
823.13	27123
823.27	27154
823.41	27036
823.55	26899
823.69	27051
823.83	27051
823.97	26925
824.11	26876
824.25	26796
824.389	26857
824.529	26765
824.669	26838
824.809	26960
824.949	26811
825.089	26785
825.228	26807
825.368	26708
825.508	26697
825.648	26834
825.787	26594
825.927	26800
826.067	26541
826.206	26598
826.346	26609
826.485	26788
826.625	26507
826.765	26712
826.904	26670
827.044	26473
827.183	26290
827.323	26183
827.462	26240
827.601	26305
827.741	26343
827.88	26267
828.02	26214
828.159	26240
828.298	26309
828.437	26347
828.577	26263
828.716	26396
828.855	26180
828.994	26031
829.134	25849
829.273	25856
829.412	25769
829.551	25902
829.69	25921
829.829	25928
829.968	26027
830.107	25906
830.246	26088
830.385	25811
830.524	25826
830.663	25719
830.802	25700
830.941	25468
831.08	25544
831.219	25472
831.357	25578
831.496	25601
831.635	25495
831.774	25369
831.913	25350
832.051	25194
832.19	25217
832.329	25266
832.467	25103
832.606	25133
832.744	25103
832.883	25050
833.022	25141
833.16	25110
833.299	25042
833.437	25095
833.576	25152
833.714	25198
833.852	25053
833.991	25160
834.129	25213
834.267	25118
834.406	25095
834.544	25175
834.682	25156
834.821	25034
834.959	25164
835.097	24989
835.235	25190
835.373	25114
835.511	25031
835.65	24897
835.788	24970
835.926	24802
836.064	24795
836.202	24703
836.34	24920
836.478	24943
836.615	24954
836.753	24848
836.891	24954
837.029	24992
837.167	24814
837.305	24787
837.443	24757
837.58	24658
837.718	24749
837.856	24798
837.993	24715
838.131	24795
838.269	24631
838.406	24707
838.544	24540
838.681	24304
838.819	24388
838.956	24209
839.094	24182
839.231	24110
839.369	24273
839.506	24433
839.643	24410
839.781	24102
839.918	24064
840.055	24011
840.193	24110
840.33	24114
840.467	23973
840.604	24076
840.742	24167
840.879	23965
841.016	24011
841.153	23946
841.29	24018
841.427	23996
841.564	23988
841.701	23942
841.838	24045
841.975	23942
842.112	23885
842.249	23840
842.385	23623
842.522	23969
842.659	23790
842.796	23737
842.933	23764
843.069	23699
843.206	23592
843.343	23611
843.479	23649
843.616	23604
843.752	23577
843.889	23433
844.025	23600
844.162	23311
844.298	23356
844.435	23402
844.571	23261
844.708	23455
844.844	23573
844.98	23444
845.117	23512
845.253	23299
845.389	23345
845.525	23368
845.661	23204
845.798	23162
845.934	23250
846.07	23136
846.206	23124
846.342	23303
846.478	23090
846.614	22896
846.75	22744
846.886	22752
847.022	22904
847.158	22820
847.294	22759
847.429	22862
847.565	22858
847.701	23048
847.837	22531
847.972	22710
848.108	22603
848.244	22554
848.379	22538
848.515	22417
848.65	22348
848.786	22371
848.921	22371
849.057	22390
849.192	22588
849.328	22417
849.463	22360
849.598	22363
849.734	22253
849.869	22215
850.004	22139
850.14	22253
850.275	22287
850.41	22010
850.545	22013
850.68	22032
850.815	22238
850.95	22010
851.085	22223
851.22	22185
851.355	22093
851.49	22093
851.625	22051
851.76	21949
851.895	22051
852.03	22006
852.165	22109
852.299	22188
852.434	22169
852.569	22128
852.703	21998
852.838	22086
852.973	22093
853.107	22177
853.242	21949
853.376	21888
853.511	21793
853.645	21892
853.78	21998
853.914	21930
854.048	21953
854.183	21819
854.317	21975
854.451	22036
854.585	21941
854.72	21842
854.854	22025
854.988	21778
855.122	21861
855.256	21762
855.39	21892
855.524	21918
855.658	21949
855.792	21888
855.926	21895
856.06	21895
856.194	22006
856.327	21888
856.461	21823
856.595	21838
856.729	21793
856.862	21937
856.996	21884
857.13	21895
857.263	22086
857.397	21857
857.53	21823
857.664	21880
857.797	21884
857.931	21876
858.064	21823
858.197	21888
858.331	21835
858.464	21827
858.597	21679
858.731	21789
858.864	21720
858.997	21808
859.13	21873
859.263	21770
859.396	21911
859.529	21736
859.662	21728
859.795	21789
859.928	21755
860.061	21937
860.194	22025
860.327	21831
860.46	21876
860.592	21865
860.725	21911
860.858	21873
860.99	21816
861.123	21720
861.256	21728
861.388	21743
861.521	22436
861.653	21679
861.786	21648
861.918	21603
862.05	21633
862.183	21857
862.315	21842
862.447	21918
862.58	21770
862.712	21545
862.844	21603
862.976	21587
863.108	21519
863.24	21831
863.372	21359
863.504	21500
863.636	21439
863.768	21572
863.9	21466
864.032	21256
864.164	21386
864.296	21481
864.428	21576
864.559	21553
864.691	21534
864.823	21477
864.954	21469
865.086	21424
865.217	21317
865.349	21264
865.48	21428
865.612	21393
865.743	21416
865.875	21355
866.006	21408
866.137	21435
866.269	21393
866.4	21469
866.531	21329
866.662	21306
866.793	21283
866.924	21256
867.055	21344
867.186	21310
867.317	21188
867.448	21150
867.579	21207
867.71	21135
867.841	21211
867.972	21256
868.103	21268
868.233	21154
868.364	21252
868.495	21169
868.625	21416
868.756	21564
868.886	21523
869.017	21488
869.147	21538
869.278	21557
869.408	21519
869.539	21504
869.669	21500
869.799	21580
869.929	21538
870.06	21580
870.19	21793
870.32	21838
870.45	21816
870.58	21918
870.71	21888
870.84	21937
870.97	21911
871.1	21869
871.23	22116
871.36	22029
871.489	21934
871.619	21915
871.749	22188
871.879	22162
872.008	22200
872.138	22185
872.267	22143
872.397	21960
872.526	21953
872.656	21888
872.785	21937
872.915	22105
873.044	22276
873.173	22032
873.303	22246
873.432	22147
873.561	22181
873.69	22143
873.819	22032
873.948	22097
874.077	22131
874.206	22010
874.335	22143
874.464	22181
874.593	22402
874.722	22280
874.851	22352
874.979	22363
875.108	22322
875.237	22466
875.365	22223
875.494	22318
875.623	22356
875.751	22310
875.88	22363
876.008	22535
876.136	22588
876.265	22850
876.393	22839
876.521	22885
876.65	22831
876.778	22778
876.906	22675
877.034	22664
877.162	22672
877.29	22641
877.418	22691
877.546	22729
877.674	22752
877.802	22630
877.93	22702
878.058	22664
878.185	22440
878.313	22668
878.441	22622
878.568	22630
878.696	22668
878.824	22854
878.951	22816
879.079	22885
879.206	22869
879.333	22812
879.461	22679
879.588	22694
879.715	22854
879.842	22927
879.97	22725
880.097	22493
880.224	22436
880.351	22630
880.478	22485
880.605	22470
880.732	22546
880.859	22744
880.986	22470
881.112	22489
881.239	22344
881.366	22230
881.493	22265
881.619	22150
881.746	22177
881.872	22082
881.999	22112
882.125	21975
882.252	22116
882.378	22002
882.505	22139
882.631	22006
882.757	21850
882.883	21846
883.01	21812
883.136	21827
883.262	21705
883.388	21618
883.514	21869
883.64	21865
883.766	21728
883.892	21660
884.018	21610
884.143	21789
884.269	21770
884.395	21507
884.52	21496
884.646	21405
884.772	21496
884.897	21454
885.023	21534
885.148	21526
885.274	21564
885.399	21603
885.524	21363
885.65	21564
885.775	21310
885.9	21378
886.025	21485
886.15	21424
886.275	21351
886.4	21306
886.525	21351
886.65	21275
886.775	21287
886.9	21473
887.025	21583
887.149	21397
887.274	21226
887.399	21192
887.523	21184
887.648	21222
887.773	20967
887.897	21161
888.021	21218
888.146	21138
888.27	21230
888.395	21313
888.519	21055
888.643	21127
888.767	21157
888.891	21062
889.015	20986
889.139	20925
889.263	20929
889.387	20994
889.511	21005
889.635	21013
889.759	20967
889.883	20944
890.006	20941
890.13	21043
890.254	20785
890.377	20963
890.501	20632
890.624	20644
890.748	20811
890.871	20602
890.995	20427
891.118	20347
891.241	20461
891.364	20522
891.488	20609
891.611	20469
891.734	20537
891.857	20526
891.98	20454
892.103	20526
892.226	20526
892.349	20450
892.471	20229
892.594	20404
892.717	20457
892.839	20343
892.962	20438
893.085	20476
893.207	20484
893.33	20377
893.452	20301
893.575	20343
893.697	20404
893.819	20674
893.941	20598
894.064	20457
894.186	20351
894.308	20301
894.43	20385
894.552	20568
894.674	20499
894.796	20305
894.918	20339
895.04	20301
895.161	20339
895.283	20434
895.405	20271
895.526	20362
895.648	20419
895.769	20275
895.891	20347
896.012	20461
896.134	20522
896.255	20446
896.376	20442
896.498	20419
896.619	20579
896.74	20427
896.861	20606
896.982	20891
897.103	20956
897.224	20826
897.345	20674
897.466	20568
897.587	20727
897.708	20785
897.828	20632
897.949	20507
898.07	20473
898.19	20560
898.311	20712
898.431	20511
898.552	20701
898.672	20682
898.792	20727
898.913	20587
899.033	20415
899.153	20347
899.273	20225
899.393	20301
899.513	20298
899.633	20374
899.753	20244
899.873	20221
899.993	20328
900.113	20290
900.232	20271
900.352	20164
900.472	20149
900.591	20084
900.711	20012
900.83	20008
900.95	20073
901.069	20221
901.189	19974
901.308	19811
901.427	19681
901.546	19757
901.665	19578
901.784	19742
901.904	19491
902.023	19468
902.141	19289
902.26	19148
902.379	19251
902.498	19118
902.617	19110
902.735	19171
902.854	19148
902.973	19065
903.091	18871
903.21	18715
903.328	18825
903.446	18867
903.565	18764
903.683	18627
903.801	18551
903.919	18563
904.038	18593
904.156	18365
904.274	18483
904.392	18418
904.51	18338
904.627	18395
904.745	18346
904.863	18445
904.981	18129
905.098	18038
905.216	18019
905.334	18106
905.451	18064
905.569	17984
905.686	17942
905.803	18026
905.921	17813
906.038	17920
906.155	17855
906.272	17741
906.389	17729
906.506	17638
906.623	17554
906.74	17490
906.857	17425
906.974	17440
907.091	17509
907.208	17615
907.324	17615
907.441	17410
907.557	17288
907.674	17193
907.79	17128
907.907	17147
908.023	17288
908.139	17220
908.256	17185
908.372	17162
908.488	17136
908.604	16927
908.72	16877
908.836	16995
908.952	16839
909.068	16793
909.184	16968
909.3	16896
909.415	16934
909.531	16858
909.647	16713
909.762	16641
909.878	16535
909.993	16599
910.108	16546
910.224	16542
910.339	16656
910.454	16474
910.57	16352
910.685	16253
910.8	16573
910.915	16542
911.03	16443
911.145	16192
911.259	16192
911.374	16135
911.489	16017
911.604	16021
911.718	15816
911.833	15945
911.947	15838
912.062	15755
912.176	16025
912.291	15949
912.405	15937
912.519	16093
912.633	16051
912.748	15888
912.862	15922
912.976	15781
913.09	15580
913.204	15618
913.318	15789
913.431	15793
913.545	15728
913.659	15766
913.772	15656
913.886	15584
914	15561
914.113	15591
914.226	15644
914.34	15553
914.453	15344
914.566	15469
914.68	15458
914.793	15469
914.906	15131
915.019	15024
915.132	15104
915.245	15112
915.358	15123
915.47	15104
915.583	15169
915.696	15066
915.809	15207
915.921	15287
916.034	15005
916.146	15062
916.259	15093
916.371	15093
916.483	15028
916.595	14979
916.708	14956
916.82	14979
916.932	14960
917.044	14921
917.156	14845
917.268	14712
917.38	14838
917.491	14773
917.603	14777
917.715	14906
917.826	14872
917.938	14754
918.049	14613
918.161	14796
918.272	14804
918.384	14743
918.495	14670
918.606	14473
918.717	14495
918.828	14583
918.939	14461
919.05	14366
919.161	14461
919.272	14309
919.383	14358
919.494	14511
919.604	14682
919.715	14404
919.826	14328
919.936	14351
920.047	14499
920.157	14522
920.267	14594
920.378	14457
920.488	14339
920.598	14621
920.708	14701
920.818	14606
920.928	14564
921.038	14648
921.148	14697
921.258	14374
921.368	14290
921.477	14233
921.587	14149
921.697	14096
921.806	14157
921.916	14065
922.025	13871
922.134	13761
922.244	13837
922.353	13845
922.462	13681
922.571	13632
922.68	13468
922.789	13381
922.898	13460
923.007	13331
923.116	13453
923.224	13362
923.333	13407
923.442	13259
923.55	13255
923.659	13274
923.767	13354
923.876	13187
923.984	13354
924.092	13133
924.201	13232
924.309	13149
924.417	13175
924.525	13084
924.633	13160
924.741	13875
924.849	12890
924.956	13038
925.064	12863
925.172	12783
925.279	12886
925.387	12791
925.494	12882
925.602	12951
925.709	12932
925.816	12798
925.924	12795
926.031	12810
926.138	12738
926.245	12802
926.352	12677
926.459	12863
926.566	12916
926.673	12669
926.779	12589
926.886	12566
926.993	12422
927.099	12414
927.206	12384
927.312	12380
927.419	12460
927.525	12399
927.631	12513
927.737	12350
927.843	12270
927.95	12209
928.056	12209
928.162	12209
928.267	12228
928.373	12840
928.479	12350
928.585	12053
928.69	12159
928.796	12220
928.901	12125
929.007	11961
929.112	12091
929.218	12019
929.323	12019
929.428	11980
929.533	12171
929.638	11863
929.743	11889
929.848	11969
929.953	11950
930.058	11809
930.163	11661
930.267	11581
930.372	11676
930.477	11646
930.581	11771
930.685	11672
930.79	11490
930.894	11543
930.998	11486
931.103	11630
931.207	11235
931.311	11231
931.415	11105
931.519	10934
931.623	10820
