Data from test_V78500241_1322.txt Node
Date: Fri Mar 25 15:50:57 CST 2022
User: usil
Spectrometer: V785-0024
Trigger mode: 0
Integration Time (sec): 4.000000E-1
Scans to average: 1
Nonlinearity correction enabled: false
Boxcar width: 0
Storing dark spectrum: false
XAxis mode: Wavelengths
Number of Pixels in Spectrum: 1024
>>>>>Begin Spectral Data<<<<<
801.071	28322
801.214	28367
801.356	28131
801.499	28147
801.641	27926
801.783	27949
801.926	28032
802.068	27918
802.211	27869
802.353	27907
802.496	27869
802.638	27743
802.78	27606
802.923	27568
803.065	27580
803.208	27587
803.35	27739
803.492	27831
803.635	27861
803.777	27629
803.919	27854
804.061	28059
804.204	27941
804.346	27835
804.488	27736
804.63	27785
804.773	27774
804.915	27808
805.057	27953
805.199	27907
805.341	27827
805.483	28120
805.626	28040
805.768	27842
805.91	27937
806.052	28112
806.194	27968
806.336	28097
806.478	28067
806.62	27907
806.762	28120
806.904	28352
807.046	28641
807.188	28401
807.33	28618
807.472	28447
807.614	28489
807.756	28348
807.898	28348
808.04	28344
808.182	28341
808.324	28314
808.465	28386
808.607	28451
808.749	28748
808.891	28774
809.033	28744
809.174	28896
809.316	28592
809.458	28660
809.6	28744
809.741	28835
809.883	28908
810.025	28984
810.166	29006
810.308	29086
810.45	28923
810.591	28767
810.733	28706
810.875	28626
811.016	28527
811.158	28611
811.299	28748
811.441	28904
811.582	28877
811.724	28733
811.865	28675
812.007	28516
812.148	28675
812.29	28831
812.431	28847
812.573	28911
812.714	29178
812.855	29067
812.997	29220
813.138	29505
813.279	29151
813.421	29193
813.562	29254
813.703	28858
813.845	28854
813.986	28634
814.127	28519
814.268	28413
814.41	28341
814.551	28478
814.692	28466
814.833	28303
814.974	28443
815.115	28291
815.256	28272
815.397	28303
815.539	28135
815.68	28185
815.821	28177
815.962	28219
816.103	28181
816.244	28078
816.385	27922
816.526	28063
816.666	27842
816.807	27534
816.948	27701
817.089	27861
817.23	27736
817.371	27679
817.512	27698
817.653	27637
817.793	27728
817.934	27713
818.075	27724
818.216	27808
818.356	27625
818.497	27485
818.638	27515
818.778	27405
818.919	27580
819.06	27424
819.2	27690
819.341	27751
819.481	27759
819.622	27880
819.762	28029
819.903	27914
820.043	27842
820.184	27823
820.324	27892
820.465	27953
820.605	27671
820.746	27785
820.886	27618
821.026	27705
821.167	27755
821.307	27854
821.447	27846
821.588	27701
821.728	27538
821.868	27317
822.008	27176
822.149	27119
822.289	27150
822.429	26826
822.569	26731
822.709	26781
822.849	26819
822.99	26705
823.13	26716
823.27	26598
823.41	26495
823.55	26347
823.69	26480
823.83	26606
823.97	26587
824.11	26465
824.25	26423
824.389	26423
824.529	26415
824.669	26313
824.809	26339
824.949	26473
825.089	26400
825.228	26400
825.368	26362
825.508	26149
825.648	26313
825.787	26248
825.927	26256
826.067	26122
826.206	26225
826.346	26313
826.485	26317
826.625	26229
826.765	26267
826.904	26275
827.044	25989
827.183	25894
827.323	25902
827.462	25963
827.601	25940
827.741	25928
827.88	25951
828.02	25849
828.159	25898
828.298	25936
828.437	26020
828.577	25902
828.716	26054
828.855	25780
828.994	25765
829.134	25658
829.273	25780
829.412	25628
829.551	25624
829.69	25575
829.829	25693
829.968	25655
830.107	25715
830.246	25742
830.385	25533
830.524	25464
830.663	25422
830.802	25358
830.941	25240
831.08	25175
831.219	25407
831.357	25255
831.496	25544
831.635	25179
831.774	25183
831.913	25148
832.051	25164
832.19	25038
832.329	24924
832.467	24848
832.606	24901
832.744	24916
832.883	24814
833.022	24814
833.16	24901
833.299	24992
833.437	24985
833.576	25027
833.714	24973
833.852	25019
833.991	25084
834.129	25141
834.267	25057
834.406	25019
834.544	24973
834.682	24947
834.821	24947
834.959	25164
835.097	24913
835.235	25080
835.373	24970
835.511	25053
835.65	24859
835.788	24642
835.926	24631
836.064	24593
836.202	24505
836.34	24856
836.478	24825
836.615	24787
836.753	24795
836.891	24947
837.029	24730
837.167	24852
837.305	24665
837.443	24642
837.58	24502
837.718	24753
837.856	24635
837.993	24544
838.131	24661
838.269	24566
838.406	24563
838.544	24372
838.681	24292
838.819	24270
838.956	24098
839.094	24049
839.231	24034
839.369	24361
839.506	24414
839.643	24334
839.781	24167
839.918	24007
840.055	24152
840.193	24011
840.33	23992
840.467	24060
840.604	24098
840.742	24315
840.879	23904
841.016	23889
841.153	23984
841.29	24155
841.427	24068
841.564	23893
841.701	23847
841.838	23965
841.975	23958
842.112	23996
842.249	23859
842.385	23794
842.522	23946
842.659	23843
842.796	23790
842.933	23794
843.069	23714
843.206	23809
843.343	23752
843.479	23653
843.616	23775
843.752	23554
843.889	23608
844.025	23646
844.162	23391
844.298	23551
844.435	23528
844.571	23581
844.708	23611
844.844	23756
844.98	23642
845.117	23653
845.253	23520
845.389	23360
845.525	23467
845.661	23482
845.798	23216
845.934	23311
846.07	23223
846.206	23246
846.342	23353
846.478	23277
846.614	23220
846.75	22976
846.886	22999
847.022	23037
847.158	23056
847.294	22987
847.429	22961
847.565	22957
847.701	23231
847.837	22649
847.972	22607
848.108	22843
848.244	22824
848.379	22626
848.515	22565
848.65	22447
848.786	22679
848.921	22694
849.057	22694
849.192	22630
849.328	22645
849.463	22531
849.598	22485
849.734	22398
849.869	22371
850.004	22375
850.14	22386
850.275	22398
850.41	22310
850.545	22196
850.68	22394
850.815	22314
850.95	22333
851.085	22546
851.22	22405
851.355	22398
851.49	22379
851.625	22402
851.76	22390
851.895	22249
852.03	22192
852.165	22356
852.299	22295
852.434	22432
852.569	22428
852.703	22409
852.838	22367
852.973	22329
853.107	22424
853.242	22371
853.376	22219
853.511	22082
853.645	22154
853.78	22211
853.914	22147
854.048	22006
854.183	22090
854.317	22230
854.451	22310
854.585	22109
854.72	22059
854.854	22272
854.988	22048
855.122	22200
855.256	21956
855.39	22135
855.524	22219
855.658	22306
855.792	22211
855.926	22112
856.06	22242
856.194	22257
856.327	22124
856.461	22166
856.595	21987
856.729	22188
856.862	22143
856.996	22131
857.13	22143
857.263	22284
857.397	22188
857.53	22169
857.664	22135
857.797	22287
857.931	22325
858.064	22177
858.197	22280
858.331	22169
858.464	22090
858.597	21987
858.731	22101
858.864	22158
858.997	21983
859.13	22188
859.263	22196
859.396	22348
859.529	22200
859.662	22219
859.795	22188
859.928	22078
860.061	22249
860.194	22432
860.327	22280
860.46	22169
860.592	22124
860.725	22379
860.858	22253
860.99	22181
861.123	22188
861.256	22078
861.388	22211
861.521	22778
861.653	22032
861.786	22025
861.918	21915
862.05	22070
862.183	22139
862.315	22010
862.447	22139
862.58	22082
862.712	21846
862.844	21728
862.976	21953
863.108	21850
863.24	22287
863.372	21835
863.504	21800
863.636	21812
863.768	21953
863.9	21888
864.032	21762
864.164	21823
864.296	21831
864.428	21956
864.559	21907
864.691	21838
864.823	21857
864.954	21895
865.086	21781
865.217	21785
865.349	21618
865.48	21701
865.612	21774
865.743	21850
865.875	21823
866.006	21778
866.137	21747
866.269	21641
866.4	21709
866.531	21644
866.662	21553
866.793	21549
866.924	21603
867.055	21679
867.186	21698
867.317	21713
867.448	21568
867.579	21698
867.71	21507
867.841	21576
867.972	21572
868.103	21705
868.233	21785
868.364	21618
868.495	21781
868.625	21842
868.756	21922
868.886	21720
869.017	21930
869.147	21998
869.278	22032
869.408	21953
869.539	21934
869.669	21888
869.799	21994
869.929	22086
870.06	22059
870.19	22299
870.32	22181
870.45	22295
870.58	22280
870.71	22318
870.84	22478
870.97	22257
871.1	22261
871.23	22474
871.36	22489
871.489	22386
871.619	22424
871.749	22493
871.879	22478
872.008	22683
872.138	22584
872.267	22535
872.397	22394
872.526	22337
872.656	22219
872.785	22481
872.915	22626
873.044	22725
873.173	22535
873.303	22584
873.432	22603
873.561	22683
873.69	22554
873.819	22519
873.948	22535
874.077	22470
874.206	22538
874.335	22436
874.464	22599
874.593	22687
874.722	22744
874.851	22763
874.979	22828
875.108	22763
875.237	22767
875.365	22599
875.494	22824
875.623	22771
875.751	22755
875.88	22733
876.008	22835
876.136	22877
876.265	23143
876.393	23250
876.521	23208
876.65	23284
876.778	23151
876.906	23064
877.034	23083
877.162	23044
877.29	22991
877.418	23090
877.546	23083
877.674	23113
877.802	22991
877.93	23113
878.058	23067
878.185	22961
878.313	22995
878.441	23083
878.568	22946
878.696	23029
878.824	23132
878.951	22968
879.079	23147
879.206	23417
879.333	23292
879.461	23147
879.588	23277
879.715	23200
879.842	23292
879.97	23117
880.097	22869
880.224	22968
880.351	22885
880.478	22885
880.605	22767
880.732	22892
880.859	23010
880.986	22930
881.112	22892
881.239	22816
881.366	22546
881.493	22554
881.619	22436
881.746	22451
881.872	22497
881.999	22325
882.125	22360
882.252	22451
882.378	22276
882.505	22478
882.631	22287
882.757	22074
882.883	22192
883.01	22090
883.136	22147
883.262	22051
883.388	21979
883.514	22135
883.64	22188
883.766	22135
883.892	21778
884.018	21987
884.143	22093
884.269	22147
884.395	21903
884.52	21675
884.646	21781
884.772	21660
884.897	21648
885.023	21713
885.148	21850
885.274	22021
885.399	21842
885.524	21675
885.65	21800
885.775	21789
885.9	21793
886.025	21876
886.15	21793
886.275	21583
886.4	21553
886.525	21747
886.65	21603
886.775	21705
886.9	21770
887.025	22074
887.149	21709
887.274	21675
887.399	21496
887.523	21500
887.648	21545
887.773	21477
887.897	21542
888.021	21603
888.146	21443
888.27	21587
888.395	21652
888.519	21606
888.643	21526
888.767	21561
888.891	21424
889.015	21382
889.139	21462
889.263	21355
889.387	21424
889.511	21481
889.635	21477
889.759	21405
889.883	21264
890.006	21428
890.13	21405
890.254	21302
890.377	21230
890.501	21108
890.624	21081
890.748	21070
890.871	20990
890.995	20933
891.118	20842
891.241	20899
891.364	20990
891.488	20967
891.611	20941
891.734	20868
891.857	20845
891.98	20941
892.103	21062
892.226	20948
892.349	20895
892.471	20720
892.594	20815
892.717	20902
892.839	20815
892.962	20826
893.085	20724
893.207	20777
893.33	20583
893.452	20811
893.575	20762
893.697	20838
893.819	20899
893.941	21074
894.064	20937
894.186	20739
894.308	20796
894.43	20868
894.552	20986
894.674	20937
894.796	20663
894.918	20743
895.04	20743
895.161	20826
895.283	20834
895.405	20606
895.526	20853
895.648	20697
895.769	20823
895.891	20773
896.012	20902
896.134	20712
896.255	20815
896.376	20739
896.498	20754
896.619	20842
896.74	20735
896.861	20762
896.982	21039
897.103	21211
897.224	21020
897.345	20937
897.466	20868
897.587	20899
897.708	21047
897.828	20956
897.949	20994
898.07	20830
898.19	20891
898.311	21074
898.431	20937
898.552	20944
898.672	21123
898.792	21028
898.913	21024
899.033	20887
899.153	20727
899.273	20712
899.393	20689
899.513	20834
899.633	20560
899.753	20701
899.873	20587
899.993	20750
900.113	20640
900.232	20678
900.352	20629
900.472	20499
900.591	20503
900.711	20518
900.83	20461
900.95	20488
901.069	20442
901.189	20393
901.308	20046
901.427	20164
901.546	20107
901.665	20081
901.784	20103
901.904	19883
902.023	19928
902.141	19731
902.26	19655
902.379	19704
902.498	19537
902.617	19510
902.735	19521
902.854	19480
902.973	19388
903.091	19141
903.21	19213
903.328	19285
903.446	19076
903.565	18996
903.683	19110
903.801	18886
903.919	19046
904.038	18916
904.156	18821
904.274	18825
904.392	18833
904.51	18711
904.627	18738
904.745	18677
904.863	18825
904.981	18616
905.098	18521
905.216	18422
905.334	18513
905.451	18376
905.569	18445
905.686	18467
905.803	18426
905.921	18289
906.038	18346
906.155	18243
906.272	18140
906.389	18228
906.506	18011
906.623	17908
906.74	18041
906.857	17874
906.974	17866
907.091	17954
907.208	18087
907.324	18038
907.441	17958
907.557	17729
907.674	17726
907.79	17630
907.907	17642
908.023	17668
908.139	17779
908.256	17608
908.372	17524
908.488	17516
908.604	17448
908.72	17406
908.836	17478
908.952	17315
909.068	17558
909.184	17581
909.3	17395
909.415	17395
909.531	17383
909.647	17151
909.762	17109
909.878	17071
909.993	17090
910.108	17132
910.224	17136
910.339	17079
910.454	17018
910.57	16923
910.685	16877
910.8	17018
910.915	17022
911.03	16900
911.145	16729
911.259	16656
911.374	16721
911.489	16580
911.604	16546
911.718	16284
911.833	16409
911.947	16352
912.062	16284
912.176	16436
912.291	16462
912.405	16489
912.519	16675
912.633	16599
912.748	16470
912.862	16405
912.976	16306
913.09	16150
913.204	16166
913.318	16314
913.431	16318
913.545	16348
913.659	16314
913.772	16211
913.886	16120
914	15987
914.113	16036
914.226	16036
914.34	16074
914.453	15861
914.566	16112
914.68	15869
914.793	15766
914.906	15759
915.019	15584
915.132	15542
915.245	15580
915.358	15625
915.47	15694
915.583	15652
915.696	15633
915.809	15793
915.921	15766
916.034	15603
916.146	15595
916.259	15549
916.371	15591
916.483	15675
916.595	15477
916.708	15416
916.82	15477
916.932	15466
917.044	15439
917.156	15313
917.268	15237
917.38	15260
917.491	15233
917.603	15199
917.715	15279
917.826	15272
917.938	15203
918.049	15005
918.161	15180
918.272	15397
918.384	15298
918.495	15135
918.606	15066
918.717	14967
918.828	15024
918.939	15043
919.05	14914
919.161	14910
919.272	14773
919.383	14914
919.494	15100
919.604	15195
919.715	15005
919.826	14845
919.936	14979
920.047	14990
920.157	14960
920.267	15112
920.378	15047
920.488	14925
920.598	15226
920.708	15279
920.818	15142
920.928	15203
921.038	15180
921.148	15192
921.258	15013
921.368	14849
921.477	14735
921.587	14644
921.697	14590
921.806	14579
921.916	14575
922.025	14419
922.134	14301
922.244	14294
922.353	14381
922.462	14206
922.571	14142
922.68	14031
922.789	13906
922.898	14008
923.007	13883
923.116	14005
923.224	14016
923.333	13913
923.442	13765
923.55	13689
923.659	13856
923.767	13898
923.876	13685
923.984	13814
924.092	13670
924.201	13803
924.309	13761
924.417	13651
924.525	13651
924.633	13597
924.741	14465
924.849	13434
924.956	13616
925.064	13453
925.172	13415
925.279	13354
925.387	13392
925.494	13350
925.602	13464
925.709	13369
925.816	13221
925.924	13266
926.031	13343
926.138	13301
926.245	13407
926.352	13225
926.459	13324
926.566	13403
926.673	13240
926.779	13069
926.886	13061
926.993	12890
927.099	12958
927.206	12840
927.312	12817
927.419	13004
927.525	12932
927.631	12943
927.737	12821
927.843	12753
927.95	12551
928.056	12696
928.162	12852
928.267	12768
928.373	13308
928.479	12772
928.585	12513
928.69	12684
928.796	12711
928.901	12681
929.007	12532
929.112	12623
929.218	12490
929.323	12509
929.428	12475
929.533	12566
929.638	12426
929.743	12403
929.848	12395
929.953	12422
930.058	12224
930.163	12091
930.267	12216
930.372	12300
930.477	12098
930.581	12323
930.685	12194
930.79	12095
930.894	12041
930.998	11973
931.103	12186
931.207	11741
931.311	11729
931.415	11600
931.519	11372
931.623	11387
