Data from test_V78500241_1799.txt Node
Date: Fri Mar 25 15:54:15 CST 2022
User: usil
Spectrometer: V785-0024
Trigger mode: 0
Integration Time (sec): 4.000000E-1
Scans to average: 1
Nonlinearity correction enabled: false
Boxcar width: 0
Storing dark spectrum: false
XAxis mode: Wavelengths
Number of Pixels in Spectrum: 1024
>>>>>Begin Spectral Data<<<<<
801.071	28611
801.214	28542
801.356	28185
801.499	28325
801.641	28070
801.783	28139
801.926	28257
802.068	28169
802.211	28093
802.353	28055
802.496	27850
802.638	27922
802.78	27854
802.923	27736
803.065	27778
803.208	27622
803.35	27899
803.492	27895
803.635	27994
803.777	27972
803.919	27975
804.061	28322
804.204	28131
804.346	28048
804.488	27983
804.63	28078
804.773	27964
804.915	28059
805.057	28192
805.199	28044
805.341	28246
805.483	28219
805.626	28440
805.768	28219
805.91	28272
806.052	28188
806.194	28295
806.336	28523
806.478	28272
806.62	28341
806.762	28363
806.904	28447
807.046	28561
807.188	28516
807.33	28622
807.472	28923
807.614	28763
807.756	28660
807.898	28580
808.04	28538
808.182	28519
808.324	28478
808.465	28713
808.607	28740
808.749	28885
808.891	29014
809.033	29113
809.174	28972
809.316	28797
809.458	28972
809.6	28645
809.741	28946
809.883	28953
810.025	29227
810.166	29162
810.308	29109
810.45	29102
810.591	28976
810.733	28847
810.875	28904
811.016	28755
811.158	28904
811.299	28949
811.441	28957
811.582	29090
811.724	28877
811.865	28835
812.007	28984
812.148	28892
812.29	28972
812.431	29128
812.573	29250
812.714	29395
812.855	29436
812.997	29501
813.138	29558
813.279	29589
813.421	29524
813.562	29471
813.703	29140
813.845	29231
813.986	28763
814.127	28706
814.268	28561
814.41	28599
814.551	28569
814.692	28668
814.833	28611
814.974	28577
815.115	28637
815.256	28546
815.397	28535
815.539	28371
815.68	28535
815.821	28413
815.962	28322
816.103	28478
816.244	28440
816.385	28238
816.526	28253
816.666	28021
816.807	27914
816.948	27968
817.089	28032
817.23	28002
817.371	27937
817.512	27914
817.653	27850
817.793	27816
817.934	27899
818.075	27880
818.216	28086
818.356	27892
818.497	27926
818.638	27679
818.778	27816
818.919	27667
819.06	27793
819.2	27903
819.341	27918
819.481	28017
819.622	28055
819.762	28303
819.903	28192
820.043	28181
820.184	28112
820.324	28029
820.465	28162
820.605	28070
820.746	28116
820.886	28006
821.026	28116
821.167	27930
821.307	28051
821.447	27945
821.588	27732
821.728	27663
821.868	27599
822.008	27458
822.149	27298
822.289	27260
822.429	27180
822.569	27032
822.709	27161
822.849	26971
822.99	26944
823.13	26940
823.27	26944
823.41	26750
823.55	26613
823.69	26906
823.83	26804
823.97	26598
824.11	26530
824.25	26473
824.389	26442
824.529	26640
824.669	26617
824.809	26758
824.949	26762
825.089	26682
825.228	26568
825.368	26309
825.508	26495
825.648	26476
825.787	26511
825.927	26495
826.067	26351
826.206	26381
826.346	26511
826.485	26473
826.625	26301
826.765	26465
826.904	26541
827.044	26176
827.183	26195
827.323	26008
827.462	26107
827.601	26157
827.741	26210
827.88	26130
828.02	25940
828.159	26153
828.298	26153
828.437	26168
828.577	26164
828.716	26248
828.855	26111
828.994	25811
829.134	26043
829.273	25883
829.412	25784
829.551	25841
829.69	25856
829.829	25845
829.968	25944
830.107	25757
830.246	25795
830.385	25807
830.524	25788
830.663	25628
830.802	25499
830.941	25426
831.08	25468
831.219	25590
831.357	25567
831.496	25689
831.635	25472
831.774	25362
831.913	25285
832.051	25270
832.19	25225
832.329	25331
832.467	25031
832.606	25000
832.744	25076
832.883	25118
833.022	25164
833.16	24966
833.299	25179
833.437	25202
833.576	25198
833.714	25187
833.852	25164
833.991	25331
834.129	25259
834.267	25107
834.406	25183
834.544	25251
834.682	25247
834.821	25198
834.959	25251
835.097	24981
835.235	25175
835.373	25190
835.511	25110
835.65	24935
835.788	25095
835.926	24852
836.064	24882
836.202	24935
836.34	24951
836.478	25160
836.615	25008
836.753	24935
836.891	25129
837.029	24894
837.167	24928
837.305	24882
837.443	24878
837.58	24779
837.718	24882
837.856	24810
837.993	24825
838.131	24825
838.269	24684
838.406	24707
838.544	24635
838.681	24505
838.819	24532
838.956	24262
839.094	24247
839.231	24342
839.369	24544
839.506	24486
839.643	24555
839.781	24376
839.918	24251
840.055	24270
840.193	24407
840.33	24323
840.467	24232
840.604	24277
840.742	24471
840.879	23988
841.016	24167
841.153	24079
841.29	24243
841.427	24167
841.564	24243
841.701	24190
841.838	24110
841.975	24144
842.112	24152
842.249	24072
842.385	23935
842.522	24087
842.659	23942
842.796	23931
842.933	24007
843.069	23996
843.206	23847
843.343	24060
843.479	23878
843.616	24026
843.752	23741
843.889	23775
844.025	23851
844.162	23703
844.298	23828
844.435	23722
844.571	23733
844.708	23783
844.844	23931
844.98	23874
845.117	23920
845.253	23756
845.389	23737
845.525	23611
845.661	23592
845.798	23505
845.934	23528
846.07	23452
846.206	23398
846.342	23543
846.478	23383
846.614	23170
846.75	23102
846.886	23258
847.022	23170
847.158	23265
847.294	23204
847.429	23208
847.565	23102
847.701	23528
847.837	23102
847.972	22892
848.108	23041
848.244	22927
848.379	22812
848.515	22748
848.65	22911
848.786	22881
848.921	22801
849.057	22896
849.192	22892
849.328	22805
849.463	22797
849.598	22653
849.734	22744
849.869	22660
850.004	22538
850.14	22565
850.275	22599
850.41	22421
850.545	22516
850.68	22561
850.815	22656
850.95	22607
851.085	22801
851.22	22809
851.355	22436
851.49	22550
851.625	22527
851.76	22596
851.895	22421
852.03	22367
852.165	22607
852.299	22535
852.434	22611
852.569	22615
852.703	22527
852.838	22691
852.973	22675
853.107	22641
853.242	22565
853.376	22455
853.511	22287
853.645	22337
853.78	22557
853.914	22409
854.048	22337
854.183	22280
854.317	22299
854.451	22565
854.585	22371
854.72	22291
854.854	22535
854.988	22177
855.122	22360
855.256	22150
855.39	22375
855.524	22402
855.658	22310
855.792	22382
855.926	22341
856.06	22432
856.194	22481
856.327	22382
856.461	22287
856.595	22329
856.729	22329
856.862	22546
856.996	22421
857.13	22386
857.263	22478
857.397	22451
857.53	22390
857.664	22466
857.797	22352
857.931	22436
858.064	22390
858.197	22432
858.331	22424
858.464	22169
858.597	22325
858.731	22314
858.864	22382
858.997	22398
859.13	22310
859.263	22318
859.396	22303
859.529	22348
859.662	22329
859.795	22344
859.928	22417
860.061	22500
860.194	22672
860.327	22375
860.46	22470
860.592	22386
860.725	22607
860.858	22451
860.99	22424
861.123	22379
861.256	22284
861.388	22447
861.521	22911
861.653	22303
861.786	22173
861.918	22181
862.05	22188
862.183	22291
862.315	22405
862.447	22409
862.58	22371
862.712	22169
862.844	22017
862.976	22284
863.108	22230
863.24	22577
863.372	22021
863.504	22002
863.636	22051
863.768	22093
863.9	22055
864.032	21915
864.164	21994
864.296	22169
864.428	22097
864.559	22166
864.691	22013
864.823	22010
864.954	22124
865.086	22010
865.217	21949
865.349	21869
865.48	22017
865.612	22002
865.743	22086
865.875	21949
866.006	21945
866.137	21873
866.269	21960
866.4	21857
866.531	21797
866.662	21869
866.793	21911
866.924	21819
867.055	21979
867.186	21873
867.317	21899
867.448	21831
867.579	21846
867.71	21797
867.841	21888
867.972	21846
868.103	21808
868.233	21873
868.364	21915
868.495	21907
868.625	22093
868.756	22181
868.886	22086
869.017	22154
869.147	22112
869.278	22272
869.408	21998
869.539	22135
869.669	22276
869.799	22131
869.929	22299
870.06	22173
870.19	22508
870.32	22405
870.45	22531
870.58	22470
870.71	22683
870.84	22679
870.97	22546
871.1	22489
871.23	22634
871.36	22793
871.489	22622
871.619	22607
871.749	22748
871.879	22767
872.008	22828
872.138	22824
872.267	22668
872.397	22569
872.526	22519
872.656	22500
872.785	22580
872.915	22809
873.044	22725
873.173	22774
873.303	22748
873.432	22797
873.561	22854
873.69	22847
873.819	22706
873.948	22717
874.077	22683
874.206	22664
874.335	22740
874.464	22713
874.593	23014
874.722	22896
874.851	22927
874.979	23052
875.108	23014
875.237	22976
875.365	22786
875.494	22953
875.623	23041
875.751	22854
875.88	23037
876.008	22980
876.136	23220
876.265	23296
876.393	23497
876.521	23368
876.65	23463
876.778	23265
876.906	23307
877.034	23197
877.162	23242
877.29	23200
877.418	23330
877.546	23250
877.674	23307
877.802	23143
877.93	23356
878.058	23235
878.185	23090
878.313	23193
878.441	23220
878.568	23075
878.696	23185
878.824	23246
878.951	23402
879.079	23353
879.206	23585
879.333	23505
879.461	23349
879.588	23414
879.715	23512
879.842	23535
879.97	23254
880.097	23143
880.224	23041
880.351	23121
880.478	23159
880.605	23128
880.732	23052
880.859	23326
880.986	23117
881.112	23128
881.239	23052
881.366	22774
881.493	22782
881.619	22801
881.746	22736
881.872	22645
881.999	22637
882.125	22630
882.252	22645
882.378	22687
882.505	22736
882.631	22402
882.757	22367
882.883	22462
883.01	22287
883.136	22249
883.262	22219
883.388	22200
883.514	22367
883.64	22246
883.766	22268
883.892	22158
884.018	22093
884.143	22287
884.269	22443
884.395	21956
884.52	22021
884.646	22036
884.772	21907
884.897	21911
885.023	21960
885.148	22090
885.274	22150
885.399	22021
885.524	21876
885.65	21979
885.775	21949
885.9	21918
886.025	22070
886.15	22017
886.275	21911
886.4	21903
886.525	21991
886.65	21941
886.775	21949
886.9	22025
887.025	22036
887.149	21926
887.274	21705
887.399	21774
887.523	21739
887.648	21648
887.773	21568
887.897	21869
888.021	21857
888.146	21610
888.27	21884
888.395	21797
888.519	21865
888.643	21808
888.767	21819
888.891	21679
889.015	21504
889.139	21473
889.263	21530
889.387	21660
889.511	21732
889.635	21606
889.759	21568
889.883	21526
890.006	21576
890.13	21606
890.254	21515
890.377	21488
890.501	21325
890.624	21272
890.748	21268
890.871	21218
890.995	21074
891.118	21127
891.241	21104
891.364	21192
891.488	21154
891.611	21154
891.734	21047
891.857	21108
891.98	21039
892.103	21096
892.226	21020
892.349	21051
892.471	20902
892.594	20960
892.717	20990
892.839	20975
892.962	20990
893.085	21017
893.207	20868
893.33	20872
893.452	21005
893.575	21013
893.697	20895
893.819	21001
893.941	21116
894.064	21100
894.186	20864
894.308	20899
894.43	21077
894.552	21070
894.674	21131
894.796	20811
894.918	21017
895.04	21013
895.161	20937
895.283	20990
895.405	20868
895.526	20925
895.648	20887
895.769	21066
895.891	21085
896.012	21077
896.134	21009
896.255	20933
896.376	20906
896.498	20861
896.619	20960
896.74	20849
896.861	21081
896.982	21382
897.103	21355
897.224	21302
897.345	21077
897.466	21119
897.587	21230
897.708	21378
897.828	21252
897.949	21127
898.07	21154
898.19	21081
898.311	21222
898.431	21096
898.552	21203
898.672	21165
898.792	21260
898.913	21055
899.033	21009
899.153	20906
899.273	20781
899.393	20918
899.513	20937
899.633	20895
899.753	20899
899.873	20975
899.993	20929
900.113	20788
900.232	20777
900.352	20838
900.472	20705
900.591	20606
900.711	20724
900.83	20552
900.95	20674
901.069	20743
901.189	20419
901.308	20351
901.427	20199
901.546	20309
901.665	20130
901.784	20172
901.904	20126
902.023	20111
902.141	19746
902.26	19734
902.379	19830
902.498	19632
902.617	19635
902.735	19791
902.854	19601
902.973	19632
903.091	19297
903.21	19358
903.328	19430
903.446	19244
903.565	19244
903.683	19213
903.801	19072
903.919	19099
904.038	19118
904.156	18970
904.274	18890
904.392	18913
904.51	18871
904.627	18814
904.745	19038
904.863	18920
904.981	18677
905.098	18608
905.216	18642
905.334	18715
905.451	18646
905.569	18612
905.686	18589
905.803	18639
905.921	18384
906.038	18418
906.155	18456
906.272	18369
906.389	18388
906.506	18106
906.623	18049
906.74	18091
906.857	18159
906.974	18140
907.091	18205
907.208	18247
907.324	18186
907.441	18015
907.557	17847
907.674	17714
907.79	17882
907.907	17809
908.023	17767
908.139	17718
908.256	17889
908.372	17691
908.488	17646
908.604	17600
908.72	17512
908.836	17623
908.952	17562
909.068	17493
909.184	17600
909.3	17524
909.415	17611
909.531	17573
909.647	17212
909.762	17239
909.878	17223
909.993	17284
910.108	17269
910.224	17296
910.339	17178
910.454	17113
910.57	17090
910.685	16961
910.8	17159
910.915	17185
911.03	17048
911.145	16942
911.259	16896
911.374	16885
911.489	16824
911.604	16687
911.718	16721
911.833	16542
911.947	16432
912.062	16436
912.176	16542
912.291	16656
912.405	16596
912.519	16679
912.633	16683
912.748	16558
912.862	16565
912.976	16402
913.09	16382
913.204	16295
913.318	16352
913.431	16413
913.545	16493
913.659	16363
913.772	16390
913.886	16200
914	16150
914.113	16268
914.226	16238
914.34	16204
914.453	16105
914.566	16207
914.68	16082
914.793	16063
914.906	15835
915.019	15785
915.132	15652
915.245	15808
915.358	15800
915.47	15895
915.583	15755
915.696	15660
915.809	15876
915.921	15861
916.034	15743
916.146	15656
916.259	15603
916.371	15785
916.483	15709
916.595	15622
916.708	15629
916.82	15587
916.932	15542
917.044	15572
917.156	15504
917.268	15458
917.38	15488
917.491	15336
917.603	15447
917.715	15443
917.826	15496
917.938	15355
918.049	15211
918.161	15268
918.272	15511
918.384	15485
918.495	15275
918.606	15211
918.717	15074
918.828	15123
918.939	15199
919.05	15051
919.161	15173
919.272	14914
919.383	15039
919.494	15135
919.604	15340
919.715	15116
919.826	15051
919.936	15093
920.047	15249
920.157	15146
920.267	15378
920.378	15085
920.488	15150
920.598	15302
920.708	15294
920.818	15283
920.928	15230
921.038	15351
921.148	15283
921.258	14990
921.368	14845
921.477	14838
921.587	14830
921.697	14804
921.806	14834
921.916	14781
922.025	14522
922.134	14377
922.244	14282
922.353	14492
922.462	14339
922.571	14164
922.68	14069
922.789	14073
922.898	14202
923.007	13989
923.116	14145
923.224	14096
923.333	14024
923.442	13940
923.55	13875
923.659	13925
923.767	13978
923.876	13772
923.984	13959
924.092	13784
924.201	13830
924.309	13909
924.417	13799
924.525	13693
924.633	13799
924.741	14640
924.849	13415
924.956	13674
925.064	13422
925.172	13400
925.279	13510
925.387	13518
925.494	13422
925.602	13689
925.709	13514
925.816	13384
925.924	13419
926.031	13422
926.138	13464
926.245	13533
926.352	13324
926.459	13400
926.566	13502
926.673	13343
926.779	13209
926.886	13236
926.993	13012
927.099	13126
927.206	13008
927.312	12973
927.419	13038
927.525	12966
927.631	13065
927.737	12840
927.843	12833
927.95	12817
928.056	12840
928.162	12867
928.267	12837
928.373	13476
928.479	12951
928.585	12658
928.69	12821
928.796	12848
928.901	12707
929.007	12555
929.112	12814
929.218	12635
929.323	12574
929.428	12574
929.533	12662
929.638	12544
929.743	12467
929.848	12563
929.953	12506
930.058	12338
930.163	12296
930.267	12190
930.372	12372
930.477	12186
930.581	12441
930.685	12304
930.79	12060
930.894	12163
930.998	12053
931.103	12220
931.207	11813
931.311	11729
931.415	11748
931.519	11402
931.623	11421
