Data from test_V78500241_558.txt Node
Date: Fri Mar 25 15:45:40 CST 2022
User: usil
Spectrometer: V785-0024
Trigger mode: 0
Integration Time (sec): 4.000000E-1
Scans to average: 1
Nonlinearity correction enabled: false
Boxcar width: 0
Storing dark spectrum: false
XAxis mode: Wavelengths
Number of Pixels in Spectrum: 1024
>>>>>Begin Spectral Data<<<<<
801.071	27351
801.214	27241
801.356	27089
801.499	26952
801.641	26834
801.783	26834
801.926	26906
802.068	26705
802.211	26769
802.353	26659
802.496	26556
802.638	26533
802.78	26450
802.923	26328
803.065	26377
803.208	26442
803.35	26374
803.492	26465
803.635	26583
803.777	26450
803.919	26609
804.061	26762
804.204	26514
804.346	26488
804.488	26427
804.63	26488
804.773	26427
804.915	26545
805.057	26765
805.199	26484
805.341	26568
805.483	26609
805.626	26689
805.768	26640
805.91	26667
806.052	26571
806.194	26640
806.336	26857
806.478	26823
806.62	26629
806.762	26705
806.904	26914
807.046	27176
807.188	27119
807.33	27214
807.472	27135
807.614	27028
807.756	26982
807.898	26948
808.04	26800
808.182	26880
808.324	26994
808.465	26910
808.607	27119
808.749	27173
808.891	27420
809.033	27462
809.174	27504
809.316	27306
809.458	27291
809.6	27329
809.741	27526
809.883	27427
810.025	27553
810.166	27424
810.308	27515
810.45	27511
810.591	27458
810.733	27252
810.875	27283
811.016	27055
811.158	27199
811.299	27580
811.441	27545
811.582	27458
811.724	27264
811.865	27184
812.007	27382
812.148	27195
812.29	27370
812.431	27466
812.573	27766
812.714	27564
812.855	27804
812.997	27835
813.138	28051
813.279	27899
813.421	27804
813.562	27850
813.703	27511
813.845	27454
813.986	27085
814.127	27062
814.268	26944
814.41	27005
814.551	26906
814.692	26891
814.833	26701
814.974	27020
815.115	27043
815.256	26762
815.397	26876
815.539	26910
815.68	26746
815.821	26731
815.962	26727
816.103	26739
816.244	26644
816.385	26697
816.526	26492
816.666	26419
816.807	26259
816.948	26313
817.089	26313
817.23	26313
817.371	26244
817.512	26199
817.653	26096
817.793	26111
817.934	26244
818.075	26233
818.216	26081
818.356	26187
818.497	26058
818.638	25955
818.778	26058
818.919	25791
819.06	26050
819.2	26157
819.341	26225
819.481	26126
819.622	26267
819.762	26678
819.903	26450
820.043	26317
820.184	26358
820.324	26218
820.465	26317
820.605	26355
820.746	26206
820.886	26252
821.026	26324
821.167	26328
821.307	26298
821.447	26248
821.588	26107
821.728	25909
821.868	25811
822.008	25765
822.149	25605
822.289	25708
822.429	25441
822.569	25320
822.709	25388
822.849	25255
822.99	25171
823.13	25069
823.27	25076
823.41	24905
823.55	24894
823.69	24966
823.83	25031
823.97	24958
824.11	24760
824.25	24741
824.389	24749
824.529	24882
824.669	24814
824.809	24973
824.949	24768
825.089	24951
825.228	24867
825.368	24578
825.508	24696
825.648	24734
825.787	24722
825.927	24612
826.067	24597
826.206	24692
826.346	24730
826.485	24734
826.625	24715
826.765	24703
826.904	24753
827.044	24452
827.183	24437
827.323	24388
827.462	24547
827.601	24391
827.741	24357
827.88	24395
828.02	24239
828.159	24464
828.298	24350
828.437	24452
828.577	24426
828.716	24555
828.855	24273
828.994	24152
829.134	24125
829.273	24083
829.412	23977
829.551	24003
829.69	24121
829.829	24186
829.968	24178
830.107	24174
830.246	24110
830.385	24038
830.524	23992
830.663	23908
830.802	23790
830.941	23760
831.08	23722
831.219	23836
831.357	23760
831.496	23897
831.635	23615
831.774	23665
831.913	23509
832.051	23585
832.19	23448
832.329	23764
832.467	23463
832.606	23414
832.744	23360
832.883	23425
833.022	23345
833.16	23421
833.299	23410
833.437	23379
833.576	23497
833.714	23505
833.852	23539
833.991	23474
834.129	23516
834.267	23459
834.406	23402
834.544	23425
834.682	23452
834.821	23341
834.959	23573
835.097	23448
835.235	23493
835.373	23528
835.511	23353
835.65	23239
835.788	23242
835.926	23189
836.064	23098
836.202	23216
836.34	23185
836.478	23311
836.615	23227
836.753	23330
836.891	23459
837.029	23341
837.167	23307
837.305	23288
837.443	23162
837.58	23197
837.718	23231
837.856	23128
837.993	23090
838.131	23098
838.269	22923
838.406	22987
838.544	22976
838.681	22782
838.819	22767
838.956	22668
839.094	22634
839.231	22630
839.369	22717
839.506	23025
839.643	22793
839.781	22641
839.918	22497
840.055	22656
840.193	22531
840.33	22584
840.467	22451
840.604	22516
840.742	22820
840.879	22344
841.016	22497
841.153	22485
841.29	22584
841.427	22428
841.564	22512
841.701	22417
841.838	22371
841.975	22394
842.112	22440
842.249	22299
842.385	22405
842.522	22516
842.659	22386
842.796	22287
842.933	22291
843.069	22200
843.206	22234
843.343	22253
843.479	22272
843.616	22287
843.752	21987
843.889	22086
844.025	22158
844.162	22063
844.298	22128
844.435	22059
844.571	22006
844.708	22124
844.844	22154
844.98	22070
845.117	22166
845.253	21975
845.389	21892
845.525	21846
845.661	21960
845.798	21880
845.934	21892
846.07	21854
846.206	21816
846.342	21884
846.478	21827
846.614	21595
846.75	21363
846.886	21549
847.022	21641
847.158	21572
847.294	21504
847.429	21599
847.565	21523
847.701	21736
847.837	21245
847.972	21279
848.108	21405
848.244	21298
848.379	21169
848.515	21058
848.65	21138
848.786	21051
848.921	21188
849.057	21207
849.192	21142
849.328	21123
849.463	20971
849.598	21058
849.734	21028
849.869	20929
850.004	20792
850.14	20887
850.275	20750
850.41	20686
850.545	20857
850.68	20876
850.815	20876
850.95	20739
851.085	21123
851.22	20948
851.355	20819
851.49	20880
851.625	20925
851.76	20815
851.895	20762
852.03	20743
852.165	20895
852.299	20895
852.434	20899
852.569	20899
852.703	20899
852.838	20937
852.973	20944
853.107	21017
853.242	20735
853.376	20648
853.511	20670
853.645	20644
853.78	20785
853.914	20712
854.048	20689
854.183	20594
854.317	20727
854.451	20712
854.585	20686
854.72	20644
854.854	20743
854.988	20556
855.122	20686
855.256	20606
855.39	20659
855.524	20743
855.658	20788
855.792	20648
855.926	20568
856.06	20693
856.194	20731
856.327	20686
856.461	20644
856.595	20621
856.729	20629
856.862	20811
856.996	20762
857.13	20746
857.263	20876
857.397	20853
857.53	20659
857.664	20678
857.797	20792
857.931	20823
858.064	20693
858.197	20838
858.331	20743
858.464	20537
858.597	20625
858.731	20754
858.864	20705
858.997	20674
859.13	20663
859.263	20697
859.396	20773
859.529	20609
859.662	20693
859.795	20526
859.928	20724
860.061	20887
860.194	20986
860.327	20708
860.46	20682
860.592	20716
860.725	20826
860.858	20845
860.99	20746
861.123	20579
861.256	20609
861.388	20651
861.521	21169
861.653	20476
861.786	20511
861.918	20450
862.05	20587
862.183	20461
862.315	20522
862.447	20750
862.58	20522
862.712	20450
862.844	20442
862.976	20415
863.108	20339
863.24	20895
863.372	20210
863.504	20476
863.636	20400
863.768	20408
863.9	20431
864.032	20221
864.164	20461
864.296	20366
864.428	20415
864.559	20473
864.691	20552
864.823	20408
864.954	20393
865.086	20393
865.217	20240
865.349	20248
865.48	20263
865.612	20313
865.743	20396
865.875	20301
866.006	20229
866.137	20313
866.269	20301
866.4	20290
866.531	20336
866.662	20221
866.793	20244
866.924	20218
867.055	20248
867.186	20267
867.317	20187
867.448	20176
867.579	20172
867.71	20153
867.841	20016
867.972	20237
868.103	20218
868.233	20206
868.364	20195
868.495	20263
868.625	20427
868.756	20457
868.886	20381
869.017	20454
869.147	20609
869.278	20636
869.408	20667
869.539	20476
869.669	20587
869.799	20465
869.929	20575
870.06	20518
870.19	20773
870.32	20830
870.45	20823
870.58	20921
870.71	21119
870.84	20906
870.97	20853
871.1	20910
871.23	21112
871.36	20990
871.489	20899
871.619	21100
871.749	21058
871.879	21066
872.008	21203
872.138	21131
872.267	21108
872.397	20986
872.526	20883
872.656	20906
872.785	21009
872.915	21138
873.044	21127
873.173	21077
873.303	21081
873.432	21108
873.561	21176
873.69	21119
873.819	21093
873.948	21146
874.077	21127
874.206	20986
874.335	21058
874.464	21184
874.593	21370
874.722	21275
874.851	21291
874.979	21405
875.108	21428
875.237	21283
875.365	21272
875.494	21393
875.623	21420
875.751	21389
875.88	21363
876.008	21458
876.136	21568
876.265	21774
876.393	21880
876.521	21644
876.65	21774
876.778	21739
876.906	21618
877.034	21705
877.162	21629
877.29	21785
877.418	21759
877.546	21686
877.674	21625
877.802	21671
877.93	21610
878.058	21568
878.185	21458
878.313	21675
878.441	21732
878.568	21500
878.696	21625
878.824	21804
878.951	21789
879.079	21797
879.206	21926
879.333	21842
879.461	21713
879.588	21892
879.715	21873
879.842	21998
879.97	21717
880.097	21428
880.224	21481
880.351	21526
880.478	21496
880.605	21424
880.732	21519
880.859	21747
880.986	21542
881.112	21576
881.239	21233
881.366	21260
881.493	21093
881.619	21268
881.746	21173
881.872	21100
881.999	21180
882.125	20994
882.252	21146
882.378	20975
882.505	21161
882.631	20918
882.757	20830
882.883	20872
883.01	20826
883.136	20773
883.262	20659
883.388	20617
883.514	20876
883.64	20830
883.766	20720
883.892	20530
884.018	20686
884.143	20781
884.269	20823
884.395	20518
884.52	20362
884.646	20537
884.772	20484
884.897	20415
885.023	20503
885.148	20594
885.274	20434
885.399	20549
885.524	20450
885.65	20450
885.775	20511
885.9	20343
886.025	20545
886.15	20434
886.275	20393
886.4	20393
886.525	20358
886.65	20385
886.775	20377
886.9	20590
887.025	20571
887.149	20590
887.274	20145
887.399	20195
887.523	20244
887.648	20119
887.773	20149
887.897	20252
888.021	20286
888.146	20187
888.27	20320
888.395	20404
888.519	20278
888.643	20233
888.767	20180
888.891	20168
889.015	20027
889.139	20084
889.263	19982
889.387	20069
889.511	20259
889.635	20119
889.759	20035
889.883	20027
890.006	20046
890.13	20024
890.254	19978
890.377	19986
890.501	19826
890.624	19734
890.748	19757
890.871	19822
890.995	19609
891.118	19628
891.241	19635
891.364	19571
891.488	19708
891.611	19757
891.734	19651
891.857	19685
891.98	19613
892.103	19651
892.226	19563
892.349	19628
892.471	19460
892.594	19540
892.717	19590
892.839	19487
892.962	19544
893.085	19563
893.207	19533
893.33	19400
893.452	19411
893.575	19590
893.697	19510
893.819	19700
893.941	19696
894.064	19594
894.186	19529
894.308	19499
894.43	19620
894.552	19742
894.674	19643
894.796	19499
894.918	19559
895.04	19514
895.161	19544
895.283	19643
895.405	19422
895.526	19495
895.648	19552
895.769	19575
895.891	19491
896.012	19780
896.134	19613
896.255	19537
896.376	19476
896.498	19609
896.619	19590
896.74	19575
896.861	19628
896.982	19909
897.103	19986
897.224	19757
897.345	19875
897.466	19795
897.587	19772
897.708	19906
897.828	19837
897.949	19719
898.07	19693
898.19	19738
898.311	19826
898.431	19799
898.552	19761
898.672	19784
898.792	19837
898.913	19811
899.033	19677
899.153	19658
899.273	19502
899.393	19483
899.513	19525
899.633	19578
899.753	19567
899.873	19365
899.993	19601
900.113	19563
900.232	19582
900.352	19540
900.472	19331
900.591	19354
900.711	19308
900.83	19282
900.95	19434
901.069	19472
901.189	19240
901.308	18985
901.427	18867
901.546	18970
901.665	18958
901.784	18977
901.904	18757
902.023	18772
902.141	18585
902.26	18475
902.379	18498
902.498	18471
902.617	18357
902.735	18395
902.854	18357
902.973	18342
903.091	18182
903.21	18152
903.328	18072
903.446	18117
903.565	17916
903.683	17916
903.801	17813
903.919	17920
904.038	17904
904.156	17623
904.274	17760
904.392	17722
904.51	17638
904.627	17695
904.745	17836
904.863	17718
904.981	17376
905.098	17330
905.216	17353
905.334	17376
905.451	17360
905.569	17330
905.686	17349
905.803	17391
905.921	17147
906.038	17273
906.155	17121
906.272	17052
906.389	17132
906.506	16919
906.623	16866
906.74	16942
906.857	16729
906.974	16869
907.091	16919
907.208	17162
907.324	16999
907.441	16786
907.557	16717
907.674	16649
907.79	16542
907.907	16706
908.023	16641
908.139	16733
908.256	16554
908.372	16573
908.488	16417
908.604	16314
908.72	16348
908.836	16363
908.952	16398
909.068	16310
909.184	16443
909.3	16360
909.415	16398
909.531	16295
909.647	16169
909.762	16078
909.878	16101
909.993	16147
910.108	15911
910.224	16029
910.339	16006
910.454	16055
910.57	15861
910.685	15762
910.8	16090
910.915	15979
911.03	15774
911.145	15625
911.259	15606
911.374	15629
911.489	15587
911.604	15580
911.718	15374
911.833	15355
911.947	15329
912.062	15203
912.176	15420
912.291	15507
912.405	15473
912.519	15614
912.633	15606
912.748	15542
912.862	15450
912.976	15351
913.09	15127
913.204	15237
913.318	15272
913.431	15302
913.545	15393
913.659	15374
913.772	15108
913.886	15028
914	14937
914.113	15146
914.226	15131
914.34	15135
914.453	14941
914.566	15028
914.68	14933
914.793	14891
914.906	14750
915.019	14686
915.132	14621
915.245	14594
915.358	14648
915.47	14674
915.583	14708
915.696	14602
915.809	14758
915.921	14796
916.034	14587
916.146	14598
916.259	14590
916.371	14735
916.483	14545
916.595	14431
916.708	14526
916.82	14503
916.932	14434
917.044	14488
917.156	14419
917.268	14415
917.38	14393
917.491	14282
917.603	14336
917.715	14427
917.826	14389
917.938	14317
918.049	14153
918.161	14336
918.272	14431
918.384	14438
918.495	14195
918.606	14111
918.717	14043
918.828	14100
918.939	14180
919.05	14020
919.161	14096
919.272	13921
919.383	13925
919.494	14172
919.604	14332
919.715	14237
919.826	13955
919.936	14115
920.047	14145
920.157	14149
920.267	14233
920.378	14145
920.488	14008
920.598	14263
920.708	14336
920.818	14305
920.928	14244
921.038	14320
921.148	14210
921.258	14001
921.368	14039
921.477	13811
921.587	13887
921.697	13681
921.806	13852
921.916	13704
922.025	13514
922.134	13506
922.244	13464
922.353	13449
922.462	13415
922.571	13324
922.68	13175
922.789	13095
922.898	13149
923.007	13190
923.116	13110
923.224	13027
923.333	13076
923.442	12981
923.55	13019
923.659	12958
923.767	13019
923.876	12875
923.984	12989
924.092	12798
924.201	12833
924.309	12924
924.417	12795
924.525	12802
924.633	12848
924.741	13700
924.849	12646
924.956	12753
925.064	12700
925.172	12456
925.279	12521
925.387	12593
925.494	12620
925.602	12658
925.709	12563
925.816	12395
925.924	12502
926.031	12639
926.138	12483
926.245	12494
926.352	12376
926.459	12593
926.566	12650
926.673	12471
926.779	12323
926.886	12376
926.993	12140
927.099	12121
927.206	12091
927.312	12102
927.419	12182
927.525	12152
927.631	12125
927.737	11942
927.843	11965
927.95	11878
928.056	11984
928.162	11923
928.267	12038
928.373	12665
928.479	12076
928.585	11863
928.69	11950
928.796	11958
928.901	11824
929.007	11737
929.112	11824
929.218	11726
929.323	11718
929.428	11733
929.533	11874
929.638	11649
929.743	11703
929.848	11707
929.953	11665
930.058	11600
930.163	11509
930.267	11463
930.372	11524
930.477	11463
930.581	11661
930.685	11448
930.79	11269
930.894	11353
930.998	11166
931.103	11497
931.207	11041
931.311	10972
931.415	10930
931.519	10771
931.623	10622
