Data from test_V78500241_1352.txt Node
Date: Fri Mar 25 15:51:10 CST 2022
User: usil
Spectrometer: V785-0024
Trigger mode: 0
Integration Time (sec): 4.000000E-1
Scans to average: 1
Nonlinearity correction enabled: false
Boxcar width: 0
Storing dark spectrum: false
XAxis mode: Wavelengths
Number of Pixels in Spectrum: 1024
>>>>>Begin Spectral Data<<<<<
801.071	28257
801.214	28188
801.356	27884
801.499	27827
801.641	27724
801.783	27660
801.926	27812
802.068	27633
802.211	27682
802.353	27492
802.496	27466
802.638	27344
802.78	27374
802.923	27287
803.065	27237
803.208	27188
803.35	27424
803.492	27412
803.635	27458
803.777	27595
803.919	27504
804.061	27873
804.204	27538
804.346	27549
804.488	27435
804.63	27663
804.773	27606
804.915	27720
805.057	27625
805.199	27610
805.341	27667
805.483	27785
805.626	27667
805.768	27618
805.91	27701
806.052	27816
806.194	27580
806.336	28112
806.478	27739
806.62	27686
806.762	27812
806.904	27934
807.046	28310
807.188	28211
807.33	28188
807.472	28166
807.614	28128
807.756	28215
807.898	28135
808.04	28097
808.182	28025
808.324	28063
808.465	28063
808.607	28329
808.749	28386
808.891	28443
809.033	28557
809.174	28630
809.316	28432
809.458	28470
809.6	28295
809.741	28470
809.883	28519
810.025	28733
810.166	28698
810.308	28698
810.45	28736
810.591	28535
810.733	28489
810.875	28470
811.016	28428
811.158	28299
811.299	28398
811.441	28500
811.582	28508
811.724	28386
811.865	28371
812.007	28249
812.148	28398
812.29	28451
812.431	28641
812.573	28793
812.714	28759
812.855	28892
812.997	29136
813.138	29254
813.279	29094
813.421	28934
813.562	28847
813.703	28698
813.845	28660
813.986	28272
814.127	28299
814.268	28082
814.41	28143
814.551	28036
814.692	28238
814.833	28211
814.974	28048
815.115	28135
815.256	27979
815.397	28048
815.539	27873
815.68	27888
815.821	27850
815.962	27998
816.103	27842
816.244	27766
816.385	27690
816.526	27739
816.666	27473
816.807	27496
816.948	27561
817.089	27515
817.23	27302
817.371	27363
817.512	27424
817.653	27260
817.793	27382
817.934	27466
818.075	27458
818.216	27458
818.356	27302
818.497	27272
818.638	27237
818.778	27005
818.919	27184
819.06	27093
819.2	27321
819.341	27351
819.481	27412
819.622	27618
819.762	27747
819.903	27618
820.043	27648
820.184	27443
820.324	27496
820.465	27583
820.605	27469
820.746	27545
820.886	27393
821.026	27355
821.167	27462
821.307	27496
821.447	27603
821.588	27393
821.728	27218
821.868	27058
822.008	26998
822.149	26902
822.289	26880
822.429	26549
822.569	26495
822.709	26636
822.849	26480
822.99	26499
823.13	26328
823.27	26511
823.41	26324
823.55	26134
823.69	26248
823.83	26282
823.97	26275
824.11	25997
824.25	26107
824.389	25989
824.529	26145
824.669	26172
824.809	26168
824.949	26138
825.089	26142
825.228	26031
825.368	25909
825.508	25902
825.648	25822
825.787	25932
825.927	25966
826.067	25761
826.206	25913
826.346	25868
826.485	26046
826.625	25841
826.765	26031
826.904	25769
827.044	25662
827.183	25822
827.323	25658
827.462	25677
827.601	25575
827.741	25613
827.88	25616
828.02	25479
828.159	25548
828.298	25689
828.437	25765
828.577	25681
828.716	25776
828.855	25544
828.994	25335
829.134	25320
829.273	25430
829.412	25316
829.551	25171
829.69	25346
829.829	25297
829.968	25263
830.107	25339
830.246	25350
830.385	25202
830.524	25156
830.663	25099
830.802	25000
830.941	24970
831.08	24890
831.219	24996
831.357	24977
831.496	25274
831.635	24859
831.774	24878
831.913	24764
832.051	24730
832.19	24658
832.329	24696
832.467	24757
832.606	24589
832.744	24486
832.883	24589
833.022	24471
833.16	24544
833.299	24559
833.437	24525
833.576	24639
833.714	24665
833.852	24700
833.991	24570
834.129	24658
834.267	24852
834.406	24658
834.544	24608
834.682	24623
834.821	24627
834.959	24913
835.097	24597
835.235	24620
835.373	24654
835.511	24627
835.65	24441
835.788	24505
835.926	24426
836.064	24369
836.202	24346
836.34	24544
836.478	24589
836.615	24570
836.753	24467
836.891	24525
837.029	24536
837.167	24464
837.305	24422
837.443	24304
837.58	24243
837.718	24277
837.856	24365
837.993	24243
838.131	24342
838.269	24186
838.406	24182
838.544	24121
838.681	23961
838.819	23946
838.956	23798
839.094	23809
839.231	23817
839.369	23996
839.506	24186
839.643	24072
839.781	23859
839.918	23710
840.055	23726
840.193	23657
840.33	23695
840.467	23726
840.604	23756
840.742	23870
840.879	23707
841.016	23680
841.153	23604
841.29	23764
841.427	23611
841.564	23741
841.701	23756
841.838	23627
841.975	23573
842.112	23562
842.249	23509
842.385	23486
842.522	23634
842.659	23558
842.796	23414
842.933	23391
843.069	23429
843.206	23315
843.343	23444
843.479	23509
843.616	23440
843.752	23303
843.889	23102
844.025	23349
844.162	23204
844.298	23299
844.435	23254
844.571	23136
844.708	23231
844.844	23307
844.98	23307
845.117	23284
845.253	23189
845.389	23117
845.525	23162
845.661	22961
845.798	22927
845.934	23067
846.07	22957
846.206	22965
846.342	22987
846.478	23003
846.614	22869
846.75	22580
846.886	22729
847.022	22641
847.158	22687
847.294	22664
847.429	22733
847.565	22702
847.701	22847
847.837	22344
847.972	22523
848.108	22550
848.244	22497
848.379	22421
848.515	22295
848.65	22238
848.786	22253
848.921	22261
849.057	22299
849.192	22348
849.328	22124
849.463	22310
849.598	22173
849.734	22169
849.869	22223
850.004	22059
850.14	22082
850.275	22143
850.41	21972
850.545	21930
850.68	21953
850.815	22128
850.95	22067
851.085	22253
851.22	22154
851.355	22154
851.49	22070
851.625	22002
851.76	21983
851.895	21903
852.03	21930
852.165	22101
852.299	21983
852.434	22112
852.569	22048
852.703	22040
852.838	21994
852.973	22124
853.107	22169
853.242	21979
853.376	21781
853.511	21728
853.645	21911
853.78	21968
853.914	21781
854.048	21797
854.183	21934
854.317	21960
854.451	22143
854.585	21926
854.72	21808
854.854	21975
854.988	21800
855.122	21793
855.256	21823
855.39	21892
855.524	21915
855.658	21827
855.792	21987
855.926	21842
856.06	21842
856.194	21983
856.327	21789
856.461	21892
856.595	21827
856.729	21827
856.862	21930
856.996	21785
857.13	21953
857.263	21956
857.397	22025
857.53	21838
857.664	21819
857.797	21979
857.931	21884
858.064	21930
858.197	21991
858.331	21838
858.464	21762
858.597	21759
858.731	21869
858.864	21865
858.997	21755
859.13	21831
859.263	21823
859.396	21972
859.529	21736
859.662	21770
859.795	21709
859.928	21907
860.061	22059
860.194	21983
860.327	21972
860.46	21804
860.592	21930
860.725	21987
860.858	21953
860.99	21781
861.123	21755
861.256	21781
861.388	21850
861.521	22531
861.653	21663
861.786	21660
861.918	21633
862.05	21667
862.183	21800
862.315	21690
862.447	21865
862.58	21709
862.712	21667
862.844	21538
862.976	21663
863.108	21705
863.24	21975
863.372	21519
863.504	21557
863.636	21507
863.768	21519
863.9	21492
864.032	21500
864.164	21561
864.296	21526
864.428	21641
864.559	21656
864.691	21682
864.823	21633
864.954	21492
865.086	21549
865.217	21458
865.349	21306
865.48	21386
865.612	21530
865.743	21663
865.875	21424
866.006	21424
866.137	21386
866.269	21485
866.4	21378
866.531	21256
866.662	21370
866.793	21325
866.924	21374
867.055	21580
867.186	21298
867.317	21344
867.448	21249
867.579	21363
867.71	21344
867.841	21336
867.972	21363
868.103	21424
868.233	21348
868.364	21325
868.495	21443
868.625	21557
868.756	21675
868.886	21587
869.017	21492
869.147	21705
869.278	21732
869.408	21580
869.539	21610
869.669	21679
869.799	21614
869.929	21739
870.06	21698
870.19	22029
870.32	21838
870.45	22112
870.58	22021
870.71	22086
870.84	22093
870.97	22006
871.1	21983
871.23	22078
871.36	22188
871.489	22109
871.619	22230
871.749	22207
871.879	22215
872.008	22204
872.138	22188
872.267	22196
872.397	22032
872.526	21949
872.656	22032
872.785	22021
872.915	22322
873.044	22493
873.173	22158
873.303	22291
873.432	22196
873.561	22299
873.69	22147
873.819	22230
873.948	22333
874.077	22356
874.206	22166
874.335	22371
874.464	22310
874.593	22409
874.722	22390
874.851	22417
874.979	22527
875.108	22493
875.237	22493
875.365	22436
875.494	22493
875.623	22421
875.751	22257
875.88	22512
876.008	22489
876.136	22592
876.265	22835
876.393	23010
876.521	22934
876.65	22831
876.778	22847
876.906	22862
877.034	22801
877.162	22778
877.29	22687
877.418	22752
877.546	22831
877.674	22759
877.802	22904
877.93	22774
878.058	22778
878.185	22637
878.313	22733
878.441	22797
878.568	22649
878.696	22729
878.824	22809
878.951	22949
879.079	23014
879.206	22957
879.333	22889
879.461	22873
879.588	22904
879.715	22961
879.842	23170
879.97	22713
880.097	22782
880.224	22550
880.351	22698
880.478	22672
880.605	22592
880.732	22611
880.859	22930
880.986	22660
881.112	22668
881.239	22394
881.366	22371
881.493	22226
881.619	22173
881.746	22173
881.872	22101
881.999	22086
882.125	22154
882.252	22261
882.378	22238
882.505	22253
882.631	22025
882.757	21808
882.883	21880
883.01	21937
883.136	21861
883.262	21819
883.388	21686
883.514	21937
883.64	21762
883.766	21785
883.892	21682
884.018	21660
884.143	21812
884.269	21835
884.395	21583
884.52	21545
884.646	21515
884.772	21477
884.897	21408
885.023	21660
885.148	21549
885.274	21694
885.399	21667
885.524	21622
885.65	21542
885.775	21477
885.9	21389
886.025	21644
886.15	21553
886.275	21481
886.4	21507
886.525	21393
886.65	21348
886.775	21355
886.9	21583
887.025	21789
887.149	21500
887.274	21317
887.399	21241
887.523	21313
887.648	21146
887.773	21138
887.897	21329
888.021	21447
888.146	21169
888.27	21340
888.395	21447
888.519	21416
888.643	21199
888.767	21268
888.891	21131
889.015	21169
889.139	21222
889.263	21077
889.387	21207
889.511	21321
889.635	21256
889.759	21017
889.883	20998
890.006	21188
890.13	21096
890.254	20994
890.377	20986
890.501	20921
890.624	20762
890.748	20944
890.871	20678
890.995	20674
891.118	20629
891.241	20640
891.364	20629
891.488	20716
891.611	20746
891.734	20777
891.857	20708
891.98	20765
892.103	20712
892.226	20746
892.349	20480
892.471	20511
892.594	20522
892.717	20568
892.839	20511
892.962	20590
893.085	20541
893.207	20374
893.33	20434
893.452	20461
893.575	20564
893.697	20545
893.819	20621
893.941	20762
894.064	20689
894.186	20507
894.308	20526
894.43	20526
894.552	20682
894.674	20594
894.796	20461
894.918	20492
895.04	20499
895.161	20480
895.283	20495
895.405	20419
895.526	20514
895.648	20549
895.769	20560
895.891	20530
896.012	20640
896.134	20640
896.255	20594
896.376	20473
896.498	20507
896.619	20583
896.74	20617
896.861	20587
896.982	20807
897.103	20956
897.224	20887
897.345	20777
897.466	20697
897.587	20758
897.708	20792
897.828	20765
897.949	20655
898.07	20568
898.19	20678
898.311	20914
898.431	20720
898.552	20701
898.672	20800
898.792	20849
898.913	20872
899.033	20621
899.153	20522
899.273	20347
899.393	20503
899.513	20579
899.633	20427
899.753	20484
899.873	20271
899.993	20351
900.113	20473
900.232	20465
900.352	20385
900.472	20313
900.591	20210
900.711	20229
900.83	20157
900.95	20256
901.069	20301
901.189	20126
901.308	19887
901.427	19868
901.546	19814
901.665	19936
901.784	19833
901.904	19769
902.023	19552
902.141	19487
902.26	19301
902.379	19483
902.498	19320
902.617	19236
902.735	19274
902.854	19301
902.973	19274
903.091	19034
903.21	18970
903.328	19072
903.446	18833
903.565	18886
903.683	18878
903.801	18791
903.919	18795
904.038	18810
904.156	18623
904.274	18696
904.392	18528
904.51	18597
904.627	18490
904.745	18563
904.863	18627
904.981	18319
905.098	18262
905.216	18296
905.334	18186
905.451	18308
905.569	18121
905.686	18281
905.803	18064
905.921	17965
906.038	18041
906.155	18015
906.272	17958
906.389	17965
906.506	17794
906.623	17805
906.74	17832
906.857	17726
906.974	17695
907.091	17760
907.208	17935
907.324	17828
907.441	17680
907.557	17619
907.674	17505
907.79	17551
907.907	17414
908.023	17497
908.139	17463
908.256	17372
908.372	17433
908.488	17303
908.604	17197
908.72	17166
908.836	17166
908.952	17132
909.068	17212
909.184	17261
909.3	17170
909.415	17128
909.531	17239
909.647	16900
909.762	16858
909.878	16858
909.993	16904
910.108	16911
910.224	16706
910.339	16854
910.454	16717
910.57	16748
910.685	16698
910.8	16908
910.915	16767
911.03	16698
911.145	16538
911.259	16436
911.374	16417
911.489	16424
911.604	16337
911.718	16169
911.833	16280
911.947	16166
912.062	16074
912.176	16162
912.291	16329
912.405	16192
912.519	16447
912.633	16451
912.748	16150
912.862	16166
912.976	16017
913.09	15956
913.204	16109
913.318	16116
913.431	16105
913.545	16154
913.659	16124
913.772	16021
913.886	15816
914	15846
914.113	15907
914.226	15945
914.34	15899
914.453	15694
914.566	15857
914.68	15682
914.793	15682
914.906	15466
915.019	15485
915.132	15370
915.245	15473
915.358	15519
915.47	15431
915.583	15549
915.696	15507
915.809	15572
915.921	15564
916.034	15370
916.146	15382
916.259	15260
916.371	15363
916.483	15340
916.595	15313
916.708	15241
916.82	15230
916.932	15218
917.044	15211
917.156	15154
917.268	14971
917.38	15154
917.491	14963
917.603	15100
917.715	15154
917.826	15169
917.938	14975
918.049	14876
918.161	14910
918.272	15112
918.384	15119
918.495	14994
918.606	14834
918.717	14868
918.828	14823
918.939	14815
919.05	14705
919.161	14712
919.272	14602
919.383	14617
919.494	14819
919.604	14994
919.715	14796
919.826	14746
919.936	14765
920.047	14769
920.157	14815
920.267	15017
920.378	14853
920.488	14800
920.598	15013
920.708	14990
920.818	15032
920.928	14956
921.038	15055
921.148	15058
921.258	14781
921.368	14716
921.477	14571
921.587	14484
921.697	14347
921.806	14514
921.916	14324
922.025	14225
922.134	14153
922.244	14172
922.353	14183
922.462	14069
922.571	13993
922.68	13788
922.789	13841
922.898	13791
923.007	13696
923.116	13837
923.224	13761
923.333	13738
923.442	13738
923.55	13613
923.659	13556
923.767	13727
923.876	13643
923.984	13620
924.092	13487
924.201	13533
924.309	13480
924.417	13514
924.525	13563
924.633	13392
924.741	14492
924.849	13255
924.956	13411
925.064	13259
925.172	13156
925.279	13232
925.387	13278
925.494	13209
925.602	13369
925.709	13236
925.816	13171
925.924	13175
926.031	13240
926.138	13190
926.245	13183
926.352	13095
926.459	13038
926.566	13228
926.673	13000
926.779	12996
926.886	12901
926.993	12722
927.099	12741
927.206	12722
927.312	12700
927.419	12768
927.525	12795
927.631	12802
927.737	12715
927.843	12646
927.95	12521
928.056	12525
928.162	12532
928.267	12597
928.373	13198
928.479	12620
928.585	12319
928.69	12582
928.796	12555
928.901	12372
929.007	12258
929.112	12486
929.218	12247
929.323	12372
929.428	12330
929.533	12388
929.638	12273
929.743	12224
929.848	12243
929.953	12270
930.058	12110
930.163	11954
930.267	12015
930.372	12110
930.477	11920
930.581	12133
930.685	12022
930.79	11840
930.894	11866
930.998	11783
931.103	11973
931.207	11680
931.311	11532
931.415	11547
931.519	11292
931.623	11261
