Data from test_V78500241_1330.txt Node
Date: Fri Mar 25 15:51:00 CST 2022
User: usil
Spectrometer: V785-0024
Trigger mode: 0
Integration Time (sec): 4.000000E-1
Scans to average: 1
Nonlinearity correction enabled: false
Boxcar width: 0
Storing dark spectrum: false
XAxis mode: Wavelengths
Number of Pixels in Spectrum: 1024
>>>>>Begin Spectral Data<<<<<
801.071	28261
801.214	28116
801.356	27960
801.499	27930
801.641	27804
801.783	27732
801.926	27694
802.068	27873
802.211	27766
802.353	27587
802.496	27431
802.638	27583
802.78	27500
802.923	27310
803.065	27355
803.208	27355
803.35	27439
803.492	27705
803.635	27603
803.777	27561
803.919	27762
804.061	27937
804.204	27603
804.346	27667
804.488	27633
804.63	27629
804.773	27595
804.915	27701
805.057	27682
805.199	27808
805.341	27770
805.483	27823
805.626	27960
805.768	27743
805.91	27857
806.052	27793
806.194	27705
806.336	27956
806.478	27926
806.62	27884
806.762	28032
806.904	28017
807.046	28192
807.188	28154
807.33	28211
807.472	28318
807.614	28230
807.756	28409
807.898	28139
808.04	28169
808.182	27956
808.324	28116
808.465	28185
808.607	28333
808.749	28428
808.891	28596
809.033	28550
809.174	28675
809.316	28398
809.458	28516
809.6	28371
809.741	28401
809.883	28630
810.025	28828
810.166	28736
810.308	28786
810.45	28839
810.591	28691
810.733	28451
810.875	28550
811.016	28424
811.158	28508
811.299	28615
811.441	28691
811.582	28645
811.724	28424
811.865	28599
812.007	28580
812.148	28497
812.29	28485
812.431	28656
812.573	28801
812.714	28809
812.855	29064
812.997	29159
813.138	29105
813.279	29044
813.421	29064
813.562	28888
813.703	28888
813.845	28596
813.986	28428
814.127	28230
814.268	28257
814.41	28234
814.551	28173
814.692	28280
814.833	28162
814.974	28181
815.115	28188
815.256	28086
815.397	27964
815.539	28086
815.68	27991
815.821	27918
815.962	27960
816.103	27911
816.244	27861
816.385	27804
816.526	27709
816.666	27641
816.807	27538
816.948	27591
817.089	27694
817.23	27694
817.371	27454
817.512	27427
817.653	27458
817.793	27606
817.934	27393
818.075	27336
818.216	27458
818.356	27427
818.497	27218
818.638	27275
818.778	27260
818.919	27264
819.06	27291
819.2	27386
819.341	27488
819.481	27408
819.622	27698
819.762	27835
819.903	27850
820.043	27507
820.184	27682
820.324	27629
820.465	27625
820.605	27641
820.746	27549
820.886	27424
821.026	27583
821.167	27519
821.307	27530
821.447	27545
821.588	27458
821.728	27336
821.868	27180
822.008	26956
822.149	27020
822.289	26887
822.429	26811
822.569	26648
822.709	26674
822.849	26526
822.99	26499
823.13	26366
823.27	26362
823.41	26244
823.55	26142
823.69	26381
823.83	26313
823.97	26214
824.11	26069
824.25	26096
824.389	26134
824.529	26183
824.669	26149
824.809	26191
824.949	26271
825.089	26244
825.228	26046
825.368	25989
825.508	25921
825.648	26024
825.787	26081
825.927	26088
826.067	26024
826.206	26001
826.346	25982
826.485	26088
826.625	25982
826.765	26073
826.904	26157
827.044	25742
827.183	25898
827.323	25719
827.462	25700
827.601	25712
827.741	25727
827.88	25959
828.02	25582
828.159	25658
828.298	25750
828.437	25822
828.577	25681
828.716	25871
828.855	25510
828.994	25559
829.134	25426
829.273	25464
829.412	25411
829.551	25411
829.69	25438
829.829	25502
829.968	25468
830.107	25479
830.246	25499
830.385	25381
830.524	25369
830.663	25369
830.802	25164
830.941	25194
831.08	25069
831.219	25027
831.357	25194
831.496	25304
831.635	25179
831.774	25183
831.913	24852
832.051	24833
832.19	24871
832.329	24951
832.467	24890
832.606	24665
832.744	24688
832.883	24741
833.022	24703
833.16	24703
833.299	24719
833.437	24703
833.576	24719
833.714	24802
833.852	24909
833.991	24897
834.129	24878
834.267	24810
834.406	24772
834.544	24772
834.682	24753
834.821	24833
834.959	24920
835.097	24639
835.235	24886
835.373	24791
835.511	24852
835.65	24757
835.788	24715
835.926	24513
836.064	24422
836.202	24350
836.34	24658
836.478	24726
836.615	24574
836.753	24521
836.891	24593
837.029	24612
837.167	24521
837.305	24486
837.443	24475
837.58	24498
837.718	24509
837.856	24441
837.993	24289
838.131	24407
838.269	24281
838.406	24441
838.544	24338
838.681	24182
838.819	23996
838.956	23920
839.094	23935
839.231	24018
839.369	24068
839.506	24304
839.643	24091
839.781	23965
839.918	23764
840.055	23809
840.193	23855
840.33	23783
840.467	23828
840.604	23821
840.742	24041
840.879	23802
841.016	23756
841.153	23722
841.29	23813
841.427	23737
841.564	23912
841.701	23745
841.838	23904
841.975	23809
842.112	23779
842.249	23646
842.385	23486
842.522	23847
842.659	23551
842.796	23577
842.933	23600
843.069	23543
843.206	23566
843.343	23608
843.479	23665
843.616	23566
843.752	23307
843.889	23353
844.025	23395
844.162	23315
844.298	23417
844.435	23296
844.571	23372
844.708	23402
844.844	23463
844.98	23482
845.117	23387
845.253	23258
845.389	23010
845.525	23337
845.661	23185
845.798	23064
845.934	23170
846.07	23151
846.206	23208
846.342	23288
846.478	23067
846.614	22904
846.75	22664
846.886	22881
847.022	22801
847.158	22672
847.294	22744
847.429	22896
847.565	22736
847.701	23029
847.837	22615
847.972	22489
848.108	22641
848.244	22512
848.379	22493
848.515	22497
848.65	22329
848.786	22344
848.921	22310
849.057	22580
849.192	22478
849.328	22459
849.463	22546
849.598	22409
849.734	22390
849.869	22226
850.004	22234
850.14	22261
850.275	22181
850.41	22070
850.545	22090
850.68	22086
850.815	22185
850.95	22097
851.085	22257
851.22	22253
851.355	22051
851.49	22238
851.625	22139
851.76	22131
851.895	22048
852.03	22112
852.165	22109
852.299	22253
852.434	22257
852.569	22150
852.703	22207
852.838	22249
852.973	22306
853.107	22253
853.242	22086
853.376	21937
853.511	21949
853.645	21907
853.78	22063
853.914	21972
854.048	21918
854.183	21975
854.317	22032
854.451	22173
854.585	21979
854.72	21983
854.854	22036
854.988	21816
855.122	22032
855.256	21865
855.39	21960
855.524	21991
855.658	22002
855.792	22048
855.926	21998
856.06	22074
856.194	22059
856.327	21964
856.461	21979
856.595	21960
856.729	21968
856.862	22097
856.996	21972
857.13	22135
857.263	22074
857.397	22150
857.53	22013
857.664	22093
857.797	22021
857.931	22093
858.064	22128
858.197	22131
858.331	22051
858.464	21968
858.597	21907
858.731	22021
858.864	22120
858.997	21873
859.13	22021
859.263	21998
859.396	22078
859.529	21968
859.662	21975
859.795	21937
859.928	21975
860.061	22097
860.194	22253
860.327	21998
860.46	22074
860.592	22139
860.725	22090
860.858	22135
860.99	21975
861.123	21922
861.256	21937
861.388	22025
861.521	22706
861.653	21800
861.786	21781
861.918	21759
862.05	21838
862.183	21846
862.315	21899
862.447	21949
862.58	21884
862.712	21781
862.844	21675
862.976	21793
863.108	21751
863.24	22032
863.372	21660
863.504	21652
863.636	21614
863.768	21720
863.9	21720
864.032	21698
864.164	21622
864.296	21739
864.428	21823
864.559	21739
864.691	21747
864.823	21698
864.954	21762
865.086	21656
865.217	21637
865.349	21492
865.48	21450
865.612	21637
865.743	21705
865.875	21599
866.006	21542
866.137	21583
866.269	21652
866.4	21519
866.531	21431
866.662	21496
866.793	21481
866.924	21538
867.055	21507
867.186	21523
867.317	21447
867.448	21450
867.579	21431
867.71	21374
867.841	21447
867.972	21428
868.103	21466
868.233	21485
868.364	21428
868.495	21622
868.625	21755
868.756	21903
868.886	21633
869.017	21633
869.147	21827
869.278	21922
869.408	21759
869.539	21637
869.669	21831
869.799	21819
869.929	21838
870.06	21831
870.19	21975
870.32	22086
870.45	22226
870.58	22204
870.71	22116
870.84	22204
870.97	22185
871.1	22093
871.23	22322
871.36	22219
871.489	22219
871.619	22246
871.749	22272
871.879	22382
872.008	22508
872.138	22382
872.267	22466
872.397	22196
872.526	22185
872.656	22044
872.785	22200
872.915	22310
873.044	22428
873.173	22356
873.303	22413
873.432	22519
873.561	22398
873.69	22379
873.819	22470
873.948	22470
874.077	22337
874.206	22272
874.335	22299
874.464	22497
874.593	22573
874.722	22493
874.851	22615
874.979	22523
875.108	22649
875.237	22569
875.365	22432
875.494	22656
875.623	22717
875.751	22649
875.88	22573
876.008	22626
876.136	22675
876.265	22949
876.393	23132
876.521	22984
876.65	23048
876.778	22972
876.906	22843
877.034	22850
877.162	22911
877.29	22957
877.418	22934
877.546	22854
877.674	22908
877.802	22961
877.93	22831
878.058	22889
878.185	22763
878.313	22965
878.441	22900
878.568	22729
878.696	22850
878.824	23006
878.951	23037
879.079	23029
879.206	23143
879.333	23086
879.461	22915
879.588	23052
879.715	22995
879.842	23197
879.97	22934
880.097	22694
880.224	22752
880.351	22748
880.478	22584
880.605	22725
880.732	22683
880.859	22991
880.986	22793
881.112	22755
881.239	22611
881.366	22512
881.493	22344
881.619	22249
881.746	22436
881.872	22413
881.999	22310
882.125	22177
882.252	22386
882.378	22386
882.505	22421
882.631	22090
882.757	21991
882.883	21975
883.01	22048
883.136	22063
883.262	21793
883.388	21736
883.514	21975
883.64	22067
883.766	21888
883.892	21755
884.018	21804
884.143	21956
884.269	21930
884.395	21690
884.52	21466
884.646	21610
884.772	21526
884.897	21622
885.023	21732
885.148	21759
885.274	21755
885.399	21690
885.524	21625
885.65	21542
885.775	21572
885.9	21614
886.025	21713
886.15	21629
886.275	21625
886.4	21523
886.525	21614
886.65	21568
886.775	21500
886.9	21774
887.025	21789
887.149	21633
887.274	21458
887.399	21313
887.523	21389
887.648	21249
887.773	21302
887.897	21428
888.021	21477
888.146	21367
888.27	21424
888.395	21336
888.519	21332
888.643	21519
888.767	21416
888.891	21310
889.015	21249
889.139	21230
889.263	21165
889.387	21233
889.511	21351
889.635	21268
889.759	21222
889.883	21150
890.006	21344
890.13	21192
890.254	21176
890.377	21131
890.501	20902
890.624	20826
890.748	20956
890.871	20872
890.995	20689
891.118	20670
891.241	20769
891.364	20792
891.488	20864
891.611	20724
891.734	20823
891.857	20689
891.98	20712
892.103	20815
892.226	20811
892.349	20625
892.471	20507
892.594	20678
892.717	20754
892.839	20609
892.962	20663
893.085	20746
893.207	20682
893.33	20495
893.452	20644
893.575	20651
893.697	20568
893.819	20785
893.941	20769
894.064	20743
894.186	20613
894.308	20545
894.43	20823
894.552	20868
894.674	20625
894.796	20514
894.918	20625
895.04	20579
895.161	20697
895.283	20682
895.405	20594
895.526	20575
895.648	20587
895.769	20689
895.891	20648
896.012	20636
896.134	20682
896.255	20568
896.376	20621
896.498	20613
896.619	20712
896.74	20537
896.861	20708
896.982	20811
897.103	21017
897.224	20948
897.345	20921
897.466	20899
897.587	20769
897.708	20864
897.828	20971
897.949	20921
898.07	20720
898.19	20693
898.311	20979
898.431	20769
898.552	20788
898.672	20781
898.792	20967
898.913	20853
899.033	20735
899.153	20613
899.273	20609
899.393	20575
899.513	20731
899.633	20651
899.753	20583
899.873	20450
899.993	20743
900.113	20503
900.232	20461
900.352	20549
900.472	20469
900.591	20393
900.711	20313
900.83	20339
900.95	20476
901.069	20427
901.189	20252
901.308	20096
901.427	19967
901.546	19944
901.665	19906
901.784	20001
901.904	19731
902.023	19818
902.141	19499
902.26	19430
902.379	19613
902.498	19377
902.617	19403
902.735	19502
902.854	19422
902.973	19335
903.091	19187
903.21	19072
903.328	18966
903.446	18973
903.565	18932
903.683	18943
903.801	18688
903.919	18776
904.038	18840
904.156	18654
904.274	18692
904.392	18722
904.51	18593
904.627	18646
904.745	18764
904.863	18612
904.981	18528
905.098	18365
905.216	18353
905.334	18346
905.451	18285
905.569	18216
905.686	18342
905.803	18365
905.921	18213
906.038	18281
906.155	18167
906.272	18106
906.389	17996
906.506	17859
906.623	17931
906.74	17901
906.857	17703
906.974	17775
907.091	17927
907.208	17977
907.324	17969
907.441	17695
907.557	17577
907.674	17581
907.79	17600
907.907	17532
908.023	17608
908.139	17619
908.256	17558
908.372	17512
908.488	17459
908.604	17372
908.72	17288
908.836	17258
908.952	17143
909.068	17277
909.184	17353
909.3	17341
909.415	17364
909.531	17299
909.647	17064
909.762	16942
909.878	17037
909.993	16900
910.108	17003
910.224	16968
910.339	16965
910.454	16877
910.57	16930
910.685	16675
910.8	17121
910.915	17003
911.03	16850
911.145	16607
911.259	16599
911.374	16569
911.489	16531
911.604	16485
911.718	16367
911.833	16409
911.947	16325
912.062	16135
912.176	16367
912.291	16303
912.405	16325
912.519	16516
912.633	16538
912.748	16436
912.862	16234
912.976	16162
913.09	16048
913.204	16090
913.318	16246
913.431	16280
913.545	16166
913.659	16249
913.772	16124
913.886	16044
914	15899
914.113	15968
914.226	16078
914.34	16013
914.453	15911
914.566	15998
914.68	15793
914.793	15781
914.906	15580
915.019	15557
915.132	15549
915.245	15519
915.358	15709
915.47	15606
915.583	15519
915.696	15576
915.809	15637
915.921	15717
916.034	15523
916.146	15428
916.259	15359
916.371	15561
916.483	15481
916.595	15374
916.708	15359
916.82	15412
916.932	15249
917.044	15336
917.156	15260
917.268	15116
917.38	15077
917.491	15146
917.603	15268
917.715	15256
917.826	15386
917.938	15260
918.049	14948
918.161	15074
918.272	15294
918.384	15249
918.495	15154
918.606	14979
918.717	14998
918.828	14937
918.939	14975
919.05	14887
919.161	14853
919.272	14750
919.383	14788
919.494	14914
919.604	14994
919.715	14963
919.826	14849
919.936	14823
920.047	14937
920.157	14891
920.267	15074
920.378	14982
920.488	14937
920.598	15119
920.708	15207
920.818	15013
920.928	15070
921.038	15161
921.148	15093
921.258	14823
921.368	14731
921.477	14621
921.587	14655
921.697	14514
921.806	14636
921.916	14473
922.025	14339
922.134	14225
922.244	14237
922.353	14298
922.462	14168
922.571	14058
922.68	14031
922.789	13963
922.898	13913
923.007	13795
923.116	13913
923.224	13811
923.333	13791
923.442	13677
923.55	13670
923.659	13689
923.767	13742
923.876	13643
923.984	13723
924.092	13616
924.201	13677
924.309	13700
924.417	13708
924.525	13499
924.633	13552
924.741	14476
924.849	13381
924.956	13495
925.064	13335
925.172	13202
925.279	13274
925.387	13320
925.494	13373
925.602	13445
925.709	13285
925.816	13266
925.924	13228
926.031	13304
926.138	13175
926.245	13217
926.352	13050
926.459	13274
926.566	13297
926.673	13160
926.779	13091
926.886	13046
926.993	12901
927.099	12875
927.206	12776
927.312	12787
927.419	12825
927.525	12852
927.631	12867
927.737	12650
927.843	12658
927.95	12639
928.056	12620
928.162	12631
928.267	12745
928.373	13225
928.479	12707
928.585	12494
928.69	12555
928.796	12631
928.901	12612
929.007	12315
929.112	12532
929.218	12498
929.323	12319
929.428	12445
929.533	12486
929.638	12281
929.743	12391
929.848	12388
929.953	12369
930.058	12311
930.163	12171
930.267	12106
930.372	12205
930.477	12007
930.581	12239
930.685	12091
930.79	11939
930.894	11939
930.998	11901
931.103	12011
931.207	11699
931.311	11695
931.415	11501
931.519	11383
931.623	11296
