Data from test_V78500241_2372.txt Node
Date: Fri Mar 25 15:58:13 CST 2022
User: usil
Spectrometer: V785-0024
Trigger mode: 0
Integration Time (sec): 4.000000E-1
Scans to average: 1
Nonlinearity correction enabled: false
Boxcar width: 0
Storing dark spectrum: false
XAxis mode: Wavelengths
Number of Pixels in Spectrum: 1024
>>>>>Begin Spectral Data<<<<<
801.071	29003
801.214	28923
801.356	28664
801.499	28634
801.641	28512
801.783	28489
801.926	28554
802.068	28485
802.211	28538
802.353	28440
802.496	28329
802.638	28219
802.78	28131
802.923	27953
803.065	28139
803.208	28078
803.35	28322
803.492	28451
803.635	28405
803.777	28272
803.919	28459
804.061	28797
804.204	28542
804.346	28504
804.488	28360
804.63	28535
804.773	28462
804.915	28303
805.057	28592
805.199	28375
805.341	28630
805.483	28725
805.626	28538
805.768	28489
805.91	28557
806.052	28584
806.194	28466
806.336	28748
806.478	28622
806.62	28557
806.762	28713
806.904	28896
807.046	29105
807.188	29094
807.33	29124
807.472	29064
807.614	29014
807.756	29075
807.898	28938
808.04	28896
808.182	28938
808.324	28949
808.465	29006
808.607	29280
808.749	29265
808.891	29318
809.033	29531
809.174	29360
809.316	29345
809.458	29216
809.6	29227
809.741	29425
809.883	29535
810.025	29661
810.166	29493
810.308	29577
810.45	29570
810.591	29554
810.733	29326
810.875	29349
811.016	29261
811.158	29395
811.299	29474
811.441	29467
811.582	29528
811.724	29387
811.865	29337
812.007	29185
812.148	29356
812.29	29448
812.431	29535
812.573	29722
812.714	29752
812.855	29855
812.997	29908
813.138	30243
813.279	30095
813.421	29767
813.562	29764
813.703	29630
813.845	29638
813.986	29410
814.127	29094
814.268	29029
814.41	29102
814.551	28862
814.692	29197
814.833	29010
814.974	29121
815.115	29086
815.256	28915
815.397	29083
815.539	28923
815.68	28873
815.821	28702
815.962	28873
816.103	28877
816.244	28740
816.385	28615
816.526	28668
816.666	28409
816.807	28470
816.948	28382
817.089	28436
817.23	28295
817.371	28333
817.512	28284
817.653	28386
817.793	28356
817.934	28272
818.075	28519
818.216	28424
818.356	28390
818.497	28204
818.638	28063
818.778	28200
818.919	28367
819.06	28261
819.2	28257
819.341	28344
819.481	28470
819.622	28565
819.762	28679
819.903	28622
820.043	28645
820.184	28462
820.324	28607
820.465	28557
820.605	28580
820.746	28447
820.886	28280
821.026	28637
821.167	28398
821.307	28481
821.447	28462
821.588	28268
821.728	28291
821.868	27922
822.008	27724
822.149	27903
822.289	27781
822.429	27675
822.569	27568
822.709	27466
822.849	27393
822.99	27427
823.13	27412
823.27	27302
823.41	27226
823.55	27127
823.69	27226
823.83	27264
823.97	27146
824.11	27020
824.25	26963
824.389	26918
824.529	27024
824.669	27039
824.809	27150
824.949	27135
825.089	27039
825.228	27157
825.368	26883
825.508	26880
825.648	27009
825.787	27013
825.927	26902
826.067	26929
826.206	26773
826.346	26845
826.485	26952
826.625	26826
826.765	26990
826.904	26952
827.044	26560
827.183	26815
827.323	26549
827.462	26689
827.601	26750
827.741	26651
827.88	26754
828.02	26564
828.159	26735
828.298	26609
828.437	26632
828.577	26587
828.716	26682
828.855	26492
828.994	26294
829.134	26317
829.273	26309
829.412	26244
829.551	26267
829.69	26176
829.829	26282
829.968	26393
830.107	26347
830.246	26366
830.385	26267
830.524	26240
830.663	26172
830.802	26145
830.941	26031
831.08	25818
831.219	25959
831.357	26008
831.496	26039
831.635	25879
831.774	25811
831.913	25959
832.051	25719
832.19	25613
832.329	25700
832.467	25597
832.606	25540
832.744	25586
832.883	25590
833.022	25556
833.16	25635
833.299	25483
833.437	25514
833.576	25753
833.714	25609
833.852	25666
833.991	25746
834.129	25658
834.267	25651
834.406	25772
834.544	25689
834.682	25639
834.821	25529
834.959	25833
835.097	25540
835.235	25639
835.373	25605
835.511	25643
835.65	25457
835.788	25578
835.926	25350
836.064	25339
836.202	25369
836.34	25510
836.478	25510
836.615	25419
836.753	25358
836.891	25544
837.029	25495
837.167	25499
837.305	25362
837.443	25324
837.58	25282
837.718	25358
837.856	25316
837.993	25266
838.131	25369
838.269	25145
838.406	25156
838.544	25088
838.681	24905
838.819	24897
838.956	24749
839.094	24749
839.231	24814
839.369	24958
839.506	25095
839.643	25023
839.781	24741
839.918	24776
840.055	24726
840.193	24642
840.33	24563
840.467	24608
840.604	24639
840.742	24821
840.879	24585
841.016	24593
841.153	24521
841.29	24791
841.427	24661
841.564	24734
841.701	24528
841.838	24505
841.975	24589
842.112	24509
842.249	24445
842.385	24418
842.522	24547
842.659	24426
842.796	24479
842.933	24509
843.069	24365
843.206	24380
843.343	24414
843.479	24418
843.616	24315
843.752	24232
843.889	24311
844.025	24224
844.162	24144
844.298	24224
844.435	24159
844.571	24140
844.708	24152
844.844	24281
844.98	24422
845.117	24216
845.253	24163
845.389	23973
845.525	24038
845.661	24030
845.798	23946
845.934	24102
846.07	23794
846.206	23893
846.342	24083
846.478	23851
846.614	23748
846.75	23547
846.886	23657
847.022	23649
847.158	23714
847.294	23547
847.429	23695
847.565	23520
847.701	23843
847.837	23417
847.972	23376
848.108	23391
848.244	23448
848.379	23166
848.515	23029
848.65	23231
848.786	23303
848.921	23162
849.057	23383
849.192	23284
849.328	23235
849.463	23258
849.598	23128
849.734	23155
849.869	23025
850.004	22942
850.14	22968
850.275	22869
850.41	22900
850.545	22942
850.68	22790
850.815	23064
850.95	22987
851.085	23193
851.22	23071
851.355	23022
851.49	22965
851.625	23014
851.76	23006
851.895	22820
852.03	22828
852.165	23048
852.299	23048
852.434	23064
852.569	23075
852.703	23174
852.838	22995
852.973	23086
853.107	23048
853.242	22976
853.376	22710
853.511	22679
853.645	22778
853.78	22866
853.914	22828
854.048	22839
854.183	22744
854.317	22805
854.451	22968
854.585	22869
854.72	22843
854.854	22957
854.988	22725
855.122	22843
855.256	22561
855.39	22866
855.524	22854
855.658	22797
855.792	22599
855.926	22752
856.06	22812
856.194	22980
856.327	22809
856.461	22778
856.595	22793
856.729	22835
856.862	22866
856.996	22881
857.13	22919
857.263	22889
857.397	22778
857.53	22759
857.664	22911
857.797	22869
857.931	22877
858.064	22793
858.197	22805
858.331	22812
858.464	22809
858.597	22713
858.731	22782
858.864	22733
858.997	22679
859.13	22786
859.263	22736
859.396	22904
859.529	22805
859.662	22717
859.795	22839
859.928	22767
860.061	22873
860.194	23010
860.327	22904
860.46	22809
860.592	22896
860.725	22972
860.858	22995
860.99	22767
861.123	22843
861.256	22683
861.388	22843
861.521	23425
861.653	22656
861.786	22645
861.918	22675
862.05	22653
862.183	22649
862.315	22668
862.447	22790
862.58	22698
862.712	22611
862.844	22417
862.976	22554
863.108	22653
863.24	22999
863.372	22337
863.504	22531
863.636	22489
863.768	22538
863.9	22493
864.032	22386
864.164	22421
864.296	22546
864.428	22596
864.559	22599
864.691	22493
864.823	22413
864.954	22565
865.086	22508
865.217	22322
865.349	22306
865.48	22440
865.612	22421
865.743	22557
865.875	22337
866.006	22318
866.137	22348
866.269	22493
866.4	22337
866.531	22261
866.662	22337
866.793	22390
866.924	22424
867.055	22310
867.186	22261
867.317	22284
867.448	22204
867.579	22322
867.71	22204
867.841	22284
867.972	22276
868.103	22287
868.233	22360
868.364	22322
868.495	22276
868.625	22489
868.756	22653
868.886	22360
869.017	22634
869.147	22561
869.278	22618
869.408	22596
869.539	22542
869.669	22565
869.799	22596
869.929	22538
870.06	22599
870.19	22793
870.32	22839
870.45	22778
870.58	22915
870.71	23033
870.84	23033
870.97	22961
871.1	22877
871.23	23056
871.36	23079
871.489	22877
871.619	23010
871.749	23041
871.879	23121
872.008	23239
872.138	23113
872.267	23208
872.397	22930
872.526	22923
872.656	22892
872.785	23010
872.915	23147
873.044	23334
873.173	23166
873.303	23170
873.432	23220
873.561	23227
873.69	23128
873.819	23083
873.948	23216
874.077	23102
874.206	23006
874.335	23113
874.464	23250
874.593	23353
874.722	23330
874.851	23376
874.979	23471
875.108	23349
875.237	23334
875.365	23258
875.494	23356
875.623	23452
875.751	23307
875.88	23337
876.008	23600
876.136	23463
876.265	23760
876.393	23847
876.521	23855
876.65	23817
876.778	23771
876.906	23687
877.034	23649
877.162	23699
877.29	23684
877.418	23764
877.546	23745
877.674	23718
877.802	23665
877.93	23653
878.058	23676
878.185	23646
878.313	23672
878.441	23573
878.568	23444
878.696	23596
878.824	23672
878.951	23665
879.079	23920
879.206	24072
879.333	23965
879.461	23802
879.588	23741
879.715	23783
879.842	24064
879.97	23786
880.097	23516
880.224	23459
880.351	23509
880.478	23604
880.605	23490
880.732	23421
880.859	23756
880.986	23444
881.112	23474
881.239	23356
881.366	23265
881.493	23185
881.619	23025
881.746	23113
881.872	23174
881.999	23018
882.125	23075
882.252	23124
882.378	23105
882.505	23105
882.631	22850
882.757	22748
882.883	22809
883.01	22736
883.136	22706
883.262	22637
883.388	22653
883.514	22809
883.64	22721
883.766	22603
883.892	22379
884.018	22478
884.143	22702
884.269	22759
884.395	22424
884.52	22318
884.646	22481
884.772	22265
884.897	22268
885.023	22337
885.148	22424
885.274	22470
885.399	22432
885.524	22356
885.65	22405
885.775	22379
885.9	22181
886.025	22405
886.15	22497
886.275	22215
886.4	22325
886.525	22295
886.65	22299
886.775	22234
886.9	22440
887.025	22660
887.149	22310
887.274	22147
887.399	22078
887.523	22059
887.648	22051
887.773	21907
887.897	22226
888.021	22090
888.146	22036
888.27	22185
888.395	22120
888.519	22139
888.643	22097
888.767	22135
888.891	22078
889.015	21838
889.139	21926
889.263	21941
889.387	22059
889.511	22181
889.635	21987
889.759	21873
889.883	21850
890.006	21861
890.13	21987
890.254	21770
890.377	21778
890.501	21701
890.624	21492
890.748	21789
890.871	21523
890.995	21405
891.118	21462
891.241	21462
891.364	21481
891.488	21568
891.611	21526
891.734	21477
891.857	21507
891.98	21682
892.103	21477
892.226	21363
892.349	21287
892.471	21199
892.594	21416
892.717	21473
892.839	21317
892.962	21336
893.085	21355
893.207	21344
893.33	21207
893.452	21256
893.575	21283
893.697	21321
893.819	21492
893.941	21511
894.064	21370
894.186	21256
894.308	21268
894.43	21393
894.552	21397
894.674	21405
894.796	21268
894.918	21329
895.04	21329
895.161	21416
895.283	21264
895.405	21180
895.526	21344
895.648	21306
895.769	21351
895.891	21310
896.012	21389
896.134	21462
896.255	21298
896.376	21294
896.498	21447
896.619	21237
896.74	21348
896.861	21378
896.982	21747
897.103	21823
897.224	21591
897.345	21504
897.466	21355
897.587	21469
897.708	21618
897.828	21523
897.949	21336
898.07	21408
898.19	21439
898.311	21587
898.431	21485
898.552	21447
898.672	21553
898.792	21511
898.913	21504
899.033	21393
899.153	21291
899.273	21268
899.393	21218
899.513	21226
899.633	21252
899.753	21169
899.873	21245
899.993	21188
900.113	21226
900.232	21264
900.352	21108
900.472	20998
900.591	21009
900.711	20990
900.83	20994
900.95	21020
901.069	21013
901.189	20941
901.308	20602
901.427	20682
901.546	20670
901.665	20556
901.784	20457
901.904	20343
902.023	20320
902.141	20134
902.26	20027
902.379	20187
902.498	20077
902.617	19997
902.735	20130
902.854	19967
902.973	20043
903.091	19708
903.21	19658
903.328	19795
903.446	19712
903.565	19578
903.683	19552
903.801	19426
903.919	19499
904.038	19441
904.156	19282
904.274	19354
904.392	19251
904.51	19251
904.627	19316
904.745	19388
904.863	19278
904.981	19095
905.098	18989
905.216	18932
905.334	18981
905.451	18981
905.569	18890
905.686	18973
905.803	18985
905.921	18730
906.038	18825
906.155	18730
906.272	18544
906.389	18711
906.506	18464
906.623	18376
906.74	18486
906.857	18357
906.974	18429
907.091	18479
907.208	18540
907.324	18490
907.441	18338
907.557	18285
907.674	18140
907.79	18110
907.907	18106
908.023	18273
908.139	18155
908.256	18251
908.372	18121
908.488	18049
908.604	17870
908.72	17859
908.836	17889
908.952	17802
909.068	17958
909.184	17988
909.3	17874
909.415	17946
909.531	17817
909.647	17741
909.762	17558
909.878	17463
909.993	17604
910.108	17585
910.224	17520
910.339	17501
910.454	17444
910.57	17406
910.685	17307
910.8	17619
910.915	17585
911.03	17239
911.145	17117
911.259	17162
911.374	17102
911.489	17121
911.604	17105
911.718	16843
911.833	16968
911.947	16812
912.062	16710
912.176	16778
912.291	16892
912.405	16896
912.519	17117
912.633	17136
912.748	16831
912.862	16862
912.976	16725
913.09	16603
913.204	16694
913.318	16733
913.431	16660
913.545	16767
913.659	16809
913.772	16713
913.886	16478
914	16405
914.113	16592
914.226	16687
914.34	16561
914.453	16356
914.566	16462
914.68	16379
914.793	16318
914.906	16158
915.019	16082
915.132	15987
915.245	15991
915.358	16059
915.47	16010
915.583	16036
915.696	16097
915.809	16196
915.921	16101
916.034	15956
916.146	15915
916.259	15964
916.371	16036
916.483	16082
916.595	15831
916.708	15892
916.82	15819
916.932	15793
917.044	15808
917.156	15694
917.268	15739
917.38	15694
917.491	15675
917.603	15690
917.715	15770
917.826	15857
917.938	15652
918.049	15447
918.161	15580
918.272	15755
918.384	15675
918.495	15530
918.606	15378
918.717	15355
918.828	15485
918.939	15466
919.05	15298
919.161	15397
919.272	15249
919.383	15214
919.494	15447
919.604	15549
919.715	15351
919.826	15306
919.936	15382
920.047	15435
920.157	15389
920.267	15439
920.378	15359
920.488	15317
920.598	15553
920.708	15519
920.818	15473
920.928	15431
921.038	15603
921.148	15637
921.258	15169
921.368	15249
921.477	15066
921.587	15070
921.697	14998
921.806	15097
921.916	14986
922.025	14769
922.134	14708
922.244	14689
922.353	14746
922.462	14632
922.571	14552
922.68	14343
922.789	14294
922.898	14370
923.007	14317
923.116	14381
923.224	14294
923.333	14343
923.442	14100
923.55	14187
923.659	14206
923.767	14191
923.876	14126
923.984	14183
924.092	14031
924.201	14027
924.309	14039
924.417	14096
924.525	14073
924.633	14031
924.741	14941
924.849	13818
924.956	13913
925.064	13822
925.172	13643
925.279	13750
925.387	13651
925.494	13868
925.602	13849
925.709	13814
925.816	13662
925.924	13693
926.031	13780
926.138	13639
926.245	13750
926.352	13552
926.459	13700
926.566	13681
926.673	13556
926.779	13438
926.886	13343
926.993	13343
927.099	13331
927.206	13183
927.312	13228
927.419	13266
927.525	13251
927.631	13392
927.737	13069
927.843	13080
927.95	12928
928.056	13110
928.162	13042
928.267	13042
928.373	13746
928.479	13095
928.585	12924
928.69	13015
928.796	13095
928.901	12852
929.007	12760
929.112	12996
929.218	12787
929.323	12764
929.428	12753
929.533	12871
929.638	12673
929.743	12738
929.848	12753
929.953	12707
930.058	12563
930.163	12441
930.267	12494
930.372	12555
930.477	12357
930.581	12677
930.685	12433
930.79	12315
930.894	12410
930.998	12270
931.103	12395
931.207	11992
931.311	11988
931.415	11977
931.519	11688
931.623	11600
