Data from test_V78500241_358.txt Node
Date: Fri Mar 25 15:44:16 CST 2022
User: usil
Spectrometer: V785-0024
Trigger mode: 0
Integration Time (sec): 4.000000E-1
Scans to average: 1
Nonlinearity correction enabled: false
Boxcar width: 0
Storing dark spectrum: false
XAxis mode: Wavelengths
Number of Pixels in Spectrum: 1024
>>>>>Begin Spectral Data<<<<<
801.071	29699
801.214	29726
801.356	29330
801.499	29387
801.641	29151
801.783	29326
801.926	29558
802.068	29254
802.211	29193
802.353	29220
802.496	28965
802.638	29003
802.78	29006
802.923	28942
803.065	28888
803.208	28858
803.35	28965
803.492	28999
803.635	29086
803.777	28888
803.919	29143
804.061	29455
804.204	29155
804.346	28968
804.488	29155
804.63	29162
804.773	28972
804.915	29121
805.057	29193
805.199	29075
805.341	29227
805.483	29212
805.626	29261
805.768	29166
805.91	29307
806.052	29117
806.194	29227
806.336	29528
806.478	29296
806.62	29425
806.762	29452
806.904	29600
807.046	29855
807.188	29752
807.33	29691
807.472	29760
807.614	29733
807.756	29668
807.898	29440
808.04	29554
808.182	29554
808.324	29501
808.465	29482
808.607	29771
808.749	29969
808.891	29939
809.033	30178
809.174	30011
809.316	29927
809.458	30079
809.6	29817
809.741	30057
809.883	29973
810.025	30053
810.166	30251
810.308	30315
810.45	30338
810.591	30190
810.733	29942
810.875	29901
811.016	29840
811.158	29836
811.299	29992
811.441	30155
811.582	30281
811.724	29893
811.865	29843
812.007	30026
812.148	29862
812.29	30072
812.431	30049
812.573	30483
812.714	30334
812.855	30604
812.997	30528
813.138	30707
813.279	30494
813.421	30616
813.562	30346
813.703	30205
813.845	30228
813.986	29866
814.127	29718
814.268	29672
814.41	29665
814.551	29661
814.692	29665
814.833	29402
814.974	29516
815.115	29665
815.256	29490
815.397	29490
815.539	29520
815.68	29429
815.821	29341
815.962	29334
816.103	29372
816.244	29170
816.385	29143
816.526	29090
816.666	28930
816.807	28938
816.948	29124
817.089	28987
817.23	28911
817.371	28816
817.512	28888
817.653	28839
817.793	28805
817.934	28873
818.075	28675
818.216	28828
818.356	28748
818.497	28679
818.638	28622
818.778	28569
818.919	28618
819.06	28672
819.2	28550
819.341	28927
819.481	28888
819.622	29010
819.762	29094
819.903	29140
820.043	29003
820.184	28965
820.324	29025
820.465	29109
820.605	28987
820.746	28904
820.886	28888
821.026	28930
821.167	28862
821.307	29022
821.447	28831
821.588	28748
821.728	28687
821.868	28474
822.008	28280
822.149	28325
822.289	28291
822.429	28067
822.569	27998
822.709	27838
822.849	27755
822.99	27770
823.13	27595
823.27	27671
823.41	27519
823.55	27412
823.69	27545
823.83	27545
823.97	27492
824.11	27317
824.25	27332
824.389	27291
824.529	27359
824.669	27389
824.809	27519
824.949	27378
825.089	27519
825.228	27393
825.368	27329
825.508	27294
825.648	27317
825.787	27329
825.927	27195
826.067	27173
826.206	27195
826.346	27306
826.485	27382
826.625	27192
826.765	27496
826.904	27283
827.044	27051
827.183	26914
827.323	26769
827.462	26990
827.601	26967
827.741	26982
827.88	26883
828.02	26769
828.159	26842
828.298	26849
828.437	26940
828.577	26861
828.716	27104
828.855	26796
828.994	26590
829.134	26480
829.273	26621
829.412	26545
829.551	26499
829.69	26503
829.829	26667
829.968	26682
830.107	26644
830.246	26598
830.385	26621
830.524	26408
830.663	26377
830.802	26385
830.941	26153
831.08	26153
831.219	26145
831.357	26332
831.496	26309
831.635	26176
831.774	26073
831.913	26039
832.051	26020
832.19	25826
832.329	26046
832.467	25734
832.606	25791
832.744	25799
832.883	25776
833.022	25852
833.16	25761
833.299	25856
833.437	25871
833.576	25780
833.714	25860
833.852	25970
833.991	25963
834.129	25966
834.267	25974
834.406	25822
834.544	25944
834.682	25776
834.821	25788
834.959	25951
835.097	25677
835.235	25689
835.373	25898
835.511	25799
835.65	25662
835.788	25510
835.926	25571
836.064	25403
836.202	25419
836.34	25666
836.478	25693
836.615	25742
836.753	25601
836.891	25624
837.029	25514
837.167	25457
837.305	25457
837.443	25419
837.58	25365
837.718	25476
837.856	25365
837.993	25335
838.131	25407
838.269	25304
838.406	25259
838.544	25164
838.681	24928
838.819	24989
838.956	24871
839.094	24867
839.231	24989
839.369	25004
839.506	25221
839.643	24916
839.781	24825
839.918	24760
840.055	24894
840.193	24829
840.33	24798
840.467	24768
840.604	24852
840.742	24932
840.879	24566
841.016	24623
841.153	24616
841.29	24878
841.427	24802
841.564	24764
841.701	24783
841.838	24540
841.975	24612
842.112	24677
842.249	24563
842.385	24566
842.522	24673
842.659	24486
842.796	24509
842.933	24372
843.069	24319
843.206	24410
843.343	24334
843.479	24551
843.616	24448
843.752	24201
843.889	24216
844.025	24292
844.162	24254
844.298	24319
844.435	24190
844.571	24285
844.708	24235
844.844	24338
844.98	24270
845.117	24330
845.253	24159
845.389	24030
845.525	24003
845.661	24057
845.798	23980
845.934	23916
846.07	23969
846.206	23889
846.342	23988
846.478	23965
846.614	23786
846.75	23543
846.886	23543
847.022	23745
847.158	23638
847.294	23710
847.429	23718
847.565	23630
847.701	23741
847.837	23391
847.972	23326
848.108	23387
848.244	23391
848.379	23265
848.515	23067
848.65	23151
848.786	23178
848.921	23181
849.057	23345
849.192	23280
849.328	23083
849.463	23155
849.598	23105
849.734	23022
849.869	22987
850.004	23010
850.14	22866
850.275	22999
850.41	22835
850.545	22911
850.68	22991
850.815	22915
850.95	22881
851.085	23048
851.22	23044
851.355	23010
851.49	22896
851.625	22793
851.76	22930
851.895	22900
852.03	22824
852.165	22889
852.299	23025
852.434	23018
852.569	22984
852.703	22930
852.838	22972
852.973	23105
853.107	23064
853.242	22843
853.376	22653
853.511	22733
853.645	22869
853.78	22820
853.914	22717
854.048	22504
854.183	22767
854.317	22862
854.451	23033
854.585	22812
854.72	22637
854.854	22774
854.988	22584
855.122	22656
855.256	22592
855.39	22721
855.524	22592
855.658	22672
855.792	22668
855.926	22656
856.06	22702
856.194	22866
856.327	22634
856.461	22630
856.595	22641
856.729	22615
856.862	22706
856.996	22797
857.13	22698
857.263	22877
857.397	22816
857.53	22721
857.664	22790
857.797	22733
857.931	22713
858.064	22839
858.197	22713
858.331	22687
858.464	22569
858.597	22622
858.731	22603
858.864	22634
858.997	22710
859.13	22698
859.263	22733
859.396	22820
859.529	22752
859.662	22771
859.795	22584
859.928	22725
860.061	22725
860.194	22809
860.327	22786
860.46	22645
860.592	22645
860.725	22881
860.858	22885
860.99	22820
861.123	22660
861.256	22656
861.388	22630
861.521	23326
861.653	22618
861.786	22493
861.918	22561
862.05	22557
862.183	22679
862.315	22831
862.447	22793
862.58	22538
862.712	22325
862.844	22363
862.976	22489
863.108	22485
863.24	22866
863.372	22432
863.504	22474
863.636	22363
863.768	22356
863.9	22508
864.032	22219
864.164	22375
864.296	22348
864.428	22413
864.559	22360
864.691	22485
864.823	22310
864.954	22382
865.086	22253
865.217	22310
865.349	22082
865.48	22234
865.612	22219
865.743	22299
865.875	22341
866.006	22261
866.137	22337
866.269	22276
866.4	22116
866.531	22158
866.662	22147
866.793	22223
866.924	22147
867.055	22112
867.186	22268
867.317	22032
867.448	22105
867.579	22166
867.71	22131
867.841	22078
867.972	22124
868.103	22169
868.233	22143
868.364	22166
868.495	22234
868.625	22417
868.756	22344
868.886	22207
869.017	22367
869.147	22394
869.278	22561
869.408	22413
869.539	22333
869.669	22489
869.799	22417
869.929	22565
870.06	22546
870.19	22691
870.32	22733
870.45	22729
870.58	22835
870.71	22961
870.84	22877
870.97	22809
871.1	22710
871.23	23022
871.36	22942
871.489	22850
871.619	22946
871.749	23006
871.879	23048
872.008	23044
872.138	22995
872.267	22987
872.397	22896
872.526	22820
872.656	22774
872.785	22854
872.915	22953
873.044	23018
873.173	22999
873.303	23052
873.432	23056
873.561	23056
873.69	22999
873.819	23067
873.948	22972
874.077	23044
874.206	22980
874.335	23056
874.464	23010
874.593	23261
874.722	23178
874.851	23273
874.979	23231
875.108	23433
875.237	23151
875.365	23029
875.494	23147
875.623	23235
875.751	23067
875.88	23277
876.008	23326
876.136	23364
876.265	23554
876.393	23786
876.521	23642
876.65	23661
876.778	23764
876.906	23406
877.034	23577
877.162	23570
877.29	23433
877.418	23554
877.546	23638
877.674	23604
877.802	23486
877.93	23562
878.058	23478
878.185	23455
878.313	23406
878.441	23566
878.568	23307
878.696	23535
878.824	23505
878.951	23604
879.079	23627
879.206	23969
879.333	23665
879.461	23528
879.588	23756
879.715	23779
879.842	23783
879.97	23558
880.097	23387
880.224	23345
880.351	23395
880.478	23497
880.605	23258
880.732	23372
880.859	23543
880.986	23364
881.112	23455
881.239	23258
881.366	23052
881.493	23044
881.619	22900
881.746	22930
881.872	22919
881.999	22847
882.125	22938
882.252	22927
882.378	22889
882.505	23014
882.631	22816
882.757	22664
882.883	22675
883.01	22664
883.136	22626
883.262	22402
883.388	22466
883.514	22546
883.64	22691
883.766	22569
883.892	22402
884.018	22409
884.143	22569
884.269	22565
884.395	22375
884.52	22265
884.646	22356
884.772	22116
884.897	22143
885.023	22306
885.148	22409
885.274	22382
885.399	22318
885.524	22192
885.65	22226
885.775	22325
885.9	22287
886.025	22333
886.15	22268
886.275	22067
886.4	22006
886.525	22169
886.65	22086
886.775	22268
886.9	22211
887.025	22440
887.149	22230
887.274	21983
887.399	22048
887.523	22124
887.648	21915
887.773	21915
887.897	21979
888.021	22105
888.146	21922
888.27	22101
888.395	22044
888.519	22002
888.643	21895
888.767	22021
888.891	21854
889.015	21743
889.139	21857
889.263	21713
889.387	21926
889.511	21960
889.635	21781
889.759	21717
889.883	21766
890.006	21785
890.13	21766
890.254	21618
890.377	21625
890.501	21523
890.624	21538
890.748	21545
890.871	21325
890.995	21329
891.118	21233
891.241	21401
891.364	21370
891.488	21428
891.611	21249
891.734	21382
891.857	21401
891.98	21374
892.103	21325
892.226	21272
892.349	21264
892.471	21100
892.594	21249
892.717	21127
892.839	21100
892.962	21260
893.085	21199
893.207	21157
893.33	21085
893.452	21100
893.575	21173
893.697	21070
893.819	21325
893.941	21344
894.064	21260
894.186	21085
894.308	21070
894.43	21310
894.552	21344
894.674	21252
894.796	21218
894.918	21260
895.04	21222
895.161	21302
895.283	21245
895.405	21093
895.526	21222
895.648	21176
895.769	21233
895.891	21291
896.012	21355
896.134	21272
896.255	21203
896.376	21146
896.498	21093
896.619	21252
896.74	21192
896.861	21359
896.982	21656
897.103	21587
897.224	21477
897.345	21329
897.466	21291
897.587	21325
897.708	21504
897.828	21485
897.949	21424
898.07	21188
898.19	21306
898.311	21450
898.431	21370
898.552	21336
898.672	21408
898.792	21462
898.913	21393
899.033	21268
899.153	21096
899.273	21165
899.393	21138
899.513	21104
899.633	21180
899.753	21146
899.873	21100
899.993	21138
900.113	21157
900.232	21009
900.352	21070
900.472	20834
900.591	20826
900.711	20849
900.83	20830
900.95	20895
901.069	21150
901.189	20625
901.308	20533
901.427	20495
901.546	20377
901.665	20389
901.784	20385
901.904	20355
902.023	20218
902.141	19967
902.26	19875
902.379	20005
902.498	19875
902.617	19909
902.735	19913
902.854	19799
902.973	19807
903.091	19559
903.21	19495
903.328	19559
903.446	19514
903.565	19373
903.683	19301
903.801	19324
903.919	19324
904.038	19369
904.156	19076
904.274	19225
904.392	19057
904.51	19091
904.627	19145
904.745	19148
904.863	19168
904.981	18920
905.098	18810
905.216	18764
905.334	18859
905.451	18753
905.569	18757
905.686	18768
905.803	18749
905.921	18544
906.038	18475
906.155	18532
906.272	18433
906.389	18532
906.506	18369
906.623	18285
906.74	18418
906.857	18125
906.974	18110
907.091	18228
907.208	18418
907.324	18304
907.441	18140
907.557	18072
907.674	17988
907.79	17859
907.907	17992
908.023	17935
908.139	18007
908.256	17836
908.372	17882
908.488	17882
908.604	17882
908.72	17722
908.836	17691
908.952	17657
909.068	17775
909.184	17756
909.3	17748
909.415	17634
909.531	17718
909.647	17376
909.762	17398
909.878	17284
909.993	17341
910.108	17391
910.224	17258
910.339	17242
910.454	17269
910.57	17105
910.685	17052
910.8	17379
910.915	17258
911.03	17132
911.145	16991
911.259	16877
911.374	16957
911.489	16885
911.604	16858
911.718	16706
911.833	16626
911.947	16744
912.062	16546
912.176	16675
912.291	16740
912.405	16721
912.519	16862
912.633	16801
912.748	16694
912.862	16626
912.976	16379
913.09	16432
913.204	16428
913.318	16481
913.431	16565
913.545	16485
913.659	16565
913.772	16344
913.886	16280
914	16253
914.113	16379
914.226	16356
914.34	16306
914.453	16162
914.566	16287
914.68	16139
914.793	16109
914.906	16051
915.019	15861
915.132	15724
915.245	15869
915.358	15857
915.47	15945
915.583	15831
915.696	15854
915.809	16017
915.921	15934
916.034	15724
916.146	15717
916.259	15705
916.371	15755
916.483	15827
916.595	15644
916.708	15648
916.82	15652
916.932	15656
917.044	15481
917.156	15637
917.268	15481
917.38	15443
917.491	15500
917.603	15458
917.715	15500
917.826	15515
917.938	15428
918.049	15279
918.161	15416
918.272	15496
918.384	15564
918.495	15500
918.606	15252
918.717	15207
918.828	15199
918.939	15241
919.05	15123
919.161	15241
919.272	15097
919.383	15066
919.494	15161
919.604	15431
919.715	15119
919.826	15077
919.936	15150
920.047	15233
920.157	15150
920.267	15370
920.378	15230
920.488	15051
920.598	15332
920.708	15477
920.818	15249
920.928	15321
921.038	15389
921.148	15370
921.258	15127
921.368	14975
921.477	14914
921.587	14826
921.697	14830
921.806	14823
921.916	14689
922.025	14613
922.134	14450
922.244	14465
922.353	14518
922.462	14400
922.571	14320
922.68	14153
922.789	14172
922.898	14138
923.007	14081
923.116	14103
923.224	14065
923.333	14001
923.442	14008
923.55	13917
923.659	13955
923.767	13970
923.876	13936
923.984	13970
924.092	13788
924.201	13849
924.309	13875
924.417	13807
924.525	13799
924.633	13757
924.741	14590
924.849	13590
924.956	13624
925.064	13552
925.172	13514
925.279	13495
925.387	13559
925.494	13441
925.602	13605
925.709	13529
925.816	13419
925.924	13358
926.031	13491
926.138	13384
926.245	13525
926.352	13384
926.459	13430
926.566	13510
926.673	13335
926.779	13236
926.886	13285
926.993	13114
927.099	12970
927.206	12996
927.312	12973
927.419	13091
927.525	13053
927.631	13034
927.737	13004
927.843	12871
927.95	12707
928.056	12806
928.162	12859
928.267	12871
928.373	13476
928.479	12981
928.585	12684
928.69	12764
928.796	12844
928.901	12753
929.007	12585
929.112	12738
929.218	12658
929.323	12604
929.428	12536
929.533	12684
929.638	12502
929.743	12494
929.848	12620
929.953	12441
930.058	12475
930.163	12292
930.267	12152
930.372	12369
930.477	12254
930.581	12376
930.685	12266
930.79	12106
930.894	12159
930.998	12003
931.103	12277
931.207	11665
931.311	11748
931.415	11691
931.519	11493
931.623	11398
