Data from test_V78500241_1389.txt Node
Date: Fri Mar 25 15:51:25 CST 2022
User: usil
Spectrometer: V785-0024
Trigger mode: 0
Integration Time (sec): 4.000000E-1
Scans to average: 1
Nonlinearity correction enabled: false
Boxcar width: 0
Storing dark spectrum: false
XAxis mode: Wavelengths
Number of Pixels in Spectrum: 1024
>>>>>Begin Spectral Data<<<<<
801.071	28382
801.214	28249
801.356	27808
801.499	27934
801.641	27720
801.783	27618
801.926	27720
802.068	27720
802.211	27682
802.353	27637
802.496	27397
802.638	27408
802.78	27439
802.923	27302
803.065	27317
803.208	27355
803.35	27397
803.492	27469
803.635	27496
803.777	27660
803.919	27614
804.061	27899
804.204	27747
804.346	27443
804.488	27458
804.63	27561
804.773	27561
804.915	27686
805.057	27675
805.199	27557
805.341	27667
805.483	27789
805.626	27652
805.768	27603
805.91	27717
806.052	27656
806.194	27637
806.336	27884
806.478	27671
806.62	27835
806.762	27907
806.904	28048
807.046	28451
807.188	28150
807.33	28135
807.472	28268
807.614	28032
807.756	28196
807.898	28048
808.04	28055
808.182	27983
808.324	28162
808.465	28139
808.607	28219
808.749	28459
808.891	28474
809.033	28580
809.174	28504
809.316	28478
809.458	28417
809.6	28360
809.741	28557
809.883	28508
810.025	28839
810.166	28736
810.308	28645
810.45	28668
810.591	28542
810.733	28481
810.875	28318
811.016	28219
811.158	28360
811.299	28546
811.441	28679
811.582	28531
811.724	28451
811.865	28287
812.007	28382
812.148	28337
812.29	28512
812.431	28637
812.573	28687
812.714	28862
812.855	28927
812.997	29041
813.138	29197
813.279	29098
813.421	28831
813.562	28869
813.703	28721
813.845	28637
813.986	28371
814.127	28169
814.268	28093
814.41	28265
814.551	28059
814.692	28253
814.833	28063
814.974	28120
815.115	28112
815.256	28021
815.397	27998
815.539	28150
815.68	27934
815.821	27884
815.962	27918
816.103	27861
816.244	27739
816.385	27705
816.526	27770
816.666	27572
816.807	27496
816.948	27393
817.089	27420
817.23	27488
817.371	27344
817.512	27389
817.653	27439
817.793	27367
817.934	27435
818.075	27424
818.216	27363
818.356	27416
818.497	27340
818.638	27116
818.778	27104
818.919	27264
819.06	27207
819.2	27237
819.341	27355
819.481	27306
819.622	27561
819.762	27724
819.903	27618
820.043	27637
820.184	27458
820.324	27519
820.465	27618
820.605	27519
820.746	27534
820.886	27279
821.026	27534
821.167	27534
821.307	27447
821.447	27393
821.588	27393
821.728	27157
821.868	27085
822.008	26956
822.149	26853
822.289	26887
822.429	26701
822.569	26400
822.709	26636
822.849	26419
822.99	26461
823.13	26324
823.27	26412
823.41	26240
823.55	26176
823.69	26164
823.83	26195
823.97	26229
824.11	26084
824.25	26062
824.389	26088
824.529	26317
824.669	26103
824.809	26225
824.949	26176
825.089	26343
825.228	26122
825.368	26027
825.508	25966
825.648	25955
825.787	25928
825.927	25986
826.067	25940
826.206	25883
826.346	25928
826.485	25989
826.625	25864
826.765	25959
826.904	25921
827.044	25601
827.183	25693
827.323	25647
827.462	25704
827.601	25613
827.741	25635
827.88	25719
828.02	25552
828.159	25647
828.298	25628
828.437	25704
828.577	25521
828.716	25723
828.855	25514
828.994	25274
829.134	25301
829.273	25377
829.412	25247
829.551	25354
829.69	25274
829.829	25365
829.968	25377
830.107	25339
830.246	25445
830.385	25247
830.524	25187
830.663	25080
830.802	25110
830.941	24886
831.08	24954
831.219	25137
831.357	24932
831.496	25190
831.635	24939
831.774	24859
831.913	24916
832.051	24795
832.19	24798
832.329	24726
832.467	24715
832.606	24654
832.744	24570
832.883	24604
833.022	24532
833.16	24574
833.299	24555
833.437	24608
833.576	24700
833.714	24677
833.852	24703
833.991	24673
834.129	24772
834.267	24745
834.406	24658
834.544	24665
834.682	24646
834.821	24654
834.959	24741
835.097	24521
835.235	24726
835.373	24540
835.511	24726
835.65	24460
835.788	24483
835.926	24437
836.064	24285
836.202	24235
836.34	24471
836.478	24536
836.615	24445
836.753	24505
836.891	24441
837.029	24456
837.167	24315
837.305	24273
837.443	24281
837.58	24277
837.718	24494
837.856	24445
837.993	24350
838.131	24380
838.269	24125
838.406	24251
838.544	24129
838.681	23992
838.819	23965
838.956	23843
839.094	23870
839.231	23847
839.369	23920
839.506	24121
839.643	24041
839.781	23904
839.918	23668
840.055	23790
840.193	23676
840.33	23729
840.467	23710
840.604	23775
840.742	23999
840.879	23596
841.016	23722
841.153	23573
841.29	23824
841.427	23707
841.564	23665
841.701	23573
841.838	23703
841.975	23535
842.112	23623
842.249	23505
842.385	23497
842.522	23691
842.659	23455
842.796	23414
842.933	23429
843.069	23471
843.206	23383
843.343	23566
843.479	23353
843.616	23505
843.752	23223
843.889	23334
844.025	23261
844.162	23181
844.298	23220
844.435	23231
844.571	23231
844.708	23239
844.844	23349
844.98	23379
845.117	23303
845.253	23197
845.389	23094
845.525	23197
845.661	23159
845.798	23014
845.934	23014
846.07	22995
846.206	22957
846.342	23121
846.478	22942
846.614	22771
846.75	22744
846.886	22656
847.022	22778
847.158	22843
847.294	22702
847.429	22694
847.565	22615
847.701	22957
847.837	22466
847.972	22436
848.108	22531
848.244	22508
848.379	22318
848.515	22284
848.65	22253
848.786	22246
848.921	22215
849.057	22413
849.192	22386
849.328	22382
849.463	22318
849.598	22226
849.734	22166
849.869	22021
850.004	22230
850.14	22109
850.275	22124
850.41	22040
850.545	21846
850.68	21972
850.815	22070
850.95	22078
851.085	22173
851.22	22150
851.355	22196
851.49	21972
851.625	22120
851.76	22017
851.895	21907
852.03	22006
852.165	22238
852.299	22207
852.434	22177
852.569	22055
852.703	22025
852.838	22021
852.973	22124
853.107	22135
853.242	22131
853.376	21945
853.511	21774
853.645	21827
853.78	22086
853.914	21789
854.048	21956
854.183	21846
854.317	21797
854.451	22101
854.585	21846
854.72	21766
854.854	21941
854.988	21785
855.122	21930
855.256	21717
855.39	21766
855.524	21968
855.658	21895
855.792	21945
855.926	21778
856.06	21979
856.194	22017
856.327	21930
856.461	21869
856.595	21915
856.729	21876
856.862	21934
856.996	21857
857.13	21937
857.263	21915
857.397	21903
857.53	21892
857.664	21968
857.797	22017
857.931	22010
858.064	21895
858.197	22078
858.331	21846
858.464	21895
858.597	21762
858.731	21797
858.864	21770
858.997	21732
859.13	21953
859.263	21949
859.396	21960
859.529	21899
859.662	21846
859.795	21781
859.928	21903
860.061	21956
860.194	22090
860.327	21987
860.46	21934
860.592	22036
860.725	22147
860.858	21964
860.99	21899
861.123	21827
861.256	21755
861.388	21812
861.521	22504
861.653	21736
861.786	21667
861.918	21701
862.05	21823
862.183	21842
862.315	21915
862.447	21816
862.58	21861
862.712	21732
862.844	21587
862.976	21724
863.108	21694
863.24	22188
863.372	21629
863.504	21637
863.636	21797
863.768	21713
863.9	21629
864.032	21519
864.164	21595
864.296	21675
864.428	21797
864.559	21682
864.691	21682
864.823	21603
864.954	21652
865.086	21519
865.217	21564
865.349	21439
865.48	21549
865.612	21553
865.743	21667
865.875	21496
866.006	21443
866.137	21553
866.269	21416
866.4	21435
866.531	21416
866.662	21382
866.793	21458
866.924	21496
867.055	21477
867.186	21382
867.317	21462
867.448	21351
867.579	21401
867.71	21439
867.841	21203
867.972	21481
868.103	21454
868.233	21488
868.364	21526
868.495	21576
868.625	21614
868.756	21671
868.886	21694
869.017	21633
869.147	21743
869.278	21876
869.408	21743
869.539	21759
869.669	21717
869.799	21808
869.929	21861
870.06	21842
870.19	21854
870.32	22021
870.45	22078
870.58	22116
870.71	22166
870.84	22158
870.97	21964
871.1	22124
871.23	22158
871.36	22272
871.489	22169
871.619	22246
871.749	22436
871.879	22238
872.008	22299
872.138	22280
872.267	22310
872.397	22051
872.526	22044
872.656	22166
872.785	22059
872.915	22280
873.044	22405
873.173	22276
873.303	22318
873.432	22192
873.561	22363
873.69	22226
873.819	22185
873.948	22303
874.077	22432
874.206	22128
874.335	22173
874.464	22500
874.593	22527
874.722	22489
874.851	22459
874.979	22584
875.108	22618
875.237	22421
875.365	22451
875.494	22497
875.623	22645
875.751	22451
875.88	22436
876.008	22618
876.136	22736
876.265	22911
876.393	22984
876.521	22946
876.65	22991
876.778	22999
876.906	22957
877.034	22927
877.162	22854
877.29	22710
877.418	22900
877.546	22725
877.674	22881
877.802	22873
877.93	22908
878.058	22900
878.185	22641
878.313	22740
878.441	22839
878.568	22645
878.696	22835
878.824	22900
878.951	22957
879.079	23003
879.206	23132
879.333	23056
879.461	22900
879.588	22885
879.715	22961
879.842	23178
879.97	22923
880.097	22725
880.224	22782
880.351	22713
880.478	22725
880.605	22592
880.732	22755
880.859	22839
880.986	22710
881.112	22759
881.239	22557
881.366	22409
881.493	22329
881.619	22390
881.746	22253
881.872	22192
881.999	22215
882.125	22154
882.252	22135
882.378	22257
882.505	22379
882.631	22166
882.757	22040
882.883	22074
883.01	21854
883.136	21831
883.262	21934
883.388	21793
883.514	21827
883.64	21983
883.766	21892
883.892	21728
884.018	21747
884.143	21953
884.269	21991
884.395	21667
884.52	21568
884.646	21622
884.772	21439
884.897	21454
885.023	21523
885.148	21736
885.274	21797
885.399	21580
885.524	21622
885.65	21481
885.775	21583
885.9	21583
886.025	21812
886.15	21614
886.275	21504
886.4	21450
886.525	21515
886.65	21481
886.775	21530
886.9	21572
887.025	21747
887.149	21538
887.274	21370
887.399	21275
887.523	21389
887.648	21245
887.773	21214
887.897	21454
888.021	21351
888.146	21325
888.27	21481
888.395	21416
888.519	21367
888.643	21332
888.767	21325
888.891	21154
889.015	21256
889.139	21146
889.263	20998
889.387	21150
889.511	21287
889.635	21260
889.759	21100
889.883	21291
890.006	21070
890.13	21214
890.254	21100
890.377	21039
890.501	21020
890.624	20830
890.748	21013
890.871	20735
890.995	20670
891.118	20598
891.241	20693
891.364	20659
891.488	20811
891.611	20655
891.734	20678
891.857	20765
891.98	20796
892.103	20743
892.226	20659
892.349	20537
892.471	20419
892.594	20697
892.717	20583
892.839	20564
892.962	20644
893.085	20552
893.207	20473
893.33	20590
893.452	20507
893.575	20617
893.697	20606
893.819	20651
893.941	20800
894.064	20670
894.186	20575
894.308	20488
894.43	20705
894.552	20697
894.674	20579
894.796	20488
894.918	20495
895.04	20636
895.161	20617
895.283	20648
895.405	20530
895.526	20560
895.648	20644
895.769	20598
895.891	20606
896.012	20762
896.134	20686
896.255	20533
896.376	20556
896.498	20606
896.619	20606
896.74	20549
896.861	20705
896.982	20868
897.103	20925
897.224	20914
897.345	20735
897.466	20758
897.587	20807
897.708	20952
897.828	20712
897.949	20811
898.07	20602
898.19	20716
898.311	20792
898.431	20609
898.552	20781
898.672	20689
898.792	20960
898.913	20739
899.033	20655
899.153	20568
899.273	20556
899.393	20412
899.513	20480
899.633	20511
899.753	20667
899.873	20488
899.993	20609
900.113	20423
900.232	20476
900.352	20343
900.472	20374
900.591	20195
900.711	20427
900.83	20225
900.95	20275
901.069	20480
901.189	20187
901.308	19951
901.427	19883
901.546	19841
901.665	19940
901.784	19887
901.904	19830
902.023	19540
902.141	19438
902.26	19434
902.379	19445
902.498	19438
902.617	19343
902.735	19552
902.854	19419
902.973	19240
903.091	18973
903.21	18970
903.328	19050
903.446	18996
903.565	18817
903.683	18916
903.801	18787
903.919	18764
904.038	18802
904.156	18661
904.274	18498
904.392	18589
904.51	18623
904.627	18646
904.745	18620
904.863	18730
904.981	18410
905.098	18304
905.216	18323
905.334	18334
905.451	18285
905.569	18296
905.686	18243
905.803	18228
905.921	18049
906.038	18205
906.155	18106
906.272	17988
906.389	18019
906.506	17859
906.623	17794
906.74	17847
906.857	17733
906.974	17687
907.091	17866
907.208	17874
907.324	17790
907.441	17695
907.557	17695
907.674	17558
907.79	17482
907.907	17448
908.023	17611
908.139	17501
908.256	17417
908.372	17417
908.488	17398
908.604	17349
908.72	17254
908.836	17178
908.952	17178
909.068	17265
909.184	17334
909.3	17231
909.415	17269
909.531	17216
909.647	17102
909.762	17071
909.878	16957
909.993	16999
910.108	16972
910.224	16854
910.339	16923
910.454	16793
910.57	16736
910.685	16611
910.8	16995
910.915	16961
911.03	16733
911.145	16569
911.259	16596
911.374	16580
911.489	16417
911.604	16443
911.718	16268
911.833	16360
911.947	16230
912.062	16173
912.176	16173
912.291	16223
912.405	16314
912.519	16527
912.633	16459
912.748	16295
912.862	16204
912.976	16204
913.09	15937
913.204	16082
913.318	16124
913.431	16177
913.545	16150
913.659	16162
913.772	16006
913.886	15899
914	15922
914.113	16002
914.226	15987
914.34	15884
914.453	15759
914.566	15915
914.68	15793
914.793	15690
914.906	15572
915.019	15450
915.132	15431
915.245	15405
915.358	15549
915.47	15500
915.583	15473
915.696	15523
915.809	15507
915.921	15625
916.034	15359
916.146	15389
916.259	15363
916.371	15542
916.483	15561
916.595	15325
916.708	15272
916.82	15416
916.932	15230
917.044	15344
917.156	15207
917.268	15066
917.38	15157
917.491	15157
917.603	15116
917.715	15138
917.826	15146
917.938	15119
918.049	14971
918.161	15085
918.272	15260
918.384	15264
918.495	15100
918.606	14933
918.717	14765
918.828	14933
918.939	15009
919.05	14880
919.161	14891
919.272	14659
919.383	14670
919.494	14929
919.604	15051
919.715	14743
919.826	14743
919.936	14788
920.047	14872
920.157	14876
920.267	15036
920.378	14811
920.488	14804
920.598	15074
920.708	15165
920.818	14918
920.928	14967
921.038	15127
921.148	14944
921.258	14735
921.368	14720
921.477	14560
921.587	14564
921.697	14484
921.806	14511
921.916	14473
922.025	14229
922.134	14221
922.244	14176
922.353	14286
922.462	14138
922.571	14077
922.68	13807
922.789	13887
922.898	13978
923.007	13826
923.116	13925
923.224	13750
923.333	13780
923.442	13647
923.55	13647
923.659	13708
923.767	13727
923.876	13586
923.984	13636
924.092	13575
924.201	13632
924.309	13514
924.417	13643
924.525	13453
924.633	13464
924.741	14183
924.849	13282
924.956	13430
925.064	13278
925.172	13133
925.279	13304
925.387	13285
925.494	13206
925.602	13388
925.709	13240
925.816	13114
925.924	13247
926.031	13240
926.138	13225
926.245	13240
926.352	13088
926.459	13228
926.566	13255
926.673	13171
926.779	12943
926.886	12985
926.993	12795
927.099	12757
927.206	12734
927.312	12787
927.419	12806
927.525	12722
927.631	12837
927.737	12669
927.843	12582
927.95	12555
928.056	12627
928.162	12673
928.267	12707
928.373	13232
928.479	12806
928.585	12486
928.69	12544
928.796	12669
928.901	12445
929.007	12338
929.112	12429
929.218	12399
929.323	12388
929.428	12289
929.533	12445
929.638	12216
929.743	12311
929.848	12296
929.953	12342
930.058	12220
930.163	12041
930.267	12007
930.372	12125
930.477	11969
930.581	12106
930.685	12125
930.79	11931
930.894	11920
930.998	11916
931.103	11920
931.207	11634
931.311	11512
931.415	11547
931.519	11265
931.623	11296
