Data from test_V78500241_3129.txt Node
Date: Fri Mar 25 16:03:28 CST 2022
User: usil
Spectrometer: V785-0024
Trigger mode: 0
Integration Time (sec): 4.000000E-1
Scans to average: 1
Nonlinearity correction enabled: false
Boxcar width: 0
Storing dark spectrum: false
XAxis mode: Wavelengths
Number of Pixels in Spectrum: 1024
>>>>>Begin Spectral Data<<<<<
801.071	28839
801.214	28820
801.356	28653
801.499	28569
801.641	28409
801.783	28542
801.926	28573
802.068	28360
802.211	28382
802.353	28363
802.496	28150
802.638	28070
802.78	28185
802.923	28051
803.065	28021
803.208	28082
803.35	28131
803.492	28390
803.635	28523
803.777	28268
803.919	28481
804.061	28706
804.204	28474
804.346	28356
804.488	28306
804.63	28504
804.773	28546
804.915	28474
805.057	28542
805.199	28367
805.341	28611
805.483	28599
805.626	28512
805.768	28497
805.91	28694
806.052	28546
806.194	28573
806.336	28698
806.478	28622
806.62	28527
806.762	28824
806.904	28854
807.046	29105
807.188	28999
807.33	29067
807.472	29098
807.614	29014
807.756	29060
807.898	29014
808.04	28900
808.182	28911
808.324	28790
808.465	29037
808.607	29098
808.749	29235
808.891	29185
809.033	29478
809.174	29318
809.316	29372
809.458	29440
809.6	29292
809.741	29326
809.883	29455
810.025	29493
810.166	29680
810.308	29577
810.45	29668
810.591	29505
810.733	29273
810.875	29379
811.016	29254
811.158	29284
811.299	29391
811.441	29417
811.582	29474
811.724	29326
811.865	29433
812.007	29292
812.148	29337
812.29	29364
812.431	29554
812.573	29676
812.714	29798
812.855	29908
812.997	29923
813.138	30114
813.279	29961
813.421	29980
813.562	29748
813.703	29668
813.845	29558
813.986	29197
814.127	29231
814.268	29071
814.41	29113
814.551	29071
814.692	29174
814.833	29071
814.974	29033
815.115	29022
815.256	28995
815.397	28892
815.539	28854
815.68	28774
815.821	28698
815.962	28923
816.103	28809
816.244	28824
816.385	28691
816.526	28630
816.666	28470
816.807	28360
816.948	28424
817.089	28386
817.23	28367
817.371	28272
817.512	28390
817.653	28291
817.793	28398
817.934	28375
818.075	28421
818.216	28375
818.356	28299
818.497	28253
818.638	28207
818.778	28055
818.919	28192
819.06	28299
819.2	28291
819.341	28428
819.481	28318
819.622	28607
819.762	28790
819.903	28557
820.043	28565
820.184	28592
820.324	28459
820.465	28603
820.605	28641
820.746	28611
820.886	28215
821.026	28409
821.167	28405
821.307	28580
821.447	28352
821.588	28337
821.728	28238
821.868	28082
822.008	27831
822.149	28017
822.289	27732
822.429	27629
822.569	27473
822.709	27648
822.849	27427
822.99	27332
823.13	27233
823.27	27317
823.41	27169
823.55	27142
823.69	27226
823.83	27131
823.97	27119
824.11	27051
824.25	26986
824.389	26895
824.529	27195
824.669	27062
824.809	27188
824.949	26982
825.089	27077
825.228	26975
825.368	26963
825.508	26956
825.648	26906
825.787	26895
825.927	26952
826.067	27112
826.206	26777
826.346	26929
826.485	26948
826.625	26998
826.765	27077
826.904	27017
827.044	26693
827.183	26735
827.323	26587
827.462	26697
827.601	26697
827.741	26663
827.88	26708
828.02	26575
828.159	26609
828.298	26724
828.437	26659
828.577	26526
828.716	26659
828.855	26587
828.994	26355
829.134	26305
829.273	26355
829.412	26256
829.551	26400
829.69	26374
829.829	26351
829.968	26351
830.107	26415
830.246	26450
830.385	26427
830.524	26145
830.663	26134
830.802	26039
830.941	25917
831.08	25974
831.219	26035
831.357	25978
831.496	26100
831.635	25852
831.774	25868
831.913	25837
832.051	25658
832.19	25662
832.329	25746
832.467	25556
832.606	25419
832.744	25544
832.883	25521
833.022	25658
833.16	25635
833.299	25643
833.437	25670
833.576	25757
833.714	25563
833.852	25753
833.991	25803
834.129	25830
834.267	25784
834.406	25628
834.544	25769
834.682	25693
834.821	25594
834.959	25864
835.097	25609
835.235	25677
835.373	25632
835.511	25696
835.65	25339
835.788	25647
835.926	25441
836.064	25324
836.202	25411
836.34	25403
836.478	25567
836.615	25510
836.753	25460
836.891	25445
837.029	25464
837.167	25392
837.305	25301
837.443	25369
837.58	25171
837.718	25499
837.856	25415
837.993	25251
838.131	25263
838.269	25133
838.406	25190
838.544	25133
838.681	24924
838.819	24897
838.956	24791
839.094	24871
839.231	24814
839.369	25031
839.506	25240
839.643	25023
839.781	24890
839.918	24627
840.055	24726
840.193	24673
840.33	24681
840.467	24719
840.604	24738
840.742	24920
840.879	24456
841.016	24593
841.153	24525
841.29	24692
841.427	24585
841.564	24837
841.701	24623
841.838	24688
841.975	24540
842.112	24525
842.249	24502
842.385	24551
842.522	24604
842.659	24479
842.796	24365
842.933	24563
843.069	24334
843.206	24475
843.343	24407
843.479	24498
843.616	24403
843.752	24209
843.889	24213
844.025	24380
844.162	24201
844.298	24277
844.435	24300
844.571	24174
844.708	24197
844.844	24403
844.98	24270
845.117	24174
845.253	24076
845.389	24057
845.525	24011
845.661	24011
845.798	23897
845.934	23859
846.07	23843
846.206	23904
846.342	24034
846.478	23935
846.614	23665
846.75	23600
846.886	23630
847.022	23707
847.158	23718
847.294	23726
847.429	23745
847.565	23547
847.701	23969
847.837	23421
847.972	23372
848.108	23474
848.244	23459
848.379	23296
848.515	23303
848.65	23216
848.786	23341
848.921	23231
849.057	23349
849.192	23258
849.328	23303
849.463	23235
849.598	23166
849.734	23113
849.869	23083
850.004	22919
850.14	23090
850.275	23064
850.41	22911
850.545	23025
850.68	22896
850.815	22934
850.95	22984
851.085	23185
851.22	22995
851.355	23018
851.49	23052
851.625	23143
851.76	23109
851.895	22915
852.03	22930
852.165	23060
852.299	23014
852.434	22934
852.569	23090
852.703	23052
852.838	23109
852.973	23136
853.107	23185
853.242	22938
853.376	22778
853.511	22729
853.645	22729
853.78	22843
853.914	22873
854.048	22812
854.183	22858
854.317	22812
854.451	22965
854.585	22923
854.72	22896
854.854	22980
854.988	22797
855.122	22866
855.256	22740
855.39	22820
855.524	22843
855.658	22961
855.792	22919
855.926	22900
856.06	22915
856.194	22839
856.327	22896
856.461	22793
856.595	22889
856.729	22736
856.862	22911
856.996	22885
857.13	22972
857.263	22824
857.397	22869
857.53	22805
857.664	22816
857.797	22805
857.931	22831
858.064	22957
858.197	22911
858.331	22812
858.464	22809
858.597	22634
858.731	22801
858.864	22771
858.997	22729
859.13	22953
859.263	22812
859.396	22965
859.529	22797
859.662	22752
859.795	22809
859.928	22896
860.061	23048
860.194	22987
860.327	22847
860.46	22923
860.592	22938
860.725	22854
860.858	22965
860.99	22854
861.123	22721
861.256	22698
861.388	22900
861.521	23402
861.653	22710
861.786	22702
861.918	22656
862.05	22759
862.183	22733
862.315	22725
862.447	22763
862.58	22683
862.712	22660
862.844	22455
862.976	22660
863.108	22516
863.24	22919
863.372	22462
863.504	22577
863.636	22634
863.768	22588
863.9	22554
864.032	22394
864.164	22474
864.296	22588
864.428	22580
864.559	22615
864.691	22698
864.823	22424
864.954	22527
865.086	22455
865.217	22512
865.349	22314
865.48	22257
865.612	22424
865.743	22630
865.875	22421
866.006	22497
866.137	22474
866.269	22394
866.4	22413
866.531	22402
866.662	22348
866.793	22207
866.924	22436
867.055	22261
867.186	22314
867.317	22230
867.448	22204
867.579	22310
867.71	22291
867.841	22257
867.972	22409
868.103	22379
868.233	22428
868.364	22379
868.495	22421
868.625	22512
868.756	22626
868.886	22516
869.017	22626
869.147	22801
869.278	22577
869.408	22489
869.539	22630
869.669	22603
869.799	22675
869.929	22736
870.06	22592
870.19	22828
870.32	22790
870.45	22927
870.58	23022
870.71	23060
870.84	22942
870.97	23094
871.1	22961
871.23	23109
871.36	23159
871.489	23006
871.619	23079
871.749	23216
871.879	23128
872.008	23273
872.138	23090
872.267	23220
872.397	22980
872.526	23071
872.656	23075
872.785	22881
872.915	23254
873.044	23360
873.173	23273
873.303	23178
873.432	23265
873.561	23284
873.69	23178
873.819	23090
873.948	23250
874.077	23166
874.206	23181
874.335	23204
874.464	23277
874.593	23478
874.722	23421
874.851	23349
874.979	23376
875.108	23448
875.237	23284
875.365	23372
875.494	23235
875.623	23478
875.751	23269
875.88	23406
876.008	23444
876.136	23680
876.265	23813
876.393	23912
876.521	23783
876.65	23870
876.778	23904
876.906	23661
877.034	23691
877.162	23805
877.29	23581
877.418	23657
877.546	23714
877.674	23809
877.802	23676
877.93	23733
878.058	23824
878.185	23509
878.313	23703
878.441	23691
878.568	23581
878.696	23741
878.824	23851
878.951	23836
879.079	23874
879.206	24087
879.333	23901
879.461	23752
879.588	23882
879.715	23950
879.842	23927
879.97	23824
880.097	23459
880.224	23554
880.351	23589
880.478	23554
880.605	23535
880.732	23585
880.859	23703
880.986	23684
881.112	23531
881.239	23368
881.366	23204
881.493	23277
881.619	23189
881.746	23044
881.872	23140
881.999	23060
882.125	23006
882.252	23216
882.378	23102
882.505	23067
882.631	22949
882.757	22816
882.883	22831
883.01	22904
883.136	22763
883.262	22729
883.388	22641
883.514	22889
883.64	22885
883.766	22801
883.892	22474
884.018	22542
884.143	22782
884.269	22588
884.395	22489
884.52	22424
884.646	22462
884.772	22382
884.897	22344
885.023	22447
885.148	22421
885.274	22577
885.399	22500
885.524	22382
885.65	22561
885.775	22398
885.9	22375
886.025	22466
886.15	22489
886.275	22394
886.4	22276
886.525	22337
886.65	22341
886.775	22352
886.9	22542
887.025	22554
887.149	22291
887.274	22223
887.399	22185
887.523	22166
887.648	22268
887.773	22128
887.897	22131
888.021	22177
888.146	22128
888.27	22329
888.395	22234
888.519	22299
888.643	22257
888.767	22219
888.891	22059
889.015	21991
889.139	22010
889.263	21941
889.387	22074
889.511	22086
889.635	21945
889.759	22032
889.883	22029
890.006	21956
890.13	22093
890.254	21945
890.377	21873
890.501	21785
890.624	21641
890.748	21686
890.871	21591
890.995	21576
891.118	21500
891.241	21428
891.364	21428
891.488	21561
891.611	21507
891.734	21500
891.857	21545
891.98	21374
892.103	21572
892.226	21583
892.349	21405
892.471	21329
892.594	21473
892.717	21504
892.839	21359
892.962	21481
893.085	21526
893.207	21439
893.33	21268
893.452	21313
893.575	21519
893.697	21249
893.819	21485
893.941	21538
894.064	21458
894.186	21405
894.308	21291
894.43	21523
894.552	21538
894.674	21389
894.796	21298
894.918	21272
895.04	21329
895.161	21450
895.283	21473
895.405	21332
895.526	21302
895.648	21359
895.769	21340
895.891	21310
896.012	21526
896.134	21359
896.255	21412
896.376	21173
896.498	21348
896.619	21336
896.74	21424
896.861	21405
896.982	21709
897.103	21781
897.224	21603
897.345	21587
897.466	21538
897.587	21595
897.708	21709
897.828	21629
897.949	21523
898.07	21439
898.19	21447
898.311	21652
898.431	21519
898.552	21542
898.672	21530
898.792	21523
898.913	21580
899.033	21412
899.153	21287
899.273	21336
899.393	21222
899.513	21317
899.633	21222
899.753	21222
899.873	21317
899.993	21192
900.113	21180
900.232	21241
900.352	21192
900.472	21096
900.591	20887
900.711	21142
900.83	21028
900.95	21009
901.069	21116
901.189	20914
901.308	20667
901.427	20716
901.546	20571
901.665	20674
901.784	20708
901.904	20454
902.023	20351
902.141	20149
902.26	20046
902.379	20157
902.498	20122
902.617	20100
902.735	20096
902.854	20084
902.973	19963
903.091	19761
903.21	19769
903.328	19772
903.446	19693
903.565	19499
903.683	19491
903.801	19491
903.919	19544
904.038	19468
904.156	19190
904.274	19392
904.392	19251
904.51	19335
904.627	19308
904.745	19202
904.863	19301
904.981	19103
905.098	18985
905.216	18985
905.334	19008
905.451	18958
905.569	18901
905.686	18932
905.803	18916
905.921	18734
906.038	18890
906.155	18795
906.272	18692
906.389	18612
906.506	18502
906.623	18448
906.74	18551
906.857	18509
906.974	18323
907.091	18593
907.208	18604
907.324	18574
907.441	18433
907.557	18224
907.674	18163
907.79	18220
907.907	18144
908.023	18079
908.139	18114
908.256	18129
908.372	18015
908.488	18133
908.604	17931
908.72	17908
908.836	18003
908.952	17912
909.068	17973
909.184	18053
909.3	17908
909.415	17920
909.531	17904
909.647	17592
909.762	17630
909.878	17653
909.993	17532
910.108	17627
910.224	17543
910.339	17535
910.454	17467
910.57	17395
910.685	17296
910.8	17592
910.915	17455
911.03	17421
911.145	17151
911.259	17174
911.374	17170
911.489	17048
911.604	17109
911.718	16908
911.833	17014
911.947	16828
912.062	16786
912.176	16953
912.291	16919
912.405	16847
912.519	17037
912.633	17109
912.748	16881
912.862	16938
912.976	16763
913.09	16675
913.204	16755
913.318	16733
913.431	16828
913.545	16774
913.659	16774
913.772	16634
913.886	16599
914	16527
914.113	16535
914.226	16767
914.34	16596
914.453	16360
914.566	16512
914.68	16470
914.793	16295
914.906	16162
915.019	16013
915.132	16006
915.245	16048
915.358	16158
915.47	16059
915.583	16101
915.696	16169
915.809	16196
915.921	16181
916.034	16074
916.146	15975
916.259	15998
916.371	16147
916.483	15994
916.595	15975
916.708	15945
916.82	15865
916.932	15873
917.044	15842
917.156	15873
917.268	15701
917.38	15774
917.491	15603
917.603	15778
917.715	15827
917.826	15869
917.938	15633
918.049	15603
918.161	15614
918.272	15918
918.384	15705
918.495	15587
918.606	15439
918.717	15363
918.828	15534
918.939	15504
919.05	15443
919.161	15462
919.272	15188
919.383	15348
919.494	15443
919.604	15606
919.715	15454
919.826	15241
919.936	15351
920.047	15443
920.157	15412
920.267	15603
920.378	15477
920.488	15260
920.598	15538
920.708	15660
920.818	15572
920.928	15610
921.038	15743
921.148	15774
921.258	15420
921.368	15287
921.477	15154
921.587	15233
921.697	15066
921.806	15146
921.916	15074
922.025	14861
922.134	14762
922.244	14754
922.353	14845
922.462	14746
922.571	14575
922.68	14469
922.789	14450
922.898	14400
923.007	14374
923.116	14412
923.224	14419
923.333	14377
923.442	14355
923.55	14176
923.659	14225
923.767	14240
923.876	14202
923.984	14301
924.092	14130
924.201	14119
924.309	14088
924.417	14111
924.525	14081
924.633	14103
924.741	14765
924.849	13887
924.956	14012
925.064	13894
925.172	13727
925.279	13811
925.387	13776
925.494	13871
925.602	13791
925.709	13856
925.816	13746
925.924	13803
926.031	13769
926.138	13601
926.245	13715
926.352	13639
926.459	13727
926.566	13677
926.673	13639
926.779	13480
926.886	13464
926.993	13392
927.099	13388
927.206	13301
927.312	13266
927.419	13312
927.525	13282
927.631	13339
927.737	13095
927.843	13118
927.95	13046
928.056	13133
928.162	13187
928.267	13145
928.373	13822
928.479	13217
928.585	13034
928.69	13088
928.796	13129
928.901	13038
929.007	12875
929.112	12886
929.218	12829
929.323	12791
929.428	12795
929.533	12973
929.638	12658
929.743	12726
929.848	12867
929.953	12753
930.058	12703
930.163	12483
930.267	12433
930.372	12631
930.477	12464
930.581	12654
930.685	12563
930.79	12369
930.894	12433
930.998	12353
931.103	12528
931.207	12110
931.311	12030
931.415	11897
931.519	11790
931.623	11672
