Data from test_V78500241_519.txt Node
Date: Fri Mar 25 15:45:23 CST 2022
User: usil
Spectrometer: V785-0024
Trigger mode: 0
Integration Time (sec): 4.000000E-1
Scans to average: 1
Nonlinearity correction enabled: false
Boxcar width: 0
Storing dark spectrum: false
XAxis mode: Wavelengths
Number of Pixels in Spectrum: 1024
>>>>>Begin Spectral Data<<<<<
801.071	27454
801.214	27466
801.356	27207
801.499	27203
801.641	27093
801.783	26982
801.926	27055
802.068	27135
802.211	26960
802.353	26902
802.496	26876
802.638	26792
802.78	26708
802.923	26579
803.065	26541
803.208	26587
803.35	26495
803.492	26773
803.635	26864
803.777	26693
803.919	26906
804.061	27131
804.204	26967
804.346	26891
804.488	26754
804.63	26910
804.773	26689
804.915	26731
805.057	27039
805.199	26804
805.341	27028
805.483	27047
805.626	27020
805.768	26864
805.91	26963
806.052	26921
806.194	26887
806.336	27211
806.478	27058
806.62	26956
806.762	27180
806.904	27294
807.046	27477
807.188	27279
807.33	27321
807.472	27329
807.614	27230
807.756	27488
807.898	27222
808.04	27340
808.182	27203
808.324	26960
808.465	27287
808.607	27553
808.749	27671
808.891	27538
809.033	27789
809.174	27625
809.316	27724
809.458	27614
809.6	27629
809.741	27709
809.883	27644
810.025	27854
810.166	27850
810.308	27922
810.45	27819
810.591	27759
810.733	27709
810.875	27568
811.016	27427
811.158	27367
811.299	27728
811.441	27804
811.582	27705
811.724	27599
811.865	27564
812.007	27614
812.148	27542
812.29	27576
812.431	27850
812.573	27983
812.714	28188
812.855	28082
812.997	28207
813.138	28478
813.279	28246
813.421	28135
813.562	28116
813.703	27968
813.845	27907
813.986	27473
814.127	27401
814.268	27169
814.41	27340
814.551	27275
814.692	27382
814.833	27237
814.974	27252
815.115	27329
815.256	26963
815.397	27104
815.539	27070
815.68	27070
815.821	26902
815.962	27188
816.103	27116
816.244	26998
816.385	26800
816.526	26720
816.666	26644
816.807	26415
816.948	26864
817.089	26632
817.23	26571
817.371	26511
817.512	26617
817.653	26568
817.793	26473
817.934	26419
818.075	26568
818.216	26476
818.356	26503
818.497	26609
818.638	26271
818.778	26320
818.919	26248
819.06	26286
819.2	26366
819.341	26419
819.481	26438
819.622	26583
819.762	26826
819.903	26773
820.043	26720
820.184	26480
820.324	26746
820.465	26560
820.605	26708
820.746	26480
820.886	26385
821.026	26602
821.167	26678
821.307	26617
821.447	26518
821.588	26389
821.728	26450
821.868	26206
822.008	26088
822.149	25989
822.289	25928
822.429	25708
822.569	25693
822.709	25708
822.849	25434
822.99	25563
823.13	25464
823.27	25460
823.41	25396
823.55	25343
823.69	25255
823.83	25190
823.97	25194
824.11	25183
824.25	25164
824.389	25122
824.529	25175
824.669	25282
824.809	25225
824.949	25236
825.089	25228
825.228	25107
825.368	25088
825.508	25034
825.648	25072
825.787	25012
825.927	25023
826.067	24989
826.206	24947
826.346	25046
826.485	25088
826.625	25034
826.765	25202
826.904	25076
827.044	24810
827.183	24749
827.323	24631
827.462	24837
827.601	24711
827.741	24753
827.88	24787
828.02	24639
828.159	24627
828.298	24688
828.437	24779
828.577	24646
828.716	24669
828.855	24551
828.994	24388
829.134	24498
829.273	24494
829.412	24521
829.551	24281
829.69	24388
829.829	24559
829.968	24536
830.107	24582
830.246	24327
830.385	24262
830.524	24384
830.663	24300
830.802	24213
830.941	23996
831.08	24064
831.219	24171
831.357	24144
831.496	24289
831.635	24068
831.774	23984
831.913	23923
832.051	23771
832.19	23878
832.329	23726
832.467	23627
832.606	23604
832.744	23543
832.883	23627
833.022	23741
833.16	23676
833.299	23779
833.437	23779
833.576	23737
833.714	23874
833.852	23923
833.991	23745
834.129	23824
834.267	23748
834.406	23733
834.544	23703
834.682	23767
834.821	23794
834.959	23996
835.097	23760
835.235	23680
835.373	23722
835.511	23695
835.65	23512
835.788	23611
835.926	23474
836.064	23505
836.202	23463
836.34	23649
836.478	23824
836.615	23627
836.753	23562
836.891	23714
837.029	23642
837.167	23630
837.305	23619
837.443	23474
837.58	23356
837.718	23566
837.856	23486
837.993	23337
838.131	23383
838.269	23292
838.406	23242
838.544	23193
838.681	23037
838.819	22930
838.956	22904
839.094	22953
839.231	22995
839.369	23025
839.506	23299
839.643	23155
839.781	22809
839.918	22839
840.055	22805
840.193	22790
840.33	22793
840.467	22877
840.604	22904
840.742	22987
840.879	22801
841.016	22752
841.153	22755
841.29	23029
841.427	22892
841.564	22908
841.701	22752
841.838	22771
841.975	22710
842.112	22733
842.249	22527
842.385	22584
842.522	22877
842.659	22793
842.796	22596
842.933	22592
843.069	22523
843.206	22592
843.343	22603
843.479	22733
843.616	22546
843.752	22402
843.889	22325
844.025	22512
844.162	22432
844.298	22379
844.435	22333
844.571	22215
844.708	22459
844.844	22538
844.98	22481
845.117	22466
845.253	22261
845.389	22234
845.525	22246
845.661	22234
845.798	22082
845.934	22169
846.07	22017
846.206	22162
846.342	22032
846.478	22090
846.614	21770
846.75	21641
846.886	21778
847.022	21804
847.158	21804
847.294	21838
847.429	21899
847.565	21823
847.701	22173
847.837	21545
847.972	21504
848.108	21637
848.244	21656
848.379	21386
848.515	21519
848.65	21462
848.786	21378
848.921	21469
849.057	21462
849.192	21504
849.328	21530
849.463	21443
849.598	21351
849.734	21321
849.869	21329
850.004	21180
850.14	21123
850.275	21154
850.41	21131
850.545	21207
850.68	21275
850.815	21291
850.95	21180
851.085	21363
851.22	21359
851.355	21325
851.49	21138
851.625	21211
851.76	21233
851.895	21093
852.03	21173
852.165	21138
852.299	21230
852.434	21207
852.569	21214
852.703	21180
852.838	21184
852.973	21344
853.107	21336
853.242	21104
853.376	21066
853.511	20918
853.645	21024
853.78	21100
853.914	21005
854.048	21005
854.183	20952
854.317	20975
854.451	21195
854.585	21081
854.72	21001
854.854	21058
854.988	20979
855.122	21055
855.256	20918
855.39	20925
855.524	21104
855.658	21051
855.792	21142
855.926	20921
856.06	21043
856.194	21062
856.327	21119
856.461	20941
856.595	20944
856.729	20960
856.862	21176
856.996	21005
857.13	20963
857.263	21146
857.397	21009
857.53	20948
857.664	21093
857.797	21085
857.931	21070
858.064	21062
858.197	21165
858.331	21020
858.464	20963
858.597	20891
858.731	21074
858.864	21009
858.997	21028
859.13	20979
859.263	21001
859.396	21013
859.529	20986
859.662	20944
859.795	20891
859.928	21013
860.061	21104
860.194	21256
860.327	21062
860.46	21001
860.592	21058
860.725	21119
860.858	21032
860.99	21013
861.123	20963
861.256	20804
861.388	21001
861.521	21610
861.653	20811
861.786	20849
861.918	20883
862.05	20937
862.183	20986
862.315	20804
862.447	21013
862.58	20830
862.712	20750
862.844	20697
862.976	20864
863.108	20769
863.24	21180
863.372	20659
863.504	20735
863.636	20697
863.768	20773
863.9	20773
864.032	20564
864.164	20632
864.296	20731
864.428	20845
864.559	20807
864.691	20811
864.823	20670
864.954	20762
865.086	20921
865.217	20621
865.349	20507
865.48	20663
865.612	20625
865.743	20792
865.875	20636
866.006	20617
866.137	20648
866.269	20568
866.4	20663
866.531	20438
866.662	20415
866.793	20522
866.924	20606
867.055	20629
867.186	20495
867.317	20594
867.448	20362
867.579	20625
867.71	20423
867.841	20446
867.972	20549
868.103	20499
868.233	20609
868.364	20423
868.495	20648
868.625	20773
868.756	20910
868.886	20682
869.017	20868
869.147	20864
869.278	20979
869.408	20735
869.539	20773
869.669	20990
869.799	20891
869.929	20880
870.06	20883
870.19	21096
870.32	21096
870.45	21195
870.58	21024
870.71	21249
870.84	21332
870.97	21192
871.1	21096
871.23	21382
871.36	21321
871.489	21294
871.619	21344
871.749	21435
871.879	21382
872.008	21488
872.138	21428
872.267	21363
872.397	21325
872.526	21230
872.656	21241
872.785	21241
872.915	21397
873.044	21447
873.173	21344
873.303	21424
873.432	21450
873.561	21466
873.69	21355
873.819	21424
873.948	21568
874.077	21389
874.206	21450
874.335	21447
874.464	21443
874.593	21656
874.722	21576
874.851	21728
874.979	21561
875.108	21751
875.237	21633
875.365	21492
875.494	21644
875.623	21743
875.751	21576
875.88	21671
876.008	21720
876.136	21762
876.265	22120
876.393	22116
876.521	22139
876.65	22238
876.778	22032
876.906	22029
877.034	21888
877.162	22105
877.29	21907
877.418	21876
877.546	21987
877.674	21949
877.802	21907
877.93	21911
878.058	21983
878.185	22124
878.313	21884
878.441	21953
878.568	21930
878.696	21785
878.824	21953
878.951	21983
879.079	22109
879.206	22333
879.333	22207
879.461	22063
879.588	22051
879.715	22143
879.842	22295
879.97	22055
880.097	21911
880.224	21937
880.351	21823
880.478	21793
880.605	21739
880.732	21895
880.859	21945
880.986	21903
881.112	21705
881.239	21625
881.366	21557
881.493	21431
881.619	21412
881.746	21416
881.872	21454
881.999	21408
882.125	21492
882.252	21564
882.378	21378
882.505	21469
882.631	21135
882.757	21051
882.883	21188
883.01	21070
883.136	21104
883.262	20994
883.388	20982
883.514	21165
883.64	21108
883.766	20994
883.892	20956
884.018	20914
884.143	21077
884.269	21146
884.395	20777
884.52	20674
884.646	20746
884.772	20689
884.897	20564
885.023	20773
885.148	20834
885.274	20918
885.399	20834
885.524	20735
885.65	20686
885.775	20914
885.9	20746
886.025	20921
886.15	20705
886.275	20773
886.4	20701
886.525	20663
886.65	20701
886.775	20629
886.9	20800
887.025	20963
887.149	20804
887.274	20499
887.399	20560
887.523	20454
887.648	20408
887.773	20381
887.897	20598
888.021	20423
888.146	20541
888.27	20465
888.395	20602
888.519	20621
888.643	20511
888.767	20583
888.891	20450
889.015	20336
889.139	20377
889.263	20218
889.387	20408
889.511	20480
889.635	20530
889.759	20199
889.883	20381
890.006	20343
890.13	20393
890.254	20229
890.377	20278
890.501	20126
890.624	19997
890.748	20084
890.871	20027
890.995	19902
891.118	19849
891.241	19982
891.364	20012
891.488	20073
891.611	19864
891.734	19788
891.857	20062
891.98	19951
892.103	20012
892.226	19833
892.349	19928
892.471	19719
892.594	19704
892.717	19837
892.839	19772
892.962	19772
893.085	19833
893.207	19879
893.33	19734
893.452	19772
893.575	19887
893.697	19875
893.819	19917
893.941	19947
894.064	19898
894.186	19795
894.308	19597
894.43	19868
894.552	19963
894.674	19959
894.796	19666
894.918	19715
895.04	19746
895.161	19921
895.283	19963
895.405	19742
895.526	19704
895.648	19731
895.769	19803
895.891	19868
896.012	19902
896.134	19849
896.255	19742
896.376	19837
896.498	19830
896.619	19803
896.74	19917
896.861	19913
896.982	20115
897.103	20259
897.224	20073
897.345	19986
897.466	19982
897.587	20005
897.708	20248
897.828	20081
897.949	19967
898.07	19925
898.19	19951
898.311	20012
898.431	19917
898.552	20126
898.672	20134
898.792	19997
898.913	19970
899.033	19925
899.153	19811
899.273	19803
899.393	19784
899.513	19791
899.633	19845
899.753	19856
899.873	19822
899.993	19826
900.113	19704
900.232	19871
900.352	19727
900.472	19632
900.591	19537
900.711	19639
900.83	19605
900.95	19666
901.069	19609
901.189	19411
901.308	19244
901.427	19190
901.546	19194
901.665	19327
901.784	19152
901.904	19031
902.023	19050
902.141	18768
902.26	18852
902.379	18707
902.498	18703
902.617	18597
902.735	18806
902.854	18642
902.973	18665
903.091	18391
903.21	18410
903.328	18380
903.446	18346
903.565	18171
903.683	18201
903.801	18133
903.919	18106
904.038	18136
904.156	17954
904.274	17973
904.392	17977
904.51	17847
904.627	17996
904.745	17992
904.863	17996
904.981	17691
905.098	17634
905.216	17615
905.334	17687
905.451	17608
905.569	17581
905.686	17668
905.803	17444
905.921	17383
906.038	17482
906.155	17345
906.272	17220
906.389	17353
906.506	17235
906.623	17124
906.74	17212
906.857	17037
906.974	16942
907.091	17170
907.208	17280
907.324	17170
907.441	17022
907.557	16820
907.674	16816
907.79	16793
907.907	16843
908.023	16915
908.139	16911
908.256	16812
908.372	16679
908.488	16649
908.604	16588
908.72	16508
908.836	16558
908.952	16500
909.068	16554
909.184	16596
909.3	16535
909.415	16565
909.531	16634
909.647	16276
909.762	16344
909.878	16207
909.993	16341
910.108	16272
910.224	16341
910.339	16162
910.454	16017
910.57	15960
910.685	15998
910.8	16333
910.915	16192
911.03	16131
911.145	15930
911.259	15876
911.374	15892
911.489	15888
911.604	15720
911.718	15679
911.833	15576
911.947	15534
912.062	15587
912.176	15690
912.291	15762
912.405	15709
912.519	15759
912.633	15816
912.748	15762
912.862	15572
912.976	15485
913.09	15359
913.204	15443
913.318	15485
913.431	15500
913.545	15561
913.659	15561
913.772	15374
913.886	15367
914	15294
914.113	15249
914.226	15332
914.34	15325
914.453	15108
914.566	15359
914.68	15070
914.793	15055
914.906	14918
915.019	14880
915.132	14845
915.245	14880
915.358	14872
915.47	14868
915.583	14857
915.696	14956
915.809	14925
915.921	15005
916.034	14720
916.146	14845
916.259	14765
916.371	14887
916.483	14868
916.595	14587
916.708	14708
916.82	14651
916.932	14674
917.044	14632
917.156	14571
917.268	14495
917.38	14617
917.491	14469
917.603	14632
917.715	14613
917.826	14632
917.938	14404
918.049	14351
918.161	14541
918.272	14640
918.384	14495
918.495	14495
918.606	14317
918.717	14180
918.828	14358
918.939	14332
919.05	14187
919.161	14210
919.272	14020
919.383	14225
919.494	14301
919.604	14438
919.715	14301
919.826	14130
919.936	14221
920.047	14347
920.157	14347
920.267	14484
920.378	14256
920.488	14248
920.598	14396
920.708	14514
920.818	14336
920.928	14374
921.038	14556
921.148	14552
921.258	14138
921.368	14119
921.477	14138
921.587	13982
921.697	13864
921.806	13967
921.916	13780
922.025	13734
922.134	13655
922.244	13533
922.353	13681
922.462	13537
922.571	13403
922.68	13392
922.789	13270
922.898	13285
923.007	13266
923.116	13308
923.224	13316
923.333	13251
923.442	13149
923.55	13076
923.659	13164
923.767	13122
923.876	13034
923.984	13152
924.092	12977
924.201	13133
924.309	13019
924.417	13118
924.525	12939
924.633	12935
924.741	13791
924.849	12768
924.956	12856
925.064	12734
925.172	12764
925.279	12749
925.387	12722
925.494	12757
925.602	12821
925.709	12795
925.816	12662
925.924	12703
926.031	12719
926.138	12654
926.245	12741
926.352	12563
926.459	12665
926.566	12715
926.673	12669
926.779	12498
926.886	12509
926.993	12346
927.099	12376
927.206	12262
927.312	12315
927.419	12323
927.525	12315
927.631	12323
927.737	12209
927.843	12129
927.95	12019
928.056	12148
928.162	12098
928.267	12190
928.373	12833
928.479	12159
928.585	11927
928.69	12064
928.796	12110
928.901	12049
929.007	11802
929.112	12022
929.218	11923
929.323	11885
929.428	11878
929.533	12060
929.638	11809
929.743	11794
929.848	11828
929.953	11821
930.058	11805
930.163	11543
930.267	11577
930.372	11726
930.477	11497
930.581	11851
930.685	11638
930.79	11455
930.894	11474
930.998	11406
931.103	11497
931.207	11197
931.311	11075
931.415	10980
931.519	10801
931.623	10850
