Data from test_V78500241_320.txt Node
Date: Fri Mar 25 15:44:01 CST 2022
User: usil
Spectrometer: V785-0024
Trigger mode: 0
Integration Time (sec): 4.000000E-1
Scans to average: 1
Nonlinearity correction enabled: false
Boxcar width: 0
Storing dark spectrum: false
XAxis mode: Wavelengths
Number of Pixels in Spectrum: 1024
>>>>>Begin Spectral Data<<<<<
801.071	29779
801.214	29794
801.356	29649
801.499	29611
801.641	29516
801.783	29482
801.926	29543
802.068	29421
802.211	29265
802.353	29208
802.496	29189
802.638	29109
802.78	29140
802.923	29231
803.065	28995
803.208	29079
803.35	29239
803.492	29121
803.635	29452
803.777	29311
803.919	29345
804.061	29722
804.204	29383
804.346	29269
804.488	29288
804.63	29318
804.773	29128
804.915	29193
805.057	29303
805.199	29490
805.341	29299
805.483	29395
805.626	29372
805.768	29284
805.91	29395
806.052	29516
806.194	29189
806.336	29414
806.478	29459
806.62	29490
806.762	29600
806.904	29668
807.046	29916
807.188	29878
807.33	29798
807.472	30045
807.614	29684
807.756	29783
807.898	29684
808.04	29619
808.182	29676
808.324	29703
808.465	29657
808.607	29771
808.749	29942
808.891	30197
809.033	30289
809.174	30243
809.316	30018
809.458	30098
809.6	30095
809.741	30098
809.883	30228
810.025	30300
810.166	30323
810.308	30281
810.45	30308
810.591	30342
810.733	30216
810.875	30053
811.016	30106
811.158	30106
811.299	30083
811.441	30216
811.582	30380
811.724	30155
811.865	29973
812.007	30091
812.148	29950
812.29	30205
812.431	30102
812.573	30399
812.714	30517
812.855	30597
812.997	30745
813.138	30817
813.279	30798
813.421	30631
813.562	30616
813.703	30372
813.845	30323
813.986	30083
814.127	29802
814.268	29737
814.41	29703
814.551	29714
814.692	29802
814.833	29707
814.974	29821
815.115	29840
815.256	29630
815.397	29668
815.539	29474
815.68	29410
815.821	29474
815.962	29608
816.103	29543
816.244	29452
816.385	29330
816.526	29318
816.666	29060
816.807	29113
816.948	29029
817.089	29132
817.23	29140
817.371	28858
817.512	28946
817.653	28995
817.793	28915
817.934	28942
818.075	28980
818.216	29029
818.356	28881
818.497	28961
818.638	28691
818.778	28645
818.919	28740
819.06	28782
819.2	28854
819.341	28888
819.481	28904
819.622	29010
819.762	29467
819.903	29121
820.043	29216
820.184	29048
820.324	29113
820.465	29121
820.605	29178
820.746	29128
820.886	28942
821.026	29003
821.167	29033
821.307	28965
821.447	29056
821.588	28877
821.728	28782
821.868	28596
822.008	28481
822.149	28356
822.289	28287
822.429	28090
822.569	28059
822.709	27937
822.849	27895
822.99	27888
823.13	27884
823.27	27899
823.41	27637
823.55	27652
823.69	27682
823.83	27713
823.97	27675
824.11	27610
824.25	27351
824.389	27481
824.529	27561
824.669	27401
824.809	27610
824.949	27454
825.089	27557
825.228	27507
825.368	27393
825.508	27218
825.648	27462
825.787	27298
825.927	27332
826.067	27370
826.206	27249
826.346	27272
826.485	27272
826.625	27458
826.765	27481
826.904	27260
827.044	26952
827.183	27074
827.323	27032
827.462	27119
827.601	26979
827.741	26960
827.88	27058
828.02	26910
828.159	26975
828.298	27104
828.437	27020
828.577	26872
828.716	27112
828.855	26845
828.994	26720
829.134	26727
829.273	26667
829.412	26769
829.551	26750
829.69	26617
829.829	26769
829.968	26625
830.107	26625
830.246	26632
830.385	26492
830.524	26355
830.663	26480
830.802	26275
830.941	26172
831.08	26225
831.219	26271
831.357	26225
831.496	26484
831.635	26275
831.774	26164
831.913	26206
832.051	26020
832.19	26027
832.329	26062
832.467	25959
832.606	25864
832.744	25864
832.883	25887
833.022	25811
833.16	25845
833.299	26008
833.437	25959
833.576	25974
833.714	25940
833.852	25955
833.991	26008
834.129	25978
834.267	25955
834.406	25932
834.544	25925
834.682	25799
834.821	25925
834.959	26126
835.097	25936
835.235	25883
835.373	25940
835.511	25738
835.65	25700
835.788	25799
835.926	25613
836.064	25457
836.202	25434
836.34	25677
836.478	25708
836.615	25715
836.753	25704
836.891	25814
837.029	25666
837.167	25670
837.305	25540
837.443	25487
837.58	25540
837.718	25529
837.856	25681
837.993	25476
838.131	25605
838.269	25354
838.406	25457
838.544	25236
838.681	25080
838.819	25069
838.956	25019
839.094	24943
839.231	25046
839.369	25004
839.506	25282
839.643	25194
839.781	25008
839.918	24829
840.055	24924
840.193	24859
840.33	24829
840.467	24837
840.604	24992
840.742	25122
840.879	24753
841.016	24753
841.153	24726
841.29	24928
841.427	24886
841.564	24833
841.701	24856
841.838	24692
841.975	24604
842.112	24658
842.249	24635
842.385	24574
842.522	24844
842.659	24642
842.796	24509
842.933	24483
843.069	24486
843.206	24471
843.343	24589
843.479	24422
843.616	24601
843.752	24327
843.889	24426
844.025	24536
844.162	24201
844.298	24323
844.435	24289
844.571	24125
844.708	24388
844.844	24418
844.98	24452
845.117	24350
845.253	24186
845.389	24087
845.525	24163
845.661	24102
845.798	24041
845.934	24064
846.07	24053
846.206	23961
846.342	24194
846.478	23893
846.614	23783
846.75	23653
846.886	23665
847.022	23859
847.158	23714
847.294	23733
847.429	23741
847.565	23687
847.701	24003
847.837	23531
847.972	23360
848.108	23512
848.244	23585
848.379	23387
848.515	23174
848.65	23208
848.786	23143
848.921	23356
849.057	23364
849.192	23391
849.328	23280
849.463	23353
849.598	23140
849.734	23185
849.869	23018
850.004	23018
850.14	23067
850.275	22995
850.41	23003
850.545	23003
850.68	22991
850.815	23052
850.95	22915
851.085	23147
851.22	23071
851.355	22984
851.49	23044
851.625	22919
851.76	22934
851.895	23033
852.03	22915
852.165	23067
852.299	22999
852.434	23124
852.569	23071
852.703	22976
852.838	22999
852.973	23151
853.107	23113
853.242	22949
853.376	22828
853.511	22755
853.645	22755
853.78	22847
853.914	22820
854.048	22710
854.183	22721
854.317	22885
854.451	22930
854.585	22858
854.72	22866
854.854	22835
854.988	22656
855.122	22904
855.256	22660
855.39	22824
855.524	22866
855.658	22637
855.792	22733
855.926	22873
856.06	22889
856.194	22847
856.327	22919
856.461	22641
856.595	22645
856.729	22660
856.862	22919
856.996	22908
857.13	22748
857.263	22862
857.397	22828
857.53	22854
857.664	22706
857.797	22850
857.931	22790
858.064	22759
858.197	22854
858.331	22713
858.464	22622
858.597	22584
858.731	22653
858.864	22656
858.997	22653
859.13	22698
859.263	22698
859.396	22904
859.529	22748
859.662	22656
859.795	22691
859.928	22691
860.061	22946
860.194	22885
860.327	22782
860.46	22755
860.592	22908
860.725	22938
860.858	22869
860.99	22767
861.123	22615
861.256	22664
861.388	22596
861.521	23425
861.653	22596
861.786	22500
861.918	22649
862.05	22634
862.183	22805
862.315	22702
862.447	22656
862.58	22744
862.712	22421
862.844	22421
862.976	22405
863.108	22417
863.24	22869
863.372	22287
863.504	22409
863.636	22493
863.768	22440
863.9	22367
864.032	22276
864.164	22447
864.296	22409
864.428	22500
864.559	22508
864.691	22527
864.823	22371
864.954	22485
865.086	22455
865.217	22443
865.349	22215
865.48	22375
865.612	22303
865.743	22352
865.875	22257
866.006	22299
866.137	22303
866.269	22219
866.4	22261
866.531	22185
866.662	22120
866.793	22200
866.924	22268
867.055	22379
867.186	22295
867.317	22128
867.448	22116
867.579	22040
867.71	22044
867.841	22116
867.972	22143
868.103	22124
868.233	22295
868.364	22204
868.495	22314
868.625	22398
868.756	22557
868.886	22386
869.017	22432
869.147	22470
869.278	22573
869.408	22504
869.539	22489
869.669	22527
869.799	22497
869.929	22470
870.06	22668
870.19	22828
870.32	22778
870.45	22759
870.58	22965
870.71	22889
870.84	22965
870.97	22873
871.1	22911
871.23	23025
871.36	23056
871.489	22991
871.619	23056
871.749	23094
871.879	23166
872.008	23128
872.138	23075
872.267	23136
872.397	22896
872.526	22889
872.656	22942
872.785	22820
872.915	23178
873.044	23094
873.173	23052
873.303	23056
873.432	23075
873.561	23220
873.69	23083
873.819	23025
873.948	23140
874.077	23102
874.206	22923
874.335	23052
874.464	23136
874.593	23239
874.722	23235
874.851	23364
874.979	23242
875.108	23223
875.237	23193
875.365	23155
875.494	23128
875.623	23250
875.751	23246
875.88	23254
876.008	23398
876.136	23493
876.265	23638
876.393	23786
876.521	23699
876.65	23665
876.778	23577
876.906	23661
877.034	23558
877.162	23653
877.29	23539
877.418	23589
877.546	23566
877.674	23524
877.802	23615
877.93	23528
878.058	23509
878.185	23497
878.313	23573
878.441	23558
878.568	23417
878.696	23463
878.824	23573
878.951	23589
879.079	23703
879.206	23931
879.333	23798
879.461	23638
879.588	23832
879.715	23817
879.842	23847
879.97	23623
880.097	23372
880.224	23509
880.351	23391
880.478	23444
880.605	23372
880.732	23417
880.859	23676
880.986	23482
881.112	23360
881.239	23261
881.366	23174
881.493	23048
881.619	23041
881.746	23033
881.872	23006
881.999	22984
882.125	22866
882.252	23064
882.378	23033
882.505	23025
882.631	22820
882.757	22729
882.883	22733
883.01	22611
883.136	22653
883.262	22611
883.388	22443
883.514	22630
883.64	22687
883.766	22660
883.892	22546
884.018	22375
884.143	22698
884.269	22748
884.395	22280
884.52	22226
884.646	22341
884.772	22246
884.897	22177
885.023	22367
885.148	22409
885.274	22485
885.399	22436
885.524	22284
885.65	22329
885.775	22295
885.9	22249
886.025	22447
886.15	22280
886.275	22223
886.4	22215
886.525	22185
886.65	22207
886.775	22257
886.9	22386
887.025	22599
887.149	22196
887.274	22112
887.399	22074
887.523	21994
887.648	22029
887.773	22021
887.897	22101
888.021	22021
888.146	22017
888.27	22124
888.395	22177
888.519	22162
888.643	22090
888.767	22051
888.891	21869
889.015	21895
889.139	21774
889.263	21831
889.387	21998
889.511	22101
889.635	21930
889.759	21720
889.883	21701
890.006	21854
890.13	21899
890.254	21762
890.377	21698
890.501	21428
890.624	21504
890.748	21606
890.871	21443
890.995	21367
891.118	21329
891.241	21351
891.364	21348
891.488	21504
891.611	21496
891.734	21359
891.857	21393
891.98	21374
892.103	21485
892.226	21306
892.349	21332
892.471	21150
892.594	21222
892.717	21176
892.839	21230
892.962	21211
893.085	21321
893.207	21367
893.33	21161
893.452	21146
893.575	21351
893.697	21180
893.819	21408
893.941	21363
894.064	21454
894.186	21070
894.308	21104
894.43	21302
894.552	21408
894.674	21252
894.796	21237
894.918	21264
895.04	21211
895.161	21211
895.283	21218
895.405	21173
895.526	21260
895.648	21214
895.769	21218
895.891	21226
896.012	21230
896.134	21264
896.255	21214
896.376	21165
896.498	21165
896.619	21222
896.74	21199
896.861	21428
896.982	21599
897.103	21797
897.224	21561
897.345	21511
897.466	21367
897.587	21431
897.708	21614
897.828	21523
897.949	21431
898.07	21336
898.19	21317
898.311	21488
898.431	21370
898.552	21408
898.672	21447
898.792	21298
898.913	21405
899.033	21226
899.153	21131
899.273	21066
899.393	21062
899.513	21138
899.633	21165
899.753	21077
899.873	20982
899.993	21009
900.113	20994
900.232	21058
900.352	21077
900.472	21013
900.591	20876
900.711	20872
900.83	20960
900.95	20880
901.069	21017
901.189	20754
901.308	20640
901.427	20389
901.546	20503
901.665	20537
901.784	20598
901.904	20332
902.023	20206
902.141	20050
902.26	20065
902.379	19986
902.498	20046
902.617	19856
902.735	19917
902.854	19921
902.973	19940
903.091	19662
903.21	19670
903.328	19609
903.446	19529
903.565	19381
903.683	19525
903.801	19255
903.919	19255
904.038	19285
904.156	19084
904.274	19209
904.392	19190
904.51	19046
904.627	19046
904.745	19236
904.863	19141
904.981	18913
905.098	18909
905.216	18726
905.334	18840
905.451	18749
905.569	18669
905.686	18848
905.803	18741
905.921	18589
906.038	18616
906.155	18540
906.272	18532
906.389	18467
906.506	18403
906.623	18319
906.74	18369
906.857	18186
906.974	18254
907.091	18376
907.208	18429
907.324	18407
907.441	18357
907.557	18072
907.674	17931
907.79	17901
907.907	17901
908.023	18049
908.139	18019
908.256	17969
908.372	17870
908.488	17783
908.604	17714
908.72	17653
908.836	17676
908.952	17642
909.068	17756
909.184	17851
909.3	17760
909.415	17790
909.531	17642
909.647	17440
909.762	17265
909.878	17360
909.993	17398
910.108	17334
910.224	17364
910.339	17326
910.454	17318
910.57	17269
910.685	17060
910.8	17417
910.915	17299
911.03	17128
911.145	16965
911.259	16911
911.374	16984
911.489	16881
911.604	16729
911.718	16698
911.833	16710
911.947	16611
912.062	16500
912.176	16782
912.291	16691
912.405	16729
912.519	16965
912.633	16869
912.748	16656
912.862	16546
912.976	16455
913.09	16306
913.204	16424
913.318	16523
913.431	16531
913.545	16485
913.659	16611
913.772	16455
913.886	16287
914	16261
914.113	16348
914.226	16436
914.34	16352
914.453	16219
914.566	16352
914.68	16196
914.793	16090
914.906	15956
915.019	15869
915.132	15857
915.245	15926
915.358	15930
915.47	15869
915.583	15888
915.696	15937
915.809	16013
915.921	15968
916.034	15759
916.146	15675
916.259	15759
916.371	15861
916.483	15869
916.595	15637
916.708	15724
916.82	15622
916.932	15739
917.044	15652
917.156	15618
917.268	15424
917.38	15549
917.491	15652
917.603	15576
917.715	15622
917.826	15572
917.938	15435
918.049	15237
918.161	15466
918.272	15511
918.384	15504
918.495	15397
918.606	15165
918.717	15298
918.828	15317
918.939	15294
919.05	15142
919.161	15226
919.272	15070
919.383	15176
919.494	15249
919.604	15397
919.715	15165
919.826	15214
919.936	15157
920.047	15306
920.157	15154
920.267	15374
920.378	15283
920.488	15203
920.598	15291
920.708	15412
920.818	15272
920.928	15287
921.038	15591
921.148	15488
921.258	15188
921.368	15104
921.477	14842
921.587	14982
921.697	14796
921.806	14948
921.916	14754
922.025	14617
922.134	14625
922.244	14492
922.353	14549
922.462	14533
922.571	14366
922.68	14252
922.789	14206
922.898	14183
923.007	14065
923.116	14161
923.224	14164
923.333	14149
923.442	13967
923.55	13932
923.659	14081
923.767	14069
923.876	13879
923.984	13993
924.092	13837
924.201	13940
924.309	13890
924.417	13822
924.525	13852
924.633	13776
924.741	14720
924.849	13613
924.956	13731
925.064	13666
925.172	13411
925.279	13552
925.387	13674
925.494	13559
925.602	13753
925.709	13571
925.816	13521
925.924	13571
926.031	13616
926.138	13476
926.245	13567
926.352	13415
926.459	13502
926.566	13514
926.673	13430
926.779	13244
926.886	13297
926.993	13069
927.099	13050
927.206	12996
927.312	13072
927.419	13050
927.525	13179
927.631	13149
927.737	12954
927.843	12821
927.95	12787
928.056	12810
928.162	12913
928.267	12935
928.373	13468
928.479	12859
928.585	12787
928.69	12833
928.796	12825
928.901	12719
929.007	12547
929.112	12665
929.218	12700
929.323	12627
929.428	12623
929.533	12772
929.638	12578
929.743	12582
929.848	12582
929.953	12479
930.058	12479
930.163	12228
930.267	12273
930.372	12414
930.477	12254
930.581	12422
930.685	12292
930.79	12083
930.894	12182
930.998	12133
931.103	12266
931.207	11813
931.311	11745
931.415	11707
931.519	11581
931.623	11463
