Data from test_V78500241_2473.txt Node
Date: Fri Mar 25 15:58:55 CST 2022
User: usil
Spectrometer: V785-0024
Trigger mode: 0
Integration Time (sec): 4.000000E-1
Scans to average: 1
Nonlinearity correction enabled: false
Boxcar width: 0
Storing dark spectrum: false
XAxis mode: Wavelengths
Number of Pixels in Spectrum: 1024
>>>>>Begin Spectral Data<<<<<
801.071	28466
801.214	28390
801.356	28280
801.499	28196
801.641	28002
801.783	28135
801.926	27994
802.068	27831
802.211	27838
802.353	27979
802.496	27766
802.638	27660
802.78	27603
802.923	27682
803.065	27595
803.208	27686
803.35	27766
803.492	27945
803.635	27914
803.777	27914
803.919	27960
804.061	28238
804.204	27895
804.346	27808
804.488	27804
804.63	27762
804.773	27800
804.915	27941
805.057	28086
805.199	28055
805.341	27987
805.483	28010
805.626	28101
805.768	27831
805.91	28010
806.052	28051
806.194	28048
806.336	28158
806.478	28067
806.62	28124
806.762	28162
806.904	28246
807.046	28557
807.188	28409
807.33	28554
807.472	28622
807.614	28379
807.756	28341
807.898	28314
808.04	28200
808.182	28192
808.324	28409
808.465	28474
808.607	28527
808.749	28687
808.891	28866
809.033	28949
809.174	28752
809.316	28618
809.458	28611
809.6	28656
809.741	28900
809.883	28805
810.025	29006
810.166	28908
810.308	29056
810.45	28991
810.591	28824
810.733	28626
810.875	28706
811.016	28645
811.158	28725
811.299	28778
811.441	28740
811.582	28793
811.724	28733
811.865	28729
812.007	28687
812.148	28847
812.29	28759
812.431	28953
812.573	28885
812.714	29064
812.855	29284
812.997	29375
813.138	29341
813.279	29425
813.421	29288
813.562	29181
813.703	28976
813.845	28953
813.986	28782
814.127	28527
814.268	28440
814.41	28409
814.551	28337
814.692	28497
814.833	28436
814.974	28337
815.115	28375
815.256	28295
815.397	28169
815.539	28185
815.68	28177
815.821	28139
815.962	28276
816.103	28230
816.244	28139
816.385	28029
816.526	27930
816.666	27675
816.807	27808
816.948	27812
817.089	27842
817.23	27762
817.371	27789
817.512	27690
817.653	27610
817.793	27644
817.934	27675
818.075	27682
818.216	27709
818.356	27610
818.497	27450
818.638	27526
818.778	27481
818.919	27393
819.06	27614
819.2	27637
819.341	27709
819.481	27781
819.622	27926
819.762	28162
819.903	27907
820.043	27869
820.184	27774
820.324	27808
820.465	27903
820.605	27903
820.746	27850
820.886	27690
821.026	27781
821.167	27743
821.307	27854
821.447	27800
821.588	27610
821.728	27622
821.868	27367
822.008	27264
822.149	27226
822.289	27157
822.429	27039
822.569	26838
822.709	26857
822.849	26648
822.99	26872
823.13	26823
823.27	26568
823.41	26552
823.55	26480
823.69	26590
823.83	26556
823.97	26499
824.11	26324
824.25	26130
824.389	26328
824.529	26492
824.669	26537
824.809	26415
824.949	26518
825.089	26476
825.228	26339
825.368	26244
825.508	26126
825.648	26252
825.787	26244
825.927	26252
826.067	26202
826.206	26195
826.346	26328
826.485	26157
826.625	26233
826.765	26290
826.904	26221
827.044	26138
827.183	26020
827.323	25947
827.462	26054
827.601	26008
827.741	25883
827.88	26043
828.02	25700
828.159	25959
828.298	25932
828.437	26069
828.577	25837
828.716	26016
828.855	25963
828.994	25814
829.134	25666
829.273	25586
829.412	25635
829.551	25704
829.69	25658
829.829	25712
829.968	25647
830.107	25871
830.246	25609
830.385	25491
830.524	25487
830.663	25438
830.802	25388
830.941	25320
831.08	25183
831.219	25362
831.357	25270
831.496	25430
831.635	25324
831.774	25122
831.913	25190
832.051	24992
832.19	25065
832.329	25164
832.467	24977
832.606	24890
832.744	24833
832.883	24954
833.022	24966
833.16	24897
833.299	24840
833.437	24935
833.576	24989
833.714	24943
833.852	25050
833.991	25156
834.129	25080
834.267	25000
834.406	25095
834.544	25023
834.682	24996
834.821	24958
834.959	25164
835.097	24954
835.235	25053
835.373	24939
835.511	24913
835.65	24894
835.788	24757
835.926	24802
836.064	24612
836.202	24627
836.34	24840
836.478	24852
836.615	24810
836.753	24935
836.891	24768
837.029	24757
837.167	24688
837.305	24654
837.443	24707
837.58	24585
837.718	24734
837.856	24700
837.993	24513
838.131	24677
838.269	24498
838.406	24684
838.544	24422
838.681	24270
838.819	24220
838.956	23996
839.094	24125
839.231	24243
839.369	24285
839.506	24528
839.643	24308
839.781	24083
839.918	24007
840.055	24159
840.193	24060
840.33	23954
840.467	24057
840.604	24110
840.742	24353
840.879	23889
841.016	23916
841.153	23783
841.29	23996
841.427	24022
841.564	23980
841.701	24007
841.838	23882
841.975	23954
842.112	23893
842.249	23847
842.385	23748
842.522	23973
842.659	23866
842.796	23783
842.933	23794
843.069	23767
843.206	23684
843.343	23874
843.479	23840
843.616	23798
843.752	23581
843.889	23570
844.025	23611
844.162	23547
844.298	23512
844.435	23535
844.571	23474
844.708	23551
844.844	23745
844.98	23665
845.117	23596
845.253	23562
845.389	23341
845.525	23406
845.661	23410
845.798	23273
845.934	23330
846.07	23174
846.206	23307
846.342	23410
846.478	23360
846.614	23071
846.75	22915
846.886	23014
847.022	22995
847.158	23064
847.294	22980
847.429	23155
847.565	23014
847.701	23269
847.837	22831
847.972	22622
848.108	22816
848.244	22717
848.379	22481
848.515	22634
848.65	22485
848.786	22542
848.921	22535
849.057	22706
849.192	22584
849.328	22588
849.463	22622
849.598	22535
849.734	22462
849.869	22367
850.004	22314
850.14	22398
850.275	22428
850.41	22272
850.545	22325
850.68	22303
850.815	22443
850.95	22386
851.085	22615
851.22	22470
851.355	22402
851.49	22356
851.625	22322
851.76	22344
851.895	22246
852.03	22257
852.165	22310
852.299	22284
852.434	22424
852.569	22242
852.703	22382
852.838	22417
852.973	22440
853.107	22432
853.242	22200
853.376	22200
853.511	22158
853.645	22074
853.78	22306
853.914	22230
854.048	22021
854.183	22055
854.317	22226
854.451	22421
854.585	22181
854.72	22249
854.854	22242
854.988	22070
855.122	22211
855.256	21994
855.39	22158
855.524	22344
855.658	22101
855.792	22223
855.926	22120
856.06	22226
856.194	22284
856.327	22166
856.461	22154
856.595	22109
856.729	22143
856.862	22325
856.996	22162
857.13	22386
857.263	22333
857.397	22154
857.53	22177
857.664	22196
857.797	22234
857.931	22124
858.064	22112
858.197	22356
858.331	22169
858.464	22215
858.597	22097
858.731	22154
858.864	22238
858.997	22109
859.13	22116
859.263	22196
859.396	22253
859.529	22173
859.662	22287
859.795	22048
859.928	22246
860.061	22268
860.194	22352
860.327	22162
860.46	22261
860.592	22253
860.725	22173
860.858	22375
860.99	22272
861.123	22059
861.256	22055
861.388	22135
861.521	23041
861.653	22025
861.786	21998
861.918	22025
862.05	22131
862.183	22078
862.315	22109
862.447	22135
862.58	22143
862.712	21869
862.844	21781
862.976	21972
863.108	22017
863.24	22188
863.372	21842
863.504	21895
863.636	21918
863.768	21892
863.9	21835
864.032	21728
864.164	21808
864.296	21934
864.428	21983
864.559	21998
864.691	22010
864.823	21857
864.954	21804
865.086	21850
865.217	21755
865.349	21622
865.48	21778
865.612	21686
865.743	21850
865.875	21854
866.006	21819
866.137	21789
866.269	21739
866.4	21770
866.531	21682
866.662	21713
866.793	21663
866.924	21648
867.055	21755
867.186	21580
867.317	21701
867.448	21656
867.579	21629
867.71	21557
867.841	21591
867.972	21679
868.103	21641
868.233	21679
868.364	21561
868.495	21781
868.625	21907
868.756	21953
868.886	21895
869.017	21964
869.147	22086
869.278	22040
869.408	21918
869.539	21983
869.669	22040
869.799	21930
869.929	22036
870.06	21953
870.19	22185
870.32	22295
870.45	22211
870.58	22299
870.71	22409
870.84	22379
870.97	22276
871.1	22508
871.23	22531
871.36	22497
871.489	22451
871.619	22451
871.749	22405
871.879	22481
872.008	22691
872.138	22542
872.267	22447
872.397	22402
872.526	22341
872.656	22242
872.785	22440
872.915	22618
873.044	22664
873.173	22592
873.303	22592
873.432	22580
873.561	22626
873.69	22668
873.819	22538
873.948	22611
874.077	22554
874.206	22645
874.335	22584
874.464	22706
874.593	22801
874.722	22755
874.851	22740
874.979	22858
875.108	22782
875.237	22668
875.365	22664
875.494	22592
875.623	22744
875.751	22645
875.88	22858
876.008	22854
876.136	22976
876.265	23239
876.393	23242
876.521	23239
876.65	23280
876.778	23220
876.906	23170
877.034	23113
877.162	23151
877.29	23018
877.418	23105
877.546	23121
877.674	23033
877.802	23189
877.93	23117
878.058	23064
878.185	23025
878.313	22976
878.441	23079
878.568	22957
878.696	22961
878.824	23064
878.951	23094
879.079	23265
879.206	23273
879.333	23239
879.461	23102
879.588	23231
879.715	23395
879.842	23334
879.97	23239
880.097	22965
880.224	22805
880.351	22934
880.478	22911
880.605	22911
880.732	22911
880.859	23284
880.986	22968
881.112	22930
881.239	22740
881.366	22618
881.493	22630
881.619	22455
881.746	22527
881.872	22478
881.999	22428
882.125	22360
882.252	22516
882.378	22481
882.505	22550
882.631	22421
882.757	22128
882.883	22261
883.01	22204
883.136	22090
883.262	22090
883.388	22010
883.514	22090
883.64	22204
883.766	22124
883.892	21907
884.018	22013
884.143	22105
884.269	22101
884.395	21808
884.52	21755
884.646	21774
884.772	21892
884.897	21732
885.023	21781
885.148	21808
885.274	21698
885.399	21945
885.524	21751
885.65	21816
885.775	21808
885.9	21724
886.025	21873
886.15	21907
886.275	21759
886.4	21747
886.525	21694
886.65	21576
886.775	21793
886.9	21785
887.025	22082
887.149	21819
887.274	21759
887.399	21591
887.523	21545
887.648	21500
887.773	21454
887.897	21622
888.021	21507
888.146	21485
888.27	21656
888.395	21595
888.519	21576
888.643	21667
888.767	21648
888.891	21485
889.015	21363
889.139	21485
889.263	21321
889.387	21416
889.511	21568
889.635	21542
889.759	21252
889.883	21405
890.006	21386
890.13	21549
890.254	21272
890.377	21336
890.501	21138
890.624	21093
890.748	21275
890.871	21085
890.995	20925
891.118	20853
891.241	20948
891.364	20876
891.488	21062
891.611	20982
891.734	20975
891.857	20956
891.98	20910
892.103	20906
892.226	20895
892.349	20708
892.471	20792
892.594	20792
892.717	20830
892.839	20899
892.962	20918
893.085	20910
893.207	20910
893.33	20659
893.452	20693
893.575	20800
893.697	20781
893.819	21009
893.941	20994
894.064	20845
894.186	20708
894.308	20724
894.43	20762
894.552	20956
894.674	20929
894.796	20769
894.918	20750
895.04	20781
895.161	20906
895.283	20823
895.405	20758
895.526	20743
895.648	20746
895.769	20815
895.891	20883
896.012	20925
896.134	20785
896.255	20830
896.376	20781
896.498	20788
896.619	20701
896.74	20689
896.861	20826
896.982	21230
897.103	21260
897.224	21089
897.345	21039
897.466	20948
897.587	20998
897.708	21169
897.828	20986
897.949	20948
898.07	20868
898.19	20910
898.311	21135
898.431	20937
898.552	20975
898.672	21089
898.792	21176
898.913	21127
899.033	20982
899.153	20796
899.273	20663
899.393	20705
899.513	20796
899.633	20845
899.753	20868
899.873	20716
899.993	20811
900.113	20678
900.232	20765
900.352	20518
900.472	20507
900.591	20461
900.711	20511
900.83	20339
900.95	20495
901.069	20613
901.189	20324
901.308	20096
901.427	20107
901.546	20145
901.665	20126
901.784	20138
901.904	19947
902.023	19837
902.141	19670
902.26	19681
902.379	19662
902.498	19670
902.617	19483
902.735	19700
902.854	19578
902.973	19487
903.091	19293
903.21	19129
903.328	19297
903.446	19023
903.565	19042
903.683	19088
903.801	19000
903.919	18973
904.038	19019
904.156	18848
904.274	18886
904.392	18814
904.51	18745
904.627	18764
904.745	18768
904.863	18825
904.981	18639
905.098	18445
905.216	18414
905.334	18559
905.451	18563
905.569	18597
905.686	18448
905.803	18479
905.921	18285
906.038	18372
906.155	18205
906.272	18140
906.389	18171
906.506	18015
906.623	18019
906.74	18038
906.857	17889
906.974	17958
907.091	18007
907.208	18083
907.324	18106
907.441	17840
907.557	17551
907.674	17668
907.79	17722
907.907	17676
908.023	17649
908.139	17752
908.256	17646
908.372	17672
908.488	17528
908.604	17505
908.72	17372
908.836	17383
908.952	17410
909.068	17406
909.184	17532
909.3	17535
909.415	17421
909.531	17395
909.647	17250
909.762	17185
909.878	17102
909.993	17189
910.108	17143
910.224	17113
910.339	17102
910.454	17033
910.57	16911
910.685	16843
910.8	17178
910.915	17090
911.03	16934
911.145	16687
911.259	16626
911.374	16733
911.489	16668
911.604	16577
911.718	16493
911.833	16440
911.947	16424
912.062	16295
912.176	16466
912.291	16550
912.405	16398
912.519	16584
912.633	16717
912.748	16440
912.862	16367
912.976	16280
913.09	16196
913.204	16181
913.318	16299
913.431	16337
913.545	16295
913.659	16379
913.772	16276
913.886	16135
914	16040
914.113	16071
914.226	16112
914.34	16116
914.453	15869
914.566	16116
914.68	15846
914.793	15907
914.906	15728
915.019	15717
915.132	15591
915.245	15614
915.358	15800
915.47	15713
915.583	15648
915.696	15652
915.809	15831
915.921	15778
916.034	15580
916.146	15530
916.259	15584
916.371	15572
916.483	15572
916.595	15488
916.708	15420
916.82	15481
916.932	15424
917.044	15424
917.156	15431
917.268	15241
917.38	15355
917.491	15188
917.603	15302
917.715	15355
917.826	15306
917.938	15112
918.049	15089
918.161	15161
918.272	15294
918.384	15313
918.495	15199
918.606	15020
918.717	14929
918.828	14929
918.939	15039
919.05	15043
919.161	14963
919.272	14750
919.383	14807
919.494	15028
919.604	15291
919.715	15017
919.826	14853
919.936	15013
920.047	14990
920.157	15017
920.267	15039
920.378	14963
920.488	14861
920.598	15169
920.708	15245
920.818	15097
920.928	15138
921.038	15310
921.148	15203
921.258	14887
921.368	14929
921.477	14826
921.587	14701
921.697	14625
921.806	14590
921.916	14526
922.025	14324
922.134	14320
922.244	14267
922.353	14377
922.462	14164
922.571	14187
922.68	14024
922.789	13917
922.898	14039
923.007	13902
923.116	14054
923.224	13982
923.333	14001
923.442	13894
923.55	13788
923.659	13845
923.767	13894
923.876	13795
923.984	13780
924.092	13719
924.201	13841
924.309	13719
924.417	13639
924.525	13613
924.633	13685
924.741	14461
924.849	13441
924.956	13590
925.064	13335
925.172	13335
925.279	13354
925.387	13339
925.494	13358
925.602	13514
925.709	13403
925.816	13213
925.924	13293
926.031	13350
926.138	13324
926.245	13381
926.352	13251
926.459	13304
926.566	13403
926.673	13209
926.779	13080
926.886	13107
926.993	12966
927.099	12970
927.206	12871
927.312	12871
927.419	12932
927.525	12897
927.631	12916
927.737	12848
927.843	12791
927.95	12608
928.056	12730
928.162	12741
928.267	12688
928.373	13388
928.479	12776
928.585	12547
928.69	12757
928.796	12677
928.901	12563
929.007	12372
929.112	12589
929.218	12506
929.323	12513
929.428	12437
929.533	12528
929.638	12429
929.743	12395
929.848	12483
929.953	12452
930.058	12254
930.163	12190
930.267	12163
930.372	12262
930.477	12106
930.581	12304
930.685	12171
930.79	11954
930.894	12007
930.998	11988
931.103	12155
931.207	11794
931.311	11581
931.415	11615
931.519	11391
931.623	11410
