Data from test_V78500241_3725.txt Node
Date: Fri Mar 25 16:07:36 CST 2022
User: usil
Spectrometer: V785-0024
Trigger mode: 0
Integration Time (sec): 4.000000E-1
Scans to average: 1
Nonlinearity correction enabled: false
Boxcar width: 0
Storing dark spectrum: false
XAxis mode: Wavelengths
Number of Pixels in Spectrum: 1024
>>>>>Begin Spectral Data<<<<<
801.071	28207
801.214	28219
801.356	28017
801.499	27956
801.641	27698
801.783	27816
801.926	27831
802.068	27793
802.211	27804
802.353	27648
802.496	27542
802.638	27705
802.78	27530
802.923	27496
803.065	27313
803.208	27603
803.35	27504
803.492	27622
803.635	27675
803.777	27637
803.919	27743
804.061	27960
804.204	27873
804.346	27759
804.488	27637
804.63	27648
804.773	27583
804.915	27793
805.057	27888
805.199	27762
805.341	27865
805.483	27816
805.626	27937
805.768	27819
805.91	27823
806.052	27831
806.194	27762
806.336	27998
806.478	27922
806.62	27884
806.762	27991
806.904	28219
807.046	28394
807.188	28226
807.33	28253
807.472	28287
807.614	28367
807.756	28196
807.898	28306
808.04	28093
808.182	28143
808.324	28188
808.465	28135
808.607	28413
808.749	28554
808.891	28603
809.033	28679
809.174	28527
809.316	28512
809.458	28508
809.6	28599
809.741	28599
809.883	28649
810.025	28858
810.166	28843
810.308	28752
810.45	28755
810.591	28744
810.733	28615
810.875	28653
811.016	28523
811.158	28451
811.299	28527
811.441	28740
811.582	28675
811.724	28421
811.865	28550
812.007	28569
812.148	28500
812.29	28645
812.431	28664
812.573	28938
812.714	28892
812.855	29056
812.997	29075
813.138	29269
813.279	29170
813.421	29083
813.562	29029
813.703	28881
813.845	28843
813.986	28535
814.127	28291
814.268	28150
814.41	28280
814.551	28344
814.692	28295
814.833	28124
814.974	28188
815.115	28341
815.256	28204
815.397	28097
815.539	28166
815.68	28158
815.821	27979
815.962	27979
816.103	28040
816.244	28074
816.385	27838
816.526	27751
816.666	27652
816.807	27538
816.948	27564
817.089	27694
817.23	27469
817.371	27450
817.512	27523
817.653	27698
817.793	27507
817.934	27481
818.075	27534
818.216	27603
818.356	27542
818.497	27549
818.638	27279
818.778	27207
818.919	27154
819.06	27462
819.2	27485
819.341	27481
819.481	27557
819.622	27823
819.762	27918
819.903	27941
820.043	27762
820.184	27618
820.324	27667
820.465	27751
820.605	27603
820.746	27606
820.886	27458
821.026	27709
821.167	27606
821.307	27713
821.447	27496
821.588	27515
821.728	27214
821.868	27157
822.008	27039
822.149	27119
822.289	27009
822.429	26834
822.569	26682
822.709	26765
822.849	26549
822.99	26415
823.13	26533
823.27	26606
823.41	26423
823.55	26320
823.69	26370
823.83	26366
823.97	26374
824.11	26134
824.25	26020
824.389	26233
824.529	26317
824.669	26168
824.809	26221
824.949	26240
825.089	26153
825.228	26202
825.368	26103
825.508	26050
825.648	26046
825.787	26115
825.927	26172
826.067	26054
826.206	26088
826.346	26115
826.485	26031
826.625	26081
826.765	26005
826.904	26043
827.044	25841
827.183	25860
827.323	25944
827.462	25807
827.601	25913
827.741	25677
827.88	25784
828.02	25674
828.159	25791
828.298	25788
828.437	25852
828.577	25727
828.716	25818
828.855	25700
828.994	25479
829.134	25521
829.273	25533
829.412	25483
829.551	25426
829.69	25525
829.829	25575
829.968	25381
830.107	25472
830.246	25324
830.385	25350
830.524	25251
830.663	25415
830.802	25213
830.941	24996
831.08	25038
831.219	25251
831.357	25171
831.496	25339
831.635	24966
831.774	24958
831.913	24867
832.051	24840
832.19	24749
832.329	24890
832.467	24703
832.606	24673
832.744	24734
832.883	24757
833.022	24673
833.16	24700
833.299	24814
833.437	24810
833.576	24875
833.714	24779
833.852	24859
833.991	24768
834.129	24852
834.267	24878
834.406	24707
834.544	24817
834.682	24932
834.821	24722
834.959	24890
835.097	24863
835.235	24856
835.373	24779
835.511	24749
835.65	24616
835.788	24582
835.926	24498
836.064	24418
836.202	24475
836.34	24608
836.478	24726
836.615	24688
836.753	24578
836.891	24741
837.029	24665
837.167	24597
837.305	24525
837.443	24544
837.58	24407
837.718	24642
837.856	24574
837.993	24467
838.131	24323
838.269	24239
838.406	24334
838.544	24167
838.681	23977
838.819	24076
838.956	23882
839.094	23851
839.231	23863
839.369	24171
839.506	24369
839.643	24178
839.781	23973
839.918	23847
840.055	24003
840.193	23961
840.33	23794
840.467	23828
840.604	23882
840.742	24030
840.879	23699
841.016	23882
841.153	23733
841.29	23931
841.427	23798
841.564	23916
841.701	23927
841.838	23760
841.975	23741
842.112	23840
842.249	23684
842.385	23691
842.522	23802
842.659	23695
842.796	23558
842.933	23581
843.069	23471
843.206	23627
843.343	23509
843.479	23589
843.616	23649
843.752	23429
843.889	23383
844.025	23535
844.162	23227
844.298	23493
844.435	23326
844.571	23433
844.708	23452
844.844	23436
844.98	23440
845.117	23471
845.253	23269
845.389	23277
845.525	23341
845.661	23220
845.798	23094
845.934	23223
846.07	23102
846.206	23151
846.342	23117
846.478	23044
846.614	22911
846.75	22828
846.886	22858
847.022	22847
847.158	22869
847.294	22831
847.429	22896
847.565	22824
847.701	23067
847.837	22664
847.972	22447
848.108	22596
848.244	22687
848.379	22379
848.515	22500
848.65	22367
848.786	22478
848.921	22413
849.057	22599
849.192	22603
849.328	22451
849.463	22554
849.598	22284
849.734	22223
849.869	22280
850.004	22238
850.14	22139
850.275	22200
850.41	22154
850.545	22078
850.68	22215
850.815	22211
850.95	22181
851.085	22322
851.22	22344
851.355	22177
851.49	22188
851.625	22238
851.76	22154
851.895	22120
852.03	22032
852.165	22234
852.299	22215
852.434	22261
852.569	22268
852.703	22143
852.838	22276
852.973	22375
853.107	22211
853.242	22211
853.376	21979
853.511	21899
853.645	22059
853.78	22124
853.914	22109
854.048	21979
854.183	21911
854.317	22078
854.451	22139
854.585	22048
854.72	22063
854.854	22303
854.988	21987
855.122	22105
855.256	22017
855.39	21991
855.524	22010
855.658	21979
855.792	21998
855.926	21956
856.06	22067
856.194	22238
856.327	21991
856.461	21949
856.595	22002
856.729	21918
856.862	22086
856.996	22048
857.13	22112
857.263	22246
857.397	22086
857.53	22017
857.664	22150
857.797	22029
857.931	22059
858.064	22120
858.197	22055
858.331	21949
858.464	21968
858.597	21994
858.731	22112
858.864	22082
858.997	21945
859.13	21937
859.263	22006
859.396	22158
859.529	22059
859.662	21865
859.795	22109
859.928	22044
860.061	22147
860.194	22166
860.327	22150
860.46	22128
860.592	22150
860.725	22204
860.858	22173
860.99	21964
861.123	21865
861.256	21987
861.388	22063
861.521	22668
861.653	21888
861.786	21781
861.918	21819
862.05	21911
862.183	21991
862.315	21975
862.447	21934
862.58	21926
862.712	21865
862.844	21865
862.976	21755
863.108	21808
863.24	22200
863.372	21698
863.504	21694
863.636	21618
863.768	21625
863.9	21720
864.032	21732
864.164	21736
864.296	21751
864.428	21861
864.559	21846
864.691	21759
864.823	21671
864.954	21663
865.086	21732
865.217	21603
865.349	21595
865.48	21675
865.612	21633
865.743	21698
865.875	21751
866.006	21618
866.137	21648
866.269	21542
866.4	21713
866.531	21545
866.662	21458
866.793	21462
866.924	21481
867.055	21576
867.186	21530
867.317	21496
867.448	21416
867.579	21625
867.71	21393
867.841	21473
867.972	21466
868.103	21591
868.233	21641
868.364	21599
868.495	21660
868.625	21797
868.756	21911
868.886	21781
869.017	21797
869.147	21827
869.278	21690
869.408	21808
869.539	21797
869.669	21869
869.799	21770
869.929	21922
870.06	21949
870.19	22105
870.32	21956
870.45	22246
870.58	22173
870.71	22242
870.84	22253
870.97	22101
871.1	22154
871.23	22360
871.36	22451
871.489	22234
871.619	22504
871.749	22314
871.879	22409
872.008	22409
872.138	22375
872.267	22432
872.397	22360
872.526	22234
872.656	22246
872.785	22200
872.915	22432
873.044	22455
873.173	22348
873.303	22344
873.432	22550
873.561	22527
873.69	22527
873.819	22379
873.948	22493
874.077	22466
874.206	22310
874.335	22405
874.464	22557
874.593	22660
874.722	22687
874.851	22588
874.979	22622
875.108	22573
875.237	22485
875.365	22550
875.494	22630
875.623	22691
875.751	22596
875.88	22592
876.008	22763
876.136	22858
876.265	23109
876.393	23170
876.521	23003
876.65	23204
876.778	23079
876.906	22991
877.034	23022
877.162	22980
877.29	22923
877.418	22927
877.546	23037
877.674	22949
877.802	23029
877.93	22923
878.058	22934
878.185	22873
878.313	22923
878.441	22850
878.568	22828
878.696	22786
878.824	23132
878.951	22972
879.079	23147
879.206	23231
879.333	23143
879.461	23067
879.588	23071
879.715	23117
879.842	23288
879.97	22968
880.097	22850
880.224	22850
880.351	22831
880.478	22797
880.605	22774
880.732	22713
880.859	22904
880.986	22668
881.112	22793
881.239	22668
881.366	22508
881.493	22375
881.619	22375
881.746	22470
881.872	22519
881.999	22360
882.125	22287
882.252	22440
882.378	22363
882.505	22413
882.631	22162
882.757	22177
882.883	22112
883.01	21975
883.136	22036
883.262	21930
883.388	21892
883.514	22017
883.64	22093
883.766	22010
883.892	21800
884.018	21812
884.143	22006
884.269	22070
884.395	21743
884.52	21770
884.646	21686
884.772	21660
884.897	21488
885.023	21739
885.148	21816
885.274	21865
885.399	21732
885.524	21747
885.65	21663
885.775	21652
885.9	21724
886.025	21926
886.15	21804
886.275	21572
886.4	21549
886.525	21610
886.65	21568
886.775	21542
886.9	21728
887.025	21945
887.149	21587
887.274	21595
887.399	21408
887.523	21515
887.648	21363
887.773	21397
887.897	21606
888.021	21473
888.146	21344
888.27	21595
888.395	21523
888.519	21504
888.643	21477
888.767	21500
888.891	21382
889.015	21283
889.139	21370
889.263	21226
889.387	21526
889.511	21488
889.635	21454
889.759	21131
889.883	21275
890.006	21298
890.13	21294
890.254	21233
890.377	21104
890.501	21055
890.624	21020
890.748	20975
890.871	20921
890.995	20781
891.118	20708
891.241	20807
891.364	20773
891.488	21013
891.611	20762
891.734	20807
891.857	20941
891.98	20880
892.103	20960
892.226	20857
892.349	20750
892.471	20564
892.594	20701
892.717	20796
892.839	20731
892.962	20804
893.085	20754
893.207	20705
893.33	20568
893.452	20648
893.575	20689
893.697	20724
893.819	20807
893.941	20933
894.064	20906
894.186	20667
894.308	20625
894.43	20701
894.552	20891
894.674	20762
894.796	20629
894.918	20750
895.04	20602
895.161	20712
895.283	20659
895.405	20625
895.526	20819
895.648	20750
895.769	20655
895.891	20731
896.012	20864
896.134	20762
896.255	20746
896.376	20644
896.498	20648
896.619	20693
896.74	20590
896.861	20655
896.982	20952
897.103	21146
897.224	21070
897.345	20914
897.466	20925
897.587	20845
897.708	21127
897.828	20948
897.949	20834
898.07	20785
898.19	20826
898.311	20986
898.431	20849
898.552	20849
898.672	20960
898.792	20921
898.913	20857
899.033	20765
899.153	20697
899.273	20598
899.393	20609
899.513	20667
899.633	20667
899.753	20743
899.873	20640
899.993	20689
900.113	20545
900.232	20579
900.352	20503
900.472	20533
900.591	20366
900.711	20507
900.83	20358
900.95	20461
901.069	20514
901.189	20206
901.308	20100
901.427	19955
901.546	20027
901.665	19986
901.784	20092
901.904	19871
902.023	19746
902.141	19681
902.26	19472
902.379	19582
902.498	19445
902.617	19502
902.735	19533
902.854	19518
902.973	19415
903.091	19217
903.21	19198
903.328	19232
903.446	19080
903.565	19019
903.683	18951
903.801	18741
903.919	18856
904.038	18856
904.156	18829
904.274	18802
904.392	18707
904.51	18700
904.627	18658
904.745	18791
904.863	18814
904.981	18604
905.098	18327
905.216	18315
905.334	18544
905.451	18315
905.569	18380
905.686	18395
905.803	18388
905.921	18258
906.038	18266
906.155	18136
906.272	18064
906.389	18007
906.506	17916
906.623	18026
906.74	17927
906.857	17805
906.974	17824
907.091	17950
907.208	17965
907.324	17954
907.441	17878
907.557	17581
907.674	17573
907.79	17566
907.907	17661
908.023	17623
908.139	17577
908.256	17585
908.372	17512
908.488	17551
908.604	17391
908.72	17383
908.836	17398
908.952	17376
909.068	17356
909.184	17452
909.3	17280
909.415	17429
909.531	17387
909.647	17151
909.762	17079
909.878	17216
909.993	17060
910.108	17052
910.224	16949
910.339	16911
910.454	16934
910.57	16934
910.685	16824
910.8	16942
910.915	16847
911.03	16812
911.145	16660
911.259	16641
911.374	16569
911.489	16577
911.604	16459
911.718	16325
911.833	16344
911.947	16329
912.062	16344
912.176	16287
912.291	16421
912.405	16322
912.519	16447
912.633	16470
912.748	16413
912.862	16306
912.976	16234
913.09	16093
913.204	16196
913.318	16071
913.431	16284
913.545	16287
913.659	16303
913.772	16162
913.886	16078
914	16002
914.113	16013
914.226	16109
914.34	16010
914.453	15838
914.566	15945
914.68	15831
914.793	15736
914.906	15648
915.019	15591
915.132	15523
915.245	15412
915.358	15450
915.47	15530
915.583	15458
915.696	15488
915.809	15732
915.921	15675
916.034	15523
916.146	15492
916.259	15458
916.371	15599
916.483	15526
916.595	15481
916.708	15473
916.82	15370
916.932	15340
917.044	15310
917.156	15222
917.268	15195
917.38	15222
917.491	15207
917.603	15195
917.715	15272
917.826	15329
917.938	15211
918.049	15055
918.161	15169
918.272	15241
918.384	15428
918.495	15127
918.606	14998
918.717	14918
918.828	15013
918.939	14952
919.05	14823
919.161	14971
919.272	14754
919.383	14807
919.494	15032
919.604	15154
919.715	14925
919.826	14891
919.936	14861
920.047	15024
920.157	14956
920.267	15074
920.378	14895
920.488	14895
920.598	15097
920.708	15237
920.818	15032
920.928	15024
921.038	15146
921.148	15089
921.258	14758
921.368	14765
921.477	14739
921.587	14610
921.697	14507
921.806	14606
921.916	14446
922.025	14328
922.134	14256
922.244	14301
922.353	14290
922.462	14233
922.571	14153
922.68	13864
922.789	13982
922.898	13978
923.007	13864
923.116	13879
923.224	13909
923.333	13811
923.442	13780
923.55	13715
923.659	13780
923.767	13864
923.876	13655
923.984	13757
924.092	13643
924.201	13643
924.309	13636
924.417	13582
924.525	13609
924.633	13491
924.741	14233
924.849	13506
924.956	13533
925.064	13362
925.172	13244
925.279	13247
925.387	13293
925.494	13354
925.602	13434
925.709	13301
925.816	13255
925.924	13316
926.031	13350
926.138	13179
926.245	13255
926.352	13149
926.459	13228
926.566	13324
926.673	13160
926.779	13072
926.886	13000
926.993	12962
927.099	12844
927.206	12935
927.312	12825
927.419	12875
927.525	12909
927.631	12859
927.737	12798
927.843	12696
927.95	12582
928.056	12749
928.162	12639
928.267	12757
928.373	13308
928.479	12764
928.585	12551
928.69	12620
928.796	12677
928.901	12604
929.007	12410
929.112	12506
929.218	12483
929.323	12441
929.428	12437
929.533	12494
929.638	12258
929.743	12391
929.848	12372
929.953	12384
930.058	12273
930.163	12136
930.267	12167
930.372	12277
930.477	12125
930.581	12300
930.685	12064
930.79	11973
930.894	11980
930.998	11904
931.103	12022
931.207	11672
931.311	11688
931.415	11478
931.519	11372
931.623	11307
