Data from test_V78500241_1483.txt Node
Date: Fri Mar 25 15:52:04 CST 2022
User: usil
Spectrometer: V785-0024
Trigger mode: 0
Integration Time (sec): 4.000000E-1
Scans to average: 1
Nonlinearity correction enabled: false
Boxcar width: 0
Storing dark spectrum: false
XAxis mode: Wavelengths
Number of Pixels in Spectrum: 1024
>>>>>Begin Spectral Data<<<<<
801.071	27926
801.214	27842
801.356	27747
801.499	27603
801.641	27561
801.783	27496
801.926	27629
802.068	27348
802.211	27435
802.353	27500
802.496	27135
802.638	27131
802.78	27199
802.923	27066
803.065	27066
803.208	26944
803.35	27211
803.492	27176
803.635	27401
803.777	27264
803.919	27340
804.061	27663
804.204	27386
804.346	27260
804.488	27207
804.63	27123
804.773	27268
804.915	27405
805.057	27526
805.199	27192
805.341	27416
805.483	27515
805.626	27469
805.768	27412
805.91	27367
806.052	27511
806.194	27332
806.336	27648
806.478	27412
806.62	27431
806.762	27690
806.904	27785
807.046	27979
807.188	27857
807.33	27975
807.472	28067
807.614	27781
807.756	27838
807.898	27907
808.04	27652
808.182	27850
808.324	27747
808.465	27857
808.607	27930
808.749	28196
808.891	28128
809.033	28287
809.174	28295
809.316	28097
809.458	28154
809.6	28002
809.741	28139
809.883	28192
810.025	28493
810.166	28489
810.308	28413
810.45	28261
810.591	28257
810.733	28166
810.875	28185
811.016	27934
811.158	28036
811.299	28204
811.441	28344
811.582	28303
811.724	28154
811.865	27991
812.007	28063
812.148	28246
812.29	28249
812.431	28344
812.573	28386
812.714	28485
812.855	28656
812.997	28710
813.138	28858
813.279	28793
813.421	28740
813.562	28679
813.703	28516
813.845	28390
813.986	28101
814.127	27759
814.268	27789
814.41	27930
814.551	27907
814.692	27895
814.833	27736
814.974	27778
815.115	27785
815.256	27732
815.397	27648
815.539	27774
815.68	27637
815.821	27386
815.962	27732
816.103	27671
816.244	27473
816.385	27492
816.526	27188
816.666	27024
816.807	27051
816.948	27203
817.089	27310
817.23	27176
817.371	27165
817.512	27199
817.653	26979
817.793	26944
817.934	27096
818.075	27077
818.216	27066
818.356	27055
818.497	26914
818.638	26804
818.778	26781
818.919	26826
819.06	26952
819.2	27024
819.341	27165
819.481	27188
819.622	27283
819.762	27351
819.903	27329
820.043	27374
820.184	27226
820.324	27237
820.465	27507
820.605	27351
820.746	27123
820.886	27169
821.026	27237
821.167	27005
821.307	27218
821.447	27066
821.588	27138
821.728	26929
821.868	26663
822.008	26564
822.149	26651
822.289	26473
822.429	26377
822.569	26298
822.709	26309
822.849	26005
822.99	26244
823.13	26134
823.27	25970
823.41	25955
823.55	25814
823.69	25837
823.83	25974
823.97	25784
824.11	25772
824.25	25609
824.389	25780
824.529	25757
824.669	25704
824.809	25784
824.949	25780
825.089	25734
825.228	25822
825.368	25616
825.508	25548
825.648	25578
825.787	25674
825.927	25643
826.067	25601
826.206	25613
826.346	25700
826.485	25708
826.625	25533
826.765	25658
826.904	25658
827.044	25445
827.183	25403
827.323	25358
827.462	25422
827.601	25365
827.741	25198
827.88	25225
828.02	25209
828.159	25240
828.298	25438
828.437	25392
828.577	25407
828.716	25430
828.855	25289
828.994	25122
829.134	25076
829.273	25031
829.412	25050
829.551	24985
829.69	25027
829.829	25069
829.968	25015
830.107	25069
830.246	25042
830.385	24894
830.524	24913
830.663	24753
830.802	24692
830.941	24601
831.08	24635
831.219	24791
831.357	24620
831.496	24814
831.635	24639
831.774	24635
831.913	24467
832.051	24528
832.19	24513
832.329	24566
832.467	24292
832.606	24186
832.744	24117
832.883	24308
833.022	24178
833.16	24372
833.299	24327
833.437	24270
833.576	24456
833.714	24433
833.852	24357
833.991	24410
834.129	24369
834.267	24464
834.406	24429
834.544	24384
834.682	24357
834.821	24304
834.959	24456
835.097	24243
835.235	24403
835.373	24228
835.511	24452
835.65	24205
835.788	24155
835.926	24087
836.064	23961
836.202	24007
836.34	24152
836.478	24327
836.615	24167
836.753	24045
836.891	24197
837.029	24102
837.167	23999
837.305	24079
837.443	24041
837.58	24026
837.718	24136
837.856	23984
837.993	23988
838.131	24049
838.269	23821
838.406	23790
838.544	23935
838.681	23756
838.819	23665
838.956	23501
839.094	23490
839.231	23528
839.369	23638
839.506	23969
839.643	23718
839.781	23425
839.918	23376
840.055	23402
840.193	23490
840.33	23402
840.467	23474
840.604	23520
840.742	23695
840.879	23204
841.016	23417
841.153	23307
841.29	23455
841.427	23337
841.564	23493
841.701	23277
841.838	23410
841.975	23322
842.112	23269
842.249	23147
842.385	23227
842.522	23311
842.659	23261
842.796	23121
842.933	23204
843.069	23109
843.206	23140
843.343	23170
843.479	23151
843.616	23132
843.752	22953
843.889	22995
844.025	23102
844.162	22904
844.298	23003
844.435	22968
844.571	23033
844.708	23014
844.844	23185
844.98	23010
845.117	22915
845.253	22949
845.389	22835
845.525	22866
845.661	22706
845.798	22641
845.934	22809
846.07	22596
846.206	22702
846.342	22721
846.478	22592
846.614	22409
846.75	22344
846.886	22360
847.022	22344
847.158	22409
847.294	22432
847.429	22447
847.565	22299
847.701	22626
847.837	22093
847.972	22135
848.108	22185
848.244	22223
848.379	21994
848.515	21987
848.65	22017
848.786	21949
848.921	21956
849.057	21949
849.192	22006
849.328	21911
849.463	21983
849.598	21926
849.734	21854
849.869	21781
850.004	21694
850.14	21778
850.275	21766
850.41	21663
850.545	21656
850.68	21690
850.815	21739
850.95	21675
851.085	21770
851.22	21823
851.355	21762
851.49	21751
851.625	21660
851.76	21781
851.895	21679
852.03	21728
852.165	21652
852.299	21770
852.434	21892
852.569	21789
852.703	21812
852.838	21774
852.973	21846
853.107	21816
853.242	21671
853.376	21519
853.511	21485
853.645	21625
853.78	21656
853.914	21618
854.048	21454
854.183	21515
854.317	21530
854.451	21644
854.585	21572
854.72	21564
854.854	21576
854.988	21477
855.122	21530
855.256	21447
855.39	21587
855.524	21610
855.658	21599
855.792	21591
855.926	21580
856.06	21572
856.194	21736
856.327	21648
856.461	21504
856.595	21500
856.729	21606
856.862	21606
856.996	21534
857.13	21568
857.263	21698
857.397	21690
857.53	21644
857.664	21526
857.797	21686
857.931	21679
858.064	21576
858.197	21759
858.331	21534
858.464	21435
858.597	21412
858.731	21500
858.864	21599
858.997	21511
859.13	21538
859.263	21519
859.396	21603
859.529	21488
859.662	21595
859.795	21458
859.928	21511
860.061	21641
860.194	21751
860.327	21568
860.46	21709
860.592	21739
860.725	21622
860.858	21576
860.99	21553
861.123	21412
861.256	21538
861.388	21580
861.521	22223
861.653	21511
861.786	21256
861.918	21488
862.05	21481
862.183	21466
862.315	21443
862.447	21629
862.58	21450
862.712	21359
862.844	21222
862.976	21431
863.108	21310
863.24	21660
863.372	21249
863.504	21298
863.636	21199
863.768	21237
863.9	21218
864.032	21173
864.164	21222
864.296	21245
864.428	21420
864.559	21230
864.691	21340
864.823	21317
864.954	21256
865.086	21256
865.217	21203
865.349	21138
865.48	21173
865.612	21184
865.743	21192
865.875	21268
866.006	21089
866.137	21150
866.269	21077
866.4	21222
866.531	21108
866.662	21131
866.793	21192
866.924	21096
867.055	21058
867.186	21066
867.317	21112
867.448	21051
867.579	21146
867.71	20971
867.841	20990
867.972	21108
868.103	21096
868.233	21066
868.364	20963
868.495	21043
868.625	21298
868.756	21310
868.886	21313
869.017	21306
869.147	21477
869.278	21511
869.408	21275
869.539	21378
869.669	21336
869.799	21477
869.929	21450
870.06	21443
870.19	21580
870.32	21599
870.45	21770
870.58	21755
870.71	21804
870.84	21804
870.97	21728
871.1	21751
871.23	21892
871.36	21979
871.489	21892
871.619	21941
871.749	21926
871.879	21998
872.008	22021
872.138	21945
872.267	21964
872.397	21892
872.526	21739
872.656	21781
872.785	21838
872.915	22036
873.044	22116
873.173	22055
873.303	22032
873.432	21960
873.561	22059
873.69	21941
873.819	21941
873.948	22120
874.077	22044
874.206	21911
874.335	21983
874.464	22101
874.593	22204
874.722	22135
874.851	22215
874.979	22215
875.108	22284
875.237	22150
875.365	22090
875.494	22173
875.623	22291
875.751	22090
875.88	22158
876.008	22459
876.136	22356
876.265	22580
876.393	22721
876.521	22721
876.65	22641
876.778	22546
876.906	22459
877.034	22470
877.162	22485
877.29	22504
877.418	22607
877.546	22641
877.674	22588
877.802	22485
877.93	22531
878.058	22459
878.185	22466
878.313	22367
878.441	22565
878.568	22421
878.696	22466
878.824	22516
878.951	22554
879.079	22736
879.206	22889
879.333	22820
879.461	22698
879.588	22588
879.715	22649
879.842	22733
879.97	22504
880.097	22306
880.224	22337
880.351	22398
880.478	22470
880.605	22386
880.732	22322
880.859	22660
880.986	22386
881.112	22424
881.239	22322
881.366	22070
881.493	22036
881.619	21934
881.746	21903
881.872	21964
881.999	21911
882.125	21899
882.252	22070
882.378	21831
882.505	22055
882.631	21774
882.757	21652
882.883	21652
883.01	21724
883.136	21561
883.262	21530
883.388	21500
883.514	21660
883.64	21667
883.766	21416
883.892	21405
884.018	21447
884.143	21633
884.269	21720
884.395	21336
884.52	21283
884.646	21195
884.772	21218
884.897	21203
885.023	21340
885.148	21355
885.274	21412
885.399	21462
885.524	21268
885.65	21226
885.775	21355
885.9	21131
886.025	21332
886.15	21412
886.275	21397
886.4	21039
886.525	21283
886.65	21192
886.775	21100
886.9	21367
887.025	21485
887.149	21207
887.274	20979
887.399	20982
887.523	21001
887.648	20906
887.773	21039
887.897	21062
888.021	21104
888.146	20804
888.27	21154
888.395	21260
888.519	21058
888.643	20941
888.767	20941
888.891	20895
889.015	20842
889.139	20800
889.263	20849
889.387	20883
889.511	21005
889.635	20895
889.759	20811
889.883	20769
890.006	20899
890.13	20971
890.254	20804
890.377	20849
890.501	20648
890.624	20549
890.748	20564
890.871	20469
890.995	20415
891.118	20256
891.241	20404
891.364	20396
891.488	20442
891.611	20415
891.734	20412
891.857	20366
891.98	20457
892.103	20480
892.226	20427
892.349	20248
892.471	20221
892.594	20199
892.717	20328
892.839	20309
892.962	20294
893.085	20290
893.207	20256
893.33	20233
893.452	20240
893.575	20339
893.697	20134
893.819	20427
893.941	20419
894.064	20454
894.186	20202
894.308	20107
894.43	20358
894.552	20408
894.674	20366
894.796	20218
894.918	20370
895.04	20210
895.161	20396
895.283	20400
895.405	20180
895.526	20396
895.648	20320
895.769	20199
895.891	20370
896.012	20404
896.134	20408
896.255	20446
896.376	20313
896.498	20358
896.619	20301
896.74	20309
896.861	20396
896.982	20537
897.103	20845
897.224	20347
897.345	20530
897.466	20408
897.587	20423
897.708	20602
897.828	20419
897.949	20377
898.07	20438
898.19	20427
898.311	20549
898.431	20522
898.552	20503
898.672	20579
898.792	20568
898.913	20522
899.033	20339
899.153	20301
899.273	20195
899.393	20256
899.513	20328
899.633	20282
899.753	20355
899.873	20240
899.993	20305
900.113	20199
900.232	20294
900.352	20069
900.472	20096
900.591	20024
900.711	19959
900.83	19986
900.95	20145
901.069	20130
901.189	19826
901.308	19674
901.427	19537
901.546	19738
901.665	19597
901.784	19647
901.904	19373
902.023	19388
902.141	19061
902.26	19175
902.379	19137
902.498	19225
902.617	18993
902.735	19095
902.854	19137
902.973	18951
903.091	18844
903.21	18757
903.328	18738
903.446	18696
903.565	18658
903.683	18703
903.801	18498
903.919	18597
904.038	18528
904.156	18414
904.274	18604
904.392	18338
904.51	18384
904.627	18372
904.745	18467
904.863	18418
904.981	18087
905.098	17977
905.216	18148
905.334	18026
905.451	18060
905.569	17958
905.686	18102
905.803	17977
905.921	17821
906.038	17965
906.155	17889
906.272	17714
906.389	17760
906.506	17573
906.623	17524
906.74	17478
906.857	17455
906.974	17444
907.091	17623
907.208	17585
907.324	17630
907.441	17421
907.557	17334
907.674	17296
907.79	17269
907.907	17258
908.023	17212
908.139	17258
908.256	17227
908.372	17162
908.488	17113
908.604	17003
908.72	16923
908.836	16976
908.952	16965
909.068	16946
909.184	17052
909.3	17056
909.415	17105
909.531	17041
909.647	16622
909.762	16725
909.878	16649
909.993	16748
910.108	16736
910.224	16626
910.339	16599
910.454	16607
910.57	16481
910.685	16375
910.8	16596
910.915	16630
911.03	16443
911.145	16348
911.259	16246
911.374	16215
911.489	16253
911.604	16150
911.718	16010
911.833	16044
911.947	16044
912.062	15857
912.176	16059
912.291	16082
912.405	15998
912.519	16280
912.633	16204
912.748	16063
912.862	15960
912.976	15800
913.09	15641
913.204	15861
913.318	15835
913.431	15876
913.545	15827
913.659	15888
913.772	15819
913.886	15713
914	15595
914.113	15709
914.226	15819
914.34	15660
914.453	15549
914.566	15789
914.68	15485
914.793	15450
914.906	15268
915.019	15313
915.132	15268
915.245	15230
915.358	15272
915.47	15294
915.583	15317
915.696	15275
915.809	15389
915.921	15401
916.034	15233
916.146	15135
916.259	15119
916.371	15291
916.483	15294
916.595	15081
916.708	15066
916.82	15066
916.932	14994
917.044	15005
917.156	14998
917.268	14895
917.38	14986
917.491	14895
917.603	14994
917.715	14975
917.826	15020
917.938	14857
918.049	14823
918.161	14887
918.272	14956
918.384	15024
918.495	14902
918.606	14678
918.717	14560
918.828	14720
918.939	14750
919.05	14564
919.161	14636
919.272	14427
919.383	14514
919.494	14697
919.604	14857
919.715	14587
919.826	14495
919.936	14571
920.047	14667
920.157	14663
920.267	14773
920.378	14686
920.488	14568
920.598	14769
920.708	14902
920.818	14777
920.928	14739
921.038	14960
921.148	14811
921.258	14541
921.368	14446
921.477	14412
921.587	14210
921.697	14229
921.806	14381
921.916	14100
922.025	14024
922.134	13955
922.244	13986
922.353	14103
922.462	13845
922.571	13765
922.68	13632
922.789	13575
922.898	13609
923.007	13499
923.116	13567
923.224	13639
923.333	13636
923.442	13575
923.55	13384
923.659	13533
923.767	13537
923.876	13358
923.984	13426
924.092	13373
924.201	13422
924.309	13430
924.417	13320
924.525	13301
924.633	13270
924.741	14199
924.849	13042
924.956	13228
925.064	13129
925.172	12989
925.279	13012
925.387	13053
925.494	13046
925.602	13133
925.709	13088
925.816	13008
925.924	13031
926.031	13080
926.138	12913
926.245	13061
926.352	12863
926.459	13065
926.566	13004
926.673	12844
926.779	12768
926.886	12837
926.993	12650
927.099	12631
927.206	12654
927.312	12593
927.419	12483
927.525	12616
927.631	12669
927.737	12532
927.843	12471
927.95	12315
928.056	12490
928.162	12384
928.267	12532
928.373	13164
928.479	12540
928.585	12262
928.69	12445
928.796	12426
928.901	12353
929.007	12159
929.112	12338
929.218	12254
929.323	12155
929.428	12163
929.533	12220
929.638	12125
929.743	12060
929.848	12182
929.953	12098
930.058	12022
930.163	11760
930.267	11859
930.372	11984
930.477	11847
930.581	12022
930.685	11901
930.79	11718
930.894	11657
930.998	11661
931.103	11809
931.207	11474
931.311	11360
931.415	11417
931.519	11155
931.623	11136
