Data from test_V78500241_1392.txt Node
Date: Fri Mar 25 15:51:26 CST 2022
User: usil
Spectrometer: V785-0024
Trigger mode: 0
Integration Time (sec): 4.000000E-1
Scans to average: 1
Nonlinearity correction enabled: false
Boxcar width: 0
Storing dark spectrum: false
XAxis mode: Wavelengths
Number of Pixels in Spectrum: 1024
>>>>>Begin Spectral Data<<<<<
801.071	28059
801.214	27937
801.356	27823
801.499	27804
801.641	27724
801.783	27545
801.926	27656
802.068	27572
802.211	27488
802.353	27507
802.496	27264
802.638	27344
802.78	27275
802.923	27165
803.065	27123
803.208	27245
803.35	27199
803.492	27351
803.635	27370
803.777	27340
803.919	27568
804.061	27789
804.204	27599
804.346	27340
804.488	27389
804.63	27325
804.773	27424
804.915	27534
805.057	27435
805.199	27462
805.341	27610
805.483	27591
805.626	27625
805.768	27564
805.91	27576
806.052	27572
806.194	27458
806.336	27743
806.478	27644
806.62	27656
806.762	27705
806.904	27854
807.046	28082
807.188	28101
807.33	28112
807.472	28124
807.614	27968
807.756	27972
807.898	27956
808.04	27732
808.182	27937
808.324	27884
808.465	28032
808.607	28200
808.749	28162
808.891	28371
809.033	28379
809.174	28417
809.316	28131
809.458	28249
809.6	28223
809.741	28356
809.883	28394
810.025	28611
810.166	28348
810.308	28561
810.45	28398
810.591	28519
810.733	28409
810.875	28246
811.016	28265
811.158	28109
811.299	28306
811.441	28493
811.582	28580
811.724	28337
811.865	28204
812.007	28242
812.148	28219
812.29	28147
812.431	28538
812.573	28645
812.714	28668
812.855	28812
812.997	28923
813.138	29071
813.279	29094
813.421	28869
813.562	28782
813.703	28565
813.845	28569
813.986	28120
814.127	28025
814.268	27975
814.41	28032
814.551	27922
814.692	27979
814.833	27857
814.974	27934
815.115	27987
815.256	27842
815.397	27876
815.539	27873
815.68	27720
815.821	27690
815.962	27781
816.103	27861
816.244	27667
816.385	27568
816.526	27599
816.666	27344
816.807	27306
816.948	27378
817.089	27374
817.23	27340
817.371	27184
817.512	27173
817.653	27237
817.793	27176
817.934	27298
818.075	27203
818.216	27272
818.356	27150
818.497	27207
818.638	26963
818.778	27100
818.919	26960
819.06	27096
819.2	27085
819.341	27245
819.481	27329
819.622	27553
819.762	27439
819.903	27447
820.043	27496
820.184	27291
820.324	27382
820.465	27447
820.605	27500
820.746	27485
820.886	27104
821.026	27329
821.167	27306
821.307	27260
821.447	27226
821.588	27119
821.728	27062
821.868	26960
822.008	26910
822.149	26777
822.289	26743
822.429	26461
822.569	26480
822.709	26377
822.849	26324
822.99	26305
823.13	26282
823.27	26161
823.41	26100
823.55	25898
823.69	26046
823.83	26005
823.97	25966
824.11	25868
824.25	25879
824.389	25879
824.529	25970
824.669	25932
824.809	25944
824.949	26103
825.089	25982
825.228	25974
825.368	25738
825.508	25807
825.648	25822
825.787	25784
825.927	25875
826.067	25742
826.206	25674
826.346	25784
826.485	25761
826.625	25700
826.765	25883
826.904	25833
827.044	25521
827.183	25609
827.323	25518
827.462	25479
827.601	25468
827.741	25449
827.88	25506
828.02	25339
828.159	25441
828.298	25453
828.437	25525
828.577	25495
828.716	25563
828.855	25320
828.994	25346
829.134	25293
829.273	25247
829.412	25042
829.551	25072
829.69	25247
829.829	25148
829.968	25141
830.107	25148
830.246	25118
830.385	25118
830.524	25156
830.663	24966
830.802	24833
830.941	24642
831.08	24730
831.219	24802
831.357	24867
831.496	25038
831.635	24776
831.774	24684
831.913	24700
832.051	24483
832.19	24566
832.329	24566
832.467	24426
832.606	24528
832.744	24407
832.883	24391
833.022	24315
833.16	24433
833.299	24452
833.437	24528
833.576	24498
833.714	24578
833.852	24570
833.991	24642
834.129	24681
834.267	24471
834.406	24513
834.544	24589
834.682	24540
834.821	24494
834.959	24642
835.097	24464
835.235	24559
835.373	24502
835.511	24483
835.65	24372
835.788	24414
835.926	24292
836.064	24144
836.202	24239
836.34	24391
836.478	24441
836.615	24273
836.753	24391
836.891	24395
837.029	24353
837.167	24144
837.305	24205
837.443	24148
837.58	24140
837.718	24213
837.856	24201
837.993	24194
838.131	24049
838.269	23988
838.406	24053
838.544	24114
838.681	23802
838.819	23790
838.956	23676
839.094	23840
839.231	23745
839.369	23783
839.506	23942
839.643	23866
839.781	23714
839.918	23509
840.055	23687
840.193	23680
840.33	23547
840.467	23531
840.604	23535
840.742	23908
840.879	23490
841.016	23425
841.153	23402
841.29	23600
841.427	23566
841.564	23528
841.701	23444
841.838	23638
841.975	23398
842.112	23410
842.249	23383
842.385	23334
842.522	23414
842.659	23391
842.796	23231
842.933	23372
843.069	23227
843.206	23444
843.343	23311
843.479	23231
843.616	23239
843.752	23098
843.889	23124
844.025	23368
844.162	23052
844.298	23067
844.435	23071
844.571	22999
844.708	23143
844.844	23227
844.98	23265
845.117	23212
845.253	23090
845.389	22991
845.525	22961
845.661	22835
845.798	22820
845.934	22889
846.07	22892
846.206	22831
846.342	22915
846.478	22858
846.614	22531
846.75	22462
846.886	22542
847.022	22645
847.158	22489
847.294	22615
847.429	22687
847.565	22565
847.701	22782
847.837	22371
847.972	22367
848.108	22360
848.244	22447
848.379	22215
848.515	22188
848.65	22150
848.786	22086
848.921	22116
849.057	22265
849.192	22192
849.328	22306
849.463	22090
849.598	22090
849.734	21983
849.869	21998
850.004	22063
850.14	21941
850.275	22006
850.41	21739
850.545	21732
850.68	21888
850.815	21911
850.95	21926
851.085	21998
851.22	21994
851.355	21941
851.49	21991
851.625	21861
851.76	21888
851.895	21774
852.03	21785
852.165	21873
852.299	21937
852.434	21991
852.569	21937
852.703	21816
852.838	21960
852.973	22048
853.107	21953
853.242	21903
853.376	21701
853.511	21614
853.645	21835
853.78	21949
853.914	21819
854.048	21724
854.183	21580
854.317	21762
854.451	21884
854.585	21713
854.72	21812
854.854	21876
854.988	21679
855.122	21675
855.256	21728
855.39	21675
855.524	21713
855.658	21732
855.792	21713
855.926	21709
856.06	21812
856.194	21694
856.327	21732
856.461	21766
856.595	21698
856.729	21576
856.862	21800
856.996	21663
857.13	21785
857.263	21831
857.397	21873
857.53	21519
857.664	21808
857.797	21762
857.931	21827
858.064	21762
858.197	21880
858.331	21789
858.464	21751
858.597	21671
858.731	21606
858.864	21869
858.997	21679
859.13	21663
859.263	21713
859.396	21808
859.529	21686
859.662	21622
859.795	21595
859.928	21759
860.061	21751
860.194	22010
860.327	21789
860.46	21800
860.592	21759
860.725	21892
860.858	21915
860.99	21800
861.123	21633
861.256	21709
861.388	21736
861.521	22424
861.653	21580
861.786	21526
861.918	21549
862.05	21637
862.183	21603
862.315	21690
862.447	21766
862.58	21660
862.712	21549
862.844	21500
862.976	21553
863.108	21504
863.24	21892
863.372	21393
863.504	21447
863.636	21435
863.768	21447
863.9	21348
864.032	21348
864.164	21477
864.296	21454
864.428	21538
864.559	21462
864.691	21469
864.823	21515
864.954	21408
865.086	21386
865.217	21291
865.349	21207
865.48	21344
865.612	21127
865.743	21397
865.875	21264
866.006	21188
866.137	21291
866.269	21329
866.4	21439
866.531	21306
866.662	21291
866.793	21233
866.924	21302
867.055	21218
867.186	21298
867.317	21233
867.448	21211
867.579	21386
867.71	21085
867.841	21135
867.972	21192
868.103	21306
868.233	21355
868.364	21260
868.495	21386
868.625	21370
868.756	21599
868.886	21507
869.017	21496
869.147	21606
869.278	21709
869.408	21553
869.539	21420
869.669	21641
869.799	21515
869.929	21568
870.06	21580
870.19	21743
870.32	21701
870.45	21838
870.58	21876
870.71	22128
870.84	21964
870.97	22040
871.1	21892
871.23	22074
871.36	22025
871.489	21975
871.619	22105
871.749	22234
871.879	22101
872.008	22200
872.138	22097
872.267	22010
872.397	22078
872.526	21876
872.656	21964
872.785	21998
872.915	22109
873.044	22139
873.173	22070
873.303	22204
873.432	22021
873.561	22200
873.69	22253
873.819	21983
873.948	22249
874.077	22158
874.206	22090
874.335	22116
874.464	22280
874.593	22272
874.722	22413
874.851	22360
874.979	22310
875.108	22329
875.237	22200
875.365	22211
875.494	22261
875.623	22424
875.751	22322
875.88	22508
876.008	22497
876.136	22527
876.265	22694
876.393	22885
876.521	22892
876.65	22706
876.778	22793
876.906	22603
877.034	22710
877.162	22580
877.29	22668
877.418	22801
877.546	22820
877.674	22702
877.802	22710
877.93	22618
878.058	22649
878.185	22550
878.313	22622
878.441	22755
878.568	22485
878.696	22573
878.824	22611
878.951	22767
879.079	22790
879.206	22854
879.333	22854
879.461	22668
879.588	22797
879.715	22797
879.842	23010
879.97	22615
880.097	22504
880.224	22554
880.351	22565
880.478	22596
880.605	22451
880.732	22432
880.859	22675
880.986	22500
881.112	22417
881.239	22379
881.366	22207
881.493	22063
881.619	21998
881.746	22162
881.872	22067
881.999	22059
882.125	21991
882.252	22051
882.378	22105
882.505	22166
882.631	21922
882.757	21663
882.883	21926
883.01	21793
883.136	21648
883.262	21724
883.388	21469
883.514	21808
883.64	21781
883.766	21606
883.892	21599
884.018	21606
884.143	21641
884.269	21895
884.395	21466
884.52	21348
884.646	21431
884.772	21393
884.897	21340
885.023	21504
885.148	21408
885.274	21534
885.399	21557
885.524	21351
885.65	21424
885.775	21416
885.9	21340
886.025	21523
886.15	21519
886.275	21416
886.4	21439
886.525	21408
886.65	21359
886.775	21310
886.9	21564
887.025	21671
887.149	21477
887.274	21214
887.399	21176
887.523	21241
887.648	21150
887.773	21093
887.897	21096
888.021	21135
888.146	21226
888.27	21237
888.395	21359
888.519	21325
888.643	21169
888.767	21252
888.891	21077
889.015	21020
889.139	21100
889.263	20967
889.387	21074
889.511	21123
889.635	21230
889.759	21058
889.883	20933
890.006	20933
890.13	21123
890.254	20918
890.377	20861
890.501	20731
890.624	20697
890.748	20830
890.871	20632
890.995	20552
891.118	20495
891.241	20587
891.364	20393
891.488	20693
891.611	20476
891.734	20655
891.857	20575
891.98	20526
892.103	20571
892.226	20560
892.349	20442
892.471	20259
892.594	20526
892.717	20514
892.839	20415
892.962	20313
893.085	20396
893.207	20457
893.33	20267
893.452	20454
893.575	20488
893.697	20366
893.819	20655
893.941	20636
894.064	20629
894.186	20389
894.308	20336
894.43	20568
894.552	20507
894.674	20419
894.796	20282
894.918	20278
895.04	20320
895.161	20575
895.283	20564
895.405	20476
895.526	20476
895.648	20366
895.769	20438
895.891	20442
896.012	20556
896.134	20404
896.255	20377
896.376	20290
896.498	20438
896.619	20465
896.74	20415
896.861	20526
896.982	20754
897.103	20895
897.224	20712
897.345	20705
897.466	20522
897.587	20613
897.708	20861
897.828	20727
897.949	20613
898.07	20393
898.19	20552
898.311	20754
898.431	20674
898.552	20594
898.672	20792
898.792	20689
898.913	20533
899.033	20533
899.153	20267
899.273	20370
899.393	20362
899.513	20374
899.633	20305
899.753	20381
899.873	20313
899.993	20393
900.113	20362
900.232	20275
900.352	20298
900.472	20237
900.591	20157
900.711	20256
900.83	19978
900.95	20252
901.069	20195
901.189	20065
901.308	19852
901.427	19795
901.546	19750
901.665	19693
901.784	19795
901.904	19658
902.023	19518
902.141	19320
902.26	19278
902.379	19327
902.498	19331
902.617	19202
902.735	19285
902.854	19282
902.973	19141
903.091	19008
903.21	18993
903.328	18909
903.446	18973
903.565	18703
903.683	18768
903.801	18639
903.919	18623
904.038	18631
904.156	18433
904.274	18448
904.392	18426
904.51	18418
904.627	18475
904.745	18422
904.863	18513
904.981	18315
905.098	18171
905.216	18194
905.334	18205
905.451	18167
905.569	18110
905.686	18106
905.803	18220
905.921	17916
906.038	18041
906.155	17912
906.272	17832
906.389	17912
906.506	17668
906.623	17726
906.74	17695
906.857	17585
906.974	17551
907.091	17718
907.208	17855
907.324	17581
907.441	17585
907.557	17414
907.674	17402
907.79	17345
907.907	17414
908.023	17417
908.139	17406
908.256	17292
908.372	17395
908.488	17296
908.604	17227
908.72	17086
908.836	17174
908.952	17098
909.068	17121
909.184	17162
909.3	17136
909.415	17117
909.531	17147
909.647	16881
909.762	16927
909.878	16786
909.993	16820
910.108	16812
910.224	16801
910.339	16816
910.454	16721
910.57	16675
910.685	16584
910.8	16805
910.915	16767
911.03	16729
911.145	16493
911.259	16398
911.374	16424
911.489	16394
911.604	16238
911.718	16036
911.833	16139
911.947	16116
912.062	15991
912.176	16162
912.291	16181
912.405	16112
912.519	16386
912.633	16287
912.748	16169
912.862	16074
912.976	15975
913.09	15991
913.204	15876
913.318	16032
913.431	16013
913.545	16112
913.659	16093
913.772	15907
913.886	15819
914	15724
914.113	15915
914.226	15911
914.34	15812
914.453	15648
914.566	15781
914.68	15644
914.793	15538
914.906	15367
915.019	15401
915.132	15294
915.245	15230
915.358	15336
915.47	15336
915.583	15272
915.696	15393
915.809	15481
915.921	15374
916.034	15252
916.146	15264
916.259	15291
916.371	15275
916.483	15401
916.595	15150
916.708	15192
916.82	15154
916.932	15203
917.044	15119
917.156	15028
917.268	14963
917.38	15036
917.491	14914
917.603	15093
917.715	15024
917.826	15001
917.938	14941
918.049	14701
918.161	14948
918.272	15161
918.384	14982
918.495	14891
918.606	14838
918.717	14705
918.828	14712
918.939	14727
919.05	14705
919.161	14750
919.272	14549
919.383	14590
919.494	14815
919.604	14982
919.715	14746
919.826	14636
919.936	14610
920.047	14727
920.157	14807
920.267	14906
920.378	14758
920.488	14640
920.598	14849
920.708	15085
920.818	14842
920.928	14804
921.038	14948
921.148	14998
921.258	14648
921.368	14522
921.477	14442
921.587	14442
921.697	14362
921.806	14412
921.916	14229
922.025	14126
922.134	14107
922.244	14058
922.353	14138
922.462	14035
922.571	13936
922.68	13830
922.789	13772
922.898	13799
923.007	13700
923.116	13841
923.224	13712
923.333	13681
923.442	13563
923.55	13502
923.659	13704
923.767	13624
923.876	13601
923.984	13605
924.092	13438
924.201	13502
924.309	13487
924.417	13453
924.525	13373
924.633	13358
924.741	14149
924.849	13091
924.956	13343
925.064	13149
925.172	13118
925.279	13080
925.387	13209
925.494	13110
925.602	13247
925.709	13088
925.816	12951
925.924	13008
926.031	13202
926.138	13015
926.245	13145
926.352	12985
926.459	13118
926.566	13225
926.673	12958
926.779	12939
926.886	12779
926.993	12810
927.099	12772
927.206	12601
927.312	12604
927.419	12719
927.525	12700
927.631	12757
927.737	12616
927.843	12528
927.95	12494
928.056	12532
928.162	12528
928.267	12551
928.373	13133
928.479	12570
928.585	12391
928.69	12517
928.796	12460
928.901	12395
929.007	12144
929.112	12350
929.218	12422
929.323	12262
929.428	12182
929.533	12346
929.638	12163
929.743	12220
929.848	12171
929.953	12152
930.058	12144
930.163	11855
930.267	11946
930.372	12022
930.477	12019
930.581	12106
930.685	11935
930.79	11779
930.894	11931
930.998	11779
931.103	11916
931.207	11501
931.311	11463
931.415	11360
931.519	11193
931.623	11208
