Data from test_V78500241_3150.txt Node
Date: Fri Mar 25 16:03:37 CST 2022
User: usil
Spectrometer: V785-0024
Trigger mode: 0
Integration Time (sec): 4.000000E-1
Scans to average: 1
Nonlinearity correction enabled: false
Boxcar width: 0
Storing dark spectrum: false
XAxis mode: Wavelengths
Number of Pixels in Spectrum: 1024
>>>>>Begin Spectral Data<<<<<
801.071	28211
801.214	28249
801.356	28048
801.499	28154
801.641	28055
801.783	27953
801.926	27987
802.068	27983
802.211	27709
802.353	27675
802.496	27610
802.638	27622
802.78	27382
802.923	27408
803.065	27462
803.208	27386
803.35	27580
803.492	27736
803.635	27884
803.777	27576
803.919	27789
804.061	27956
804.204	27857
804.346	27679
804.488	27793
804.63	27751
804.773	27759
804.915	27838
805.057	27949
805.199	27751
805.341	27857
805.483	27914
805.626	27911
805.768	27694
805.91	27892
806.052	27941
806.194	27850
806.336	28051
806.478	27850
806.62	27892
806.762	28025
806.904	28173
807.046	28337
807.188	28223
807.33	28371
807.472	28348
807.614	28382
807.756	28318
807.898	28207
808.04	28181
808.182	28131
808.324	28074
808.465	28211
808.607	28443
808.749	28519
808.891	28573
809.033	28668
809.174	28554
809.316	28455
809.458	28645
809.6	28523
809.741	28656
809.883	28706
810.025	28786
810.166	28820
810.308	28774
810.45	28767
810.591	28744
810.733	28672
810.875	28527
811.016	28519
811.158	28478
811.299	28759
811.441	28637
811.582	28774
811.724	28664
811.865	28538
812.007	28535
812.148	28630
812.29	28630
812.431	28744
812.573	28961
812.714	28999
812.855	29174
812.997	29140
813.138	29444
813.279	29277
813.421	29227
813.562	28987
813.703	28946
813.845	28763
813.986	28554
814.127	28398
814.268	28295
814.41	28246
814.551	28177
814.692	28280
814.833	28162
814.974	28219
815.115	28390
815.256	28116
815.397	28249
815.539	27998
815.68	28105
815.821	28025
815.962	28055
816.103	28021
816.244	27934
816.385	27816
816.526	27797
816.666	27637
816.807	27564
816.948	27675
817.089	27713
817.23	27553
817.371	27622
817.512	27523
817.653	27595
817.793	27580
817.934	27561
818.075	27466
818.216	27458
818.356	27424
818.497	27515
818.638	27310
818.778	27306
818.919	27252
819.06	27329
819.2	27500
819.341	27591
819.481	27523
819.622	27660
819.762	27857
819.903	27778
820.043	27808
820.184	27732
820.324	27724
820.465	27739
820.605	27869
820.746	27656
820.886	27469
821.026	27724
821.167	27660
821.307	27720
821.447	27686
821.588	27526
821.728	27382
821.868	27359
822.008	27165
822.149	27039
822.289	26982
822.429	26864
822.569	26773
822.709	26769
822.849	26549
822.99	26609
823.13	26602
823.27	26453
823.41	26450
823.55	26225
823.69	26412
823.83	26434
823.97	26332
824.11	26191
824.25	26054
824.389	26282
824.529	26370
824.669	26168
824.809	26263
824.949	26351
825.089	26355
825.228	26259
825.368	26039
825.508	26096
825.648	26001
825.787	26054
825.927	26324
826.067	26153
826.206	26031
826.346	26073
826.485	26092
826.625	26046
826.765	26202
826.904	26233
827.044	25845
827.183	25833
827.323	25845
827.462	25894
827.601	25883
827.741	25731
827.88	25974
828.02	25750
828.159	25803
828.298	25700
828.437	25959
828.577	25708
828.716	26027
828.855	25723
828.994	25468
829.134	25502
829.273	25479
829.412	25438
829.551	25445
829.69	25377
829.829	25529
829.968	25575
830.107	25685
830.246	25479
830.385	25510
830.524	25464
830.663	25403
830.802	25046
830.941	25126
831.08	24989
831.219	25141
831.357	25171
831.496	25164
831.635	25042
831.774	24996
831.913	24920
832.051	24878
832.19	24829
832.329	24882
832.467	24821
832.606	24665
832.744	24692
832.883	24700
833.022	24703
833.16	24681
833.299	24920
833.437	24817
833.576	24821
833.714	24833
833.852	24833
833.991	24913
834.129	24951
834.267	24909
834.406	24787
834.544	24897
834.682	24924
834.821	24776
834.959	25046
835.097	24719
835.235	24856
835.373	24856
835.511	24875
835.65	24661
835.788	24677
835.926	24612
836.064	24574
836.202	24338
836.34	24669
836.478	24798
836.615	24532
836.753	24555
836.891	24719
837.029	24665
837.167	24578
837.305	24559
837.443	24601
837.58	24448
837.718	24467
837.856	24585
837.993	24327
838.131	24502
838.269	24388
838.406	24365
838.544	24262
838.681	24091
838.819	24136
838.956	24007
839.094	23893
839.231	23969
839.369	24182
839.506	24296
839.643	24228
839.781	23961
839.918	23874
840.055	24041
840.193	23973
840.33	23851
840.467	23901
840.604	24030
840.742	24171
840.879	23714
841.016	23726
841.153	23710
841.29	24110
841.427	23897
841.564	23931
841.701	23866
841.838	23859
841.975	23726
842.112	23863
842.249	23672
842.385	23634
842.522	23836
842.659	23687
842.796	23623
842.933	23764
843.069	23661
843.206	23486
843.343	23726
843.479	23642
843.616	23684
843.752	23360
843.889	23383
844.025	23509
844.162	23254
844.298	23474
844.435	23478
844.571	23410
844.708	23387
844.844	23425
844.98	23608
845.117	23455
845.253	23265
845.389	23299
845.525	23360
845.661	23258
845.798	23075
845.934	23216
846.07	23071
846.206	23098
846.342	23277
846.478	23086
846.614	22843
846.75	22778
846.886	22656
847.022	23033
847.158	22965
847.294	22866
847.429	23010
847.565	22805
847.701	23006
847.837	22500
847.972	22557
848.108	22694
848.244	22691
848.379	22390
848.515	22485
848.65	22485
848.786	22470
848.921	22443
849.057	22588
849.192	22637
849.328	22493
849.463	22413
849.598	22421
849.734	22344
849.869	22367
850.004	22299
850.14	22337
850.275	22333
850.41	22078
850.545	22230
850.68	22177
850.815	22284
850.95	22120
851.085	22367
851.22	22348
851.355	22211
851.49	22067
851.625	22188
851.76	22135
851.895	22162
852.03	22150
852.165	22154
852.299	22341
852.434	22200
852.569	22249
852.703	22196
852.838	22253
852.973	22421
853.107	22409
853.242	22226
853.376	22029
853.511	21956
853.645	22070
853.78	22173
853.914	22101
854.048	21956
854.183	22093
854.317	22059
854.451	22154
854.585	22116
854.72	22032
854.854	22128
854.988	21979
855.122	22025
855.256	21892
855.39	22013
855.524	22074
855.658	22070
855.792	22090
855.926	22006
856.06	22169
856.194	22067
856.327	22105
856.461	21949
856.595	21934
856.729	21991
856.862	22135
856.996	22116
857.13	22124
857.263	22116
857.397	22097
857.53	22078
857.664	22120
857.797	22116
857.931	22242
858.064	22116
858.197	22204
858.331	21979
858.464	21994
858.597	21892
858.731	22055
858.864	22025
858.997	21941
859.13	22082
859.263	22120
859.396	22006
859.529	22078
859.662	22010
859.795	21895
859.928	22074
860.061	22276
860.194	22139
860.327	22120
860.46	22097
860.592	22010
860.725	22055
860.858	22147
860.99	21945
861.123	21972
861.256	21983
861.388	22017
861.521	22683
861.653	21941
861.786	21842
861.918	21762
862.05	21994
862.183	22017
862.315	22010
862.447	21972
862.58	21876
862.712	21679
862.844	21682
862.976	21850
863.108	21808
863.24	22204
863.372	21705
863.504	21732
863.636	21789
863.768	21808
863.9	21804
864.032	21686
864.164	21857
864.296	21728
864.428	21831
864.559	21800
864.691	21709
864.823	21717
864.954	21854
865.086	21846
865.217	21709
865.349	21534
865.48	21542
865.612	21530
865.743	21778
865.875	21595
866.006	21633
866.137	21759
866.269	21462
866.4	21580
866.531	21583
866.662	21587
866.793	21610
866.924	21469
867.055	21599
867.186	21587
867.317	21515
867.448	21481
867.579	21500
867.71	21504
867.841	21458
867.972	21633
868.103	21587
868.233	21530
868.364	21736
868.495	21759
868.625	21907
868.756	21884
868.886	21770
869.017	21774
869.147	21918
869.278	21876
869.408	21922
869.539	21732
869.669	21835
869.799	21911
869.929	21983
870.06	21907
870.19	22238
870.32	22112
870.45	22173
870.58	22109
870.71	22284
870.84	22402
870.97	22204
871.1	22150
871.23	22413
871.36	22432
871.489	22386
871.619	22310
871.749	22470
871.879	22542
872.008	22462
872.138	22360
872.267	22306
872.397	22303
872.526	22223
872.656	22329
872.785	22226
872.915	22538
873.044	22478
873.173	22417
873.303	22451
873.432	22569
873.561	22481
873.69	22508
873.819	22402
873.948	22462
874.077	22325
874.206	22299
874.335	22447
874.464	22519
874.593	22626
874.722	22691
874.851	22698
874.979	22584
875.108	22691
875.237	22580
875.365	22656
875.494	22607
875.623	22637
875.751	22561
875.88	22786
876.008	22771
876.136	22862
876.265	23109
876.393	23067
876.521	23037
876.65	23159
876.778	23029
876.906	23022
877.034	23010
877.162	23060
877.29	22904
877.418	23056
877.546	23014
877.674	23041
877.802	22911
877.93	22961
878.058	22885
878.185	22972
878.313	22904
878.441	23037
878.568	22729
878.696	22976
878.824	22885
878.951	22991
879.079	23090
879.206	23326
879.333	23166
879.461	22965
879.588	23128
879.715	23216
879.842	23258
879.97	23060
880.097	22885
880.224	22801
880.351	22809
880.478	22801
880.605	22752
880.732	22908
880.859	22889
880.986	22873
881.112	22816
881.239	22725
881.366	22493
881.493	22443
881.619	22470
881.746	22413
881.872	22417
881.999	22382
882.125	22322
882.252	22382
882.378	22363
882.505	22622
882.631	22230
882.757	22105
882.883	22188
883.01	22021
883.136	21876
883.262	21892
883.388	21907
883.514	22128
883.64	22078
883.766	21907
883.892	21736
884.018	21884
884.143	22036
884.269	22097
884.395	21816
884.52	21713
884.646	21705
884.772	21656
884.897	21660
885.023	21675
885.148	21781
885.274	21793
885.399	21739
885.524	21774
885.65	21629
885.775	21660
885.9	21599
886.025	21865
886.15	21701
886.275	21720
886.4	21587
886.525	21644
886.65	21606
886.775	21648
886.9	21759
887.025	21808
887.149	21530
887.274	21401
887.399	21511
887.523	21389
887.648	21336
887.773	21340
887.897	21462
888.021	21526
888.146	21367
888.27	21523
888.395	21545
888.519	21496
888.643	21511
888.767	21431
888.891	21393
889.015	21317
889.139	21291
889.263	21256
889.387	21256
889.511	21496
889.635	21329
889.759	21146
889.883	21306
890.006	21302
890.13	21397
890.254	21230
890.377	21252
890.501	21055
890.624	21009
890.748	21028
890.871	20963
890.995	20796
891.118	20617
891.241	20792
891.364	20853
891.488	21009
891.611	20823
891.734	20838
891.857	20933
891.98	20880
892.103	20990
892.226	20876
892.349	20750
892.471	20648
892.594	20731
892.717	20750
892.839	20587
892.962	20667
893.085	20746
893.207	20739
893.33	20446
893.452	20712
893.575	20769
893.697	20735
893.819	20823
893.941	20975
894.064	20902
894.186	20686
894.308	20632
894.43	20724
894.552	20800
894.674	20769
894.796	20602
894.918	20739
895.04	20590
895.161	20636
895.283	20727
895.405	20705
895.526	20705
895.648	20674
895.769	20716
895.891	20708
896.012	20739
896.134	20762
896.255	20670
896.376	20727
896.498	20765
896.619	20754
896.74	20727
896.861	20800
896.982	21047
897.103	21138
897.224	20876
897.345	20868
897.466	20777
897.587	20990
897.708	20906
897.828	20887
897.949	20800
898.07	20724
898.19	20762
898.311	21017
898.431	20880
898.552	20853
898.672	20921
898.792	20948
898.913	20842
899.033	20781
899.153	20712
899.273	20556
899.393	20727
899.513	20682
899.633	20659
899.753	20830
899.873	20514
899.993	20724
900.113	20476
900.232	20636
900.352	20507
900.472	20590
900.591	20275
900.711	20377
900.83	20377
900.95	20552
901.069	20473
901.189	20381
901.308	20077
901.427	20050
901.546	19978
901.665	19993
901.784	19989
901.904	19750
902.023	19864
902.141	19632
902.26	19521
902.379	19647
902.498	19529
902.617	19434
902.735	19632
902.854	19400
902.973	19453
903.091	19103
903.21	19171
903.328	19126
903.446	19012
903.565	19061
903.683	19023
903.801	18871
903.919	18943
904.038	19042
904.156	18681
904.274	18779
904.392	18753
904.51	18627
904.627	18741
904.745	18764
904.863	18749
904.981	18509
905.098	18372
905.216	18433
905.334	18418
905.451	18418
905.569	18342
905.686	18357
905.803	18414
905.921	18194
906.038	18289
906.155	18182
906.272	18087
906.389	18026
906.506	18011
906.623	17897
906.74	17939
906.857	17752
906.974	17885
907.091	17920
907.208	17999
907.324	17999
907.441	17729
907.557	17627
907.674	17611
907.79	17604
907.907	17539
908.023	17547
908.139	17684
908.256	17539
908.372	17410
908.488	17501
908.604	17417
908.72	17303
908.836	17402
908.952	17379
909.068	17398
909.184	17410
909.3	17387
909.415	17379
909.531	17315
909.647	17121
909.762	17045
909.878	17022
909.993	17045
910.108	17083
910.224	16987
910.339	16843
910.454	16949
910.57	16892
910.685	16771
910.8	17086
910.915	16976
911.03	16831
911.145	16561
911.259	16596
911.374	16618
911.489	16569
911.604	16504
911.718	16287
911.833	16382
911.947	16413
912.062	16192
912.176	16356
912.291	16341
912.405	16356
912.519	16607
912.633	16519
912.748	16363
912.862	16344
912.976	16242
913.09	16101
913.204	16093
913.318	16192
913.431	16268
913.545	16257
913.659	16234
913.772	16131
913.886	16006
914	15979
914.113	16059
914.226	16063
914.34	15987
914.453	15930
914.566	15975
914.68	15918
914.793	15793
914.906	15633
915.019	15637
915.132	15485
915.245	15564
915.358	15618
915.47	15625
915.583	15587
915.696	15553
915.809	15682
915.921	15614
916.034	15568
916.146	15477
916.259	15279
916.371	15526
916.483	15431
916.595	15367
916.708	15447
916.82	15431
916.932	15264
917.044	15393
917.156	15325
917.268	15222
917.38	15184
917.491	15154
917.603	15237
917.715	15249
917.826	15363
917.938	15199
918.049	14975
918.161	15256
918.272	15336
918.384	15302
918.495	15123
918.606	14967
918.717	14880
918.828	14929
918.939	14979
919.05	14880
919.161	14994
919.272	14727
919.383	14762
919.494	15043
919.604	15077
919.715	14948
919.826	14864
919.936	14864
920.047	15024
920.157	14883
920.267	15131
920.378	14960
920.488	14880
920.598	15070
920.708	15165
920.818	15001
920.928	14963
921.038	15291
921.148	15264
921.258	14758
921.368	14765
921.477	14697
921.587	14625
921.697	14511
921.806	14594
921.916	14358
922.025	14343
922.134	14275
922.244	14313
922.353	14351
922.462	14237
922.571	14100
922.68	13947
922.789	13902
922.898	13906
923.007	13791
923.116	13951
923.224	13936
923.333	13871
923.442	13696
923.55	13753
923.659	13830
923.767	13780
923.876	13689
923.984	13738
924.092	13636
924.201	13750
924.309	13666
924.417	13655
924.525	13677
924.633	13495
924.741	14286
924.849	13392
924.956	13495
925.064	13400
925.172	13304
925.279	13247
925.387	13350
925.494	13304
925.602	13426
925.709	13331
925.816	13156
925.924	13354
926.031	13304
926.138	13209
926.245	13289
926.352	13168
926.459	13240
926.566	13316
926.673	13164
926.779	13099
926.886	13095
926.993	13000
927.099	12947
927.206	12905
927.312	12859
927.419	12916
927.525	12897
927.631	12882
927.737	12749
927.843	12749
927.95	12669
928.056	12703
928.162	12745
928.267	12802
928.373	13304
928.479	12810
928.585	12608
928.69	12684
928.796	12654
928.901	12631
929.007	12418
929.112	12528
929.218	12593
929.323	12395
929.428	12479
929.533	12616
929.638	12399
929.743	12399
929.848	12380
929.953	12365
930.058	12239
930.163	12175
930.267	12182
930.372	12289
930.477	12053
930.581	12327
930.685	12175
930.79	12011
930.894	12011
930.998	11878
931.103	12022
931.207	11779
931.311	11657
931.415	11585
931.519	11326
931.623	11376
