Data from test_V78500241_1395.txt Node
Date: Fri Mar 25 15:51:27 CST 2022
User: usil
Spectrometer: V785-0024
Trigger mode: 0
Integration Time (sec): 4.000000E-1
Scans to average: 1
Nonlinearity correction enabled: false
Boxcar width: 0
Storing dark spectrum: false
XAxis mode: Wavelengths
Number of Pixels in Spectrum: 1024
>>>>>Begin Spectral Data<<<<<
801.071	27823
801.214	27603
801.356	27526
801.499	27477
801.641	27439
801.783	27348
801.926	27317
802.068	27359
802.211	27332
802.353	26990
802.496	27077
802.638	27005
802.78	26883
802.923	26998
803.065	26975
803.208	26906
803.35	27066
803.492	26982
803.635	27112
803.777	27039
803.919	27127
804.061	27500
804.204	27230
804.346	27142
804.488	27020
804.63	27047
804.773	27112
804.915	27233
805.057	27249
805.199	27138
805.341	27222
805.483	27294
805.626	27325
805.768	27211
805.91	27329
806.052	27469
806.194	27291
806.336	27431
806.478	27310
806.62	27287
806.762	27488
806.904	27698
807.046	27743
807.188	27793
807.33	27694
807.472	27998
807.614	27557
807.756	27644
807.898	27557
808.04	27466
808.182	27641
808.324	27759
808.465	27667
808.607	27759
808.749	27819
808.891	27983
809.033	28067
809.174	27880
809.316	27911
809.458	28025
809.6	27968
809.741	28120
809.883	28021
810.025	28367
810.166	28154
810.308	28246
810.45	28101
810.591	28040
810.733	27903
810.875	27945
811.016	27884
811.158	27846
811.299	28101
811.441	28097
811.582	28070
811.724	27979
811.865	27880
812.007	27979
812.148	27991
812.29	28078
812.431	28173
812.573	28242
812.714	28394
812.855	28474
812.997	28542
813.138	28687
813.279	28481
813.421	28462
813.562	28417
813.703	28207
813.845	28131
813.986	27983
814.127	27808
814.268	27614
814.41	27724
814.551	27641
814.692	27606
814.833	27595
814.974	27500
815.115	27667
815.256	27473
815.397	27542
815.539	27431
815.68	27507
815.821	27321
815.962	27511
816.103	27435
816.244	27302
816.385	27252
816.526	27127
816.666	27100
816.807	26918
816.948	27028
817.089	27062
817.23	27043
817.371	26895
817.512	26925
817.653	26940
817.793	26842
817.934	26842
818.075	26921
818.216	26918
818.356	26804
818.497	26735
818.638	26644
818.778	26545
818.919	26720
819.06	26632
819.2	26899
819.341	26929
819.481	26906
819.622	27013
819.762	27283
819.903	27169
820.043	26933
820.184	27081
820.324	26811
820.465	27195
820.605	27024
820.746	27028
820.886	26845
821.026	27047
821.167	26853
821.307	26975
821.447	26948
821.588	26842
821.728	26667
821.868	26511
822.008	26385
822.149	26339
822.289	26339
822.429	26107
822.569	26229
822.709	26122
822.849	25932
822.99	25978
823.13	25826
823.27	25818
823.41	25616
823.55	25616
823.69	25765
823.83	25906
823.97	25605
824.11	25384
824.25	25567
824.389	25563
824.529	25552
824.669	25571
824.809	25662
824.949	25537
825.089	25719
825.228	25685
825.368	25457
825.508	25426
825.648	25472
825.787	25411
825.927	25556
826.067	25392
826.206	25441
826.346	25479
826.485	25297
826.625	25396
826.765	25476
826.904	25476
827.044	25084
827.183	25225
827.323	25190
827.462	25183
827.601	25099
827.741	25152
827.88	25156
828.02	24981
828.159	25110
828.298	25065
828.437	25285
828.577	25065
828.716	25160
828.855	25061
828.994	24715
829.134	24894
829.273	24798
829.412	24658
829.551	24749
829.69	24635
829.829	24886
829.968	24897
830.107	24951
830.246	24852
830.385	24715
830.524	24776
830.663	24631
830.802	24635
830.941	24433
831.08	24399
831.219	24502
831.357	24418
831.496	24692
831.635	24414
831.774	24346
831.913	24311
832.051	24277
832.19	24232
832.329	24117
832.467	24098
832.606	24022
832.744	24129
832.883	24018
833.022	24178
833.16	24106
833.299	24102
833.437	24011
833.576	24155
833.714	24197
833.852	24247
833.991	24148
834.129	24224
834.267	24270
834.406	24182
834.544	24159
834.682	24258
834.821	24117
834.959	24334
835.097	24174
835.235	24380
835.373	24144
835.511	24117
835.65	24087
835.788	23980
835.926	23912
836.064	23783
836.202	23737
836.34	24079
836.478	24087
836.615	23950
836.753	24030
836.891	23946
837.029	23855
837.167	24038
837.305	23984
837.443	23809
837.58	23752
837.718	23756
837.856	23828
837.993	23786
838.131	23722
838.269	23722
838.406	23760
838.544	23585
838.681	23520
838.819	23326
838.956	23345
839.094	23208
839.231	23265
839.369	23452
839.506	23627
839.643	23467
839.781	23349
839.918	23193
840.055	23269
840.193	23330
840.33	23288
840.467	23136
840.604	23273
840.742	23562
840.879	23121
841.016	23102
841.153	23193
841.29	23334
841.427	23189
841.564	23193
841.701	23258
841.838	23216
841.975	22987
842.112	23136
842.249	23014
842.385	23052
842.522	23121
842.659	23056
842.796	22957
842.933	22976
843.069	22900
843.206	22858
843.343	23052
843.479	22869
843.616	23003
843.752	22801
843.889	22839
844.025	22889
844.162	22603
844.298	22881
844.435	22809
844.571	22618
844.708	22805
844.844	22965
844.98	22904
845.117	22774
845.253	22729
845.389	22584
845.525	22641
845.661	22535
845.798	22523
845.934	22508
846.07	22504
846.206	22459
846.342	22733
846.478	22318
846.614	22284
846.75	22211
846.886	22230
847.022	22253
847.158	22150
847.294	22223
847.429	22242
847.565	22314
847.701	22436
847.837	21949
847.972	21907
848.108	21979
848.244	21941
848.379	21861
848.515	21873
848.65	21827
848.786	21953
848.921	21812
849.057	21884
849.192	21819
849.328	21827
849.463	21846
849.598	21720
849.734	21614
849.869	21663
850.004	21454
850.14	21473
850.275	21652
850.41	21519
850.545	21519
850.68	21549
850.815	21568
850.95	21576
851.085	21755
851.22	21675
851.355	21610
851.49	21591
851.625	21542
851.76	21412
851.895	21488
852.03	21511
852.165	21500
852.299	21663
852.434	21648
852.569	21534
852.703	21401
852.838	21629
852.973	21652
853.107	21698
853.242	21515
853.376	21428
853.511	21302
853.645	21332
853.78	21488
853.914	21420
854.048	21408
854.183	21412
854.317	21568
854.451	21534
854.585	21344
854.72	21310
854.854	21428
854.988	21374
855.122	21351
855.256	21195
855.39	21336
855.524	21363
855.658	21454
855.792	21405
855.926	21397
856.06	21340
856.194	21469
856.327	21195
856.461	21298
856.595	21412
856.729	21526
856.862	21561
856.996	21351
857.13	21435
857.263	21530
857.397	21492
857.53	21416
857.664	21302
857.797	21378
857.931	21389
858.064	21416
858.197	21355
858.331	21325
858.464	21329
858.597	21355
858.731	21405
858.864	21348
858.997	21363
859.13	21351
859.263	21408
859.396	21424
859.529	21416
859.662	21287
859.795	21348
859.928	21374
860.061	21519
860.194	21660
860.327	21412
860.46	21313
860.592	21523
860.725	21580
860.858	21656
860.99	21348
861.123	21367
861.256	21336
861.388	21386
861.521	22139
861.653	21237
861.786	21135
861.918	21237
862.05	21283
862.183	21321
862.315	21363
862.447	21298
862.58	21298
862.712	21123
862.844	21173
862.976	21233
863.108	21135
863.24	21549
863.372	21055
863.504	21230
863.636	21070
863.768	21154
863.9	21161
864.032	21024
864.164	21131
864.296	21074
864.428	21195
864.559	21226
864.691	21112
864.823	21051
864.954	20990
865.086	21089
865.217	21032
865.349	20994
865.48	21036
865.612	21062
865.743	21089
865.875	21039
866.006	20998
866.137	20948
866.269	20914
866.4	21017
866.531	20868
866.662	20880
866.793	20910
866.924	20796
867.055	20872
867.186	20941
867.317	20887
867.448	20792
867.579	20906
867.71	20933
867.841	20788
867.972	20876
868.103	20872
868.233	20883
868.364	20948
868.495	21013
868.625	21024
868.756	21226
868.886	21043
869.017	21096
869.147	21241
869.278	21367
869.408	21169
869.539	21188
869.669	21302
869.799	21184
869.929	21325
870.06	21275
870.19	21492
870.32	21500
870.45	21515
870.58	21488
870.71	21713
870.84	21637
870.97	21504
871.1	21637
871.23	21701
871.36	21778
871.489	21599
871.619	21778
871.749	21838
871.879	21717
872.008	21884
872.138	21675
872.267	21823
872.397	21557
872.526	21610
872.656	21542
872.785	21557
872.915	21903
873.044	21884
873.173	21789
873.303	21918
873.432	21861
873.561	21903
873.69	21880
873.819	21789
873.948	21854
874.077	21739
874.206	21762
874.335	21869
874.464	21728
874.593	22059
874.722	21964
874.851	22112
874.979	22105
875.108	22078
875.237	22032
875.365	21918
875.494	22093
875.623	22124
875.751	22082
875.88	22010
876.008	22173
876.136	22196
876.265	22367
876.393	22653
876.521	22470
876.65	22440
876.778	22421
876.906	22379
877.034	22409
877.162	22417
877.29	22322
877.418	22360
877.546	22257
877.674	22325
877.802	22462
877.93	22356
878.058	22299
878.185	22211
878.313	22337
878.441	22318
878.568	22124
878.696	22223
878.824	22405
878.951	22470
879.079	22485
879.206	22660
879.333	22569
879.461	22402
879.588	22500
879.715	22440
879.842	22599
879.97	22481
880.097	22169
880.224	22150
880.351	22139
880.478	22109
880.605	22272
880.732	22188
880.859	22379
880.986	22105
881.112	22192
881.239	22029
881.366	21922
881.493	21850
881.619	21644
881.746	21812
881.872	21709
881.999	21698
882.125	21686
882.252	21789
882.378	21694
882.505	21762
882.631	21660
882.757	21496
882.883	21485
883.01	21477
883.136	21393
883.262	21405
883.388	21332
883.514	21538
883.64	21420
883.766	21336
883.892	21127
884.018	21207
884.143	21408
884.269	21405
884.395	21131
884.52	21085
884.646	21169
884.772	20986
884.897	21104
885.023	21100
885.148	21233
885.274	21211
885.399	21207
885.524	21150
885.65	20990
885.775	21062
885.9	21032
886.025	21119
886.15	21233
886.275	20990
886.4	20975
886.525	21028
886.65	20994
886.775	21089
886.9	21165
887.025	21268
887.149	21085
887.274	20880
887.399	20929
887.523	20788
887.648	20769
887.773	20769
887.897	20960
888.021	20899
888.146	20735
888.27	20944
888.395	20823
888.519	20861
888.643	20876
888.767	20883
888.891	20792
889.015	20648
889.139	20864
889.263	20663
889.387	20815
889.511	20773
889.635	20849
889.759	20712
889.883	20537
890.006	20651
890.13	20712
890.254	20564
890.377	20583
890.501	20393
890.624	20336
890.748	20400
890.871	20240
890.995	20259
891.118	20149
891.241	20237
891.364	20145
891.488	20362
891.611	20199
891.734	20172
891.857	20278
891.98	20248
892.103	20199
892.226	20259
892.349	20313
892.471	19978
892.594	20084
892.717	20153
892.839	20107
892.962	20069
893.085	20183
893.207	20191
893.33	20111
893.452	20088
893.575	20248
893.697	20195
893.819	20191
893.941	20278
894.064	20267
894.186	20031
894.308	20096
894.43	20229
894.552	20286
894.674	20237
894.796	20001
894.918	20214
895.04	20020
895.161	20142
895.283	20149
895.405	20183
895.526	20202
895.648	20168
895.769	20142
895.891	20256
896.012	20275
896.134	20210
896.255	20081
896.376	20103
896.498	20225
896.619	20210
896.74	20096
896.861	20119
896.982	20408
897.103	20522
897.224	20457
897.345	20381
897.466	20328
897.587	20339
897.708	20564
897.828	20339
897.949	20366
898.07	20210
898.19	20347
898.311	20503
898.431	20168
898.552	20313
898.672	20415
898.792	20298
898.913	20404
899.033	20164
899.153	20206
899.273	19997
899.393	20126
899.513	20210
899.633	20183
899.753	20122
899.873	20081
899.993	20206
900.113	20046
900.232	19959
900.352	19925
900.472	19925
900.591	19864
900.711	19932
900.83	19776
900.95	20027
901.069	19925
901.189	19807
901.308	19575
901.427	19419
901.546	19411
901.665	19480
901.784	19567
901.904	19358
902.023	19225
902.141	19019
902.26	19008
902.379	19076
902.498	19023
902.617	18920
902.735	18989
902.854	18939
902.973	18859
903.091	18734
903.21	18673
903.328	18684
903.446	18582
903.565	18464
903.683	18437
903.801	18342
903.919	18486
904.038	18414
904.156	18216
904.274	18369
904.392	18209
904.51	18197
904.627	18448
904.745	18319
904.863	18346
904.981	17965
905.098	17969
905.216	17916
905.334	17946
905.451	17977
905.569	17870
905.686	17988
905.803	17828
905.921	17600
906.038	17847
906.155	17752
906.272	17649
906.389	17516
906.506	17448
906.623	17455
906.74	17501
906.857	17395
906.974	17311
907.091	17414
907.208	17611
907.324	17528
907.441	17383
907.557	17212
907.674	17212
907.79	17124
907.907	17014
908.023	17083
908.139	17067
908.256	17041
908.372	17056
908.488	16991
908.604	16946
908.72	16911
908.836	16881
908.952	16828
909.068	16850
909.184	16820
909.3	16900
909.415	16816
909.531	16831
909.647	16588
909.762	16561
909.878	16592
909.993	16569
910.108	16542
910.224	16443
910.339	16542
910.454	16542
910.57	16352
910.685	16265
910.8	16588
910.915	16508
911.03	16394
911.145	16211
911.259	16120
911.374	16097
911.489	16101
911.604	16082
911.718	15895
911.833	15930
911.947	15804
912.062	15701
912.176	15884
912.291	15880
912.405	15899
912.519	16097
912.633	16097
912.748	16040
912.862	15941
912.976	15759
913.09	15599
913.204	15709
913.318	15682
913.431	15808
913.545	15793
913.659	15747
913.772	15705
913.886	15549
914	15416
914.113	15580
914.226	15606
914.34	15557
914.453	15424
914.566	15644
914.68	15370
914.793	15302
914.906	15127
915.019	15123
915.132	15173
915.245	15123
915.358	15055
915.47	15142
915.583	15104
915.696	15154
915.809	15214
915.921	15249
916.034	15013
916.146	15028
916.259	14998
916.371	15070
916.483	14998
916.595	14845
916.708	14918
916.82	15100
916.932	14921
917.044	14925
917.156	14845
917.268	14819
917.38	14807
917.491	14720
917.603	14769
917.715	14842
917.826	14861
917.938	14811
918.049	14636
918.161	14769
918.272	14807
918.384	14853
918.495	14686
918.606	14507
918.717	14495
918.828	14629
918.939	14473
919.05	14412
919.161	14499
919.272	14362
919.383	14393
919.494	14629
919.604	14636
919.715	14560
919.826	14396
919.936	14549
920.047	14541
920.157	14484
920.267	14564
920.378	14450
920.488	14488
920.598	14629
920.708	14701
920.818	14735
920.928	14636
921.038	14712
921.148	14762
921.258	14457
921.368	14358
921.477	14282
921.587	14237
921.697	14142
921.806	14199
921.916	14103
922.025	13986
922.134	13856
922.244	13871
922.353	13852
922.462	13814
922.571	13670
922.68	13571
922.789	13434
922.898	13415
923.007	13449
923.116	13510
923.224	13518
923.333	13464
923.442	13369
923.55	13316
923.659	13350
923.767	13403
923.876	13350
923.984	13362
924.092	13263
924.201	13350
924.309	13251
924.417	13206
924.525	13160
924.633	13209
924.741	13906
924.849	12993
924.956	13156
925.064	13038
925.172	12882
925.279	12909
925.387	12867
925.494	12939
925.602	13000
925.709	12935
925.816	12829
925.924	12913
926.031	12939
926.138	12890
926.245	12970
926.352	12882
926.459	12909
926.566	13084
926.673	12844
926.779	12722
926.886	12658
926.993	12589
927.099	12532
927.206	12369
927.312	12426
927.419	12456
927.525	12456
927.631	12525
927.737	12388
927.843	12327
927.95	12216
928.056	12323
928.162	12426
928.267	12399
928.373	12973
928.479	12369
928.585	12209
928.69	12357
928.796	12304
928.901	12091
929.007	12076
929.112	12228
929.218	12163
929.323	12171
929.428	12026
929.533	12194
929.638	11954
929.743	11999
929.848	12076
929.953	11882
930.058	11874
930.163	11783
930.267	11786
930.372	11870
930.477	11733
930.581	11961
930.685	11824
930.79	11634
930.894	11695
930.998	11672
931.103	11726
931.207	11353
931.311	11368
931.415	11193
931.519	11052
931.623	11018
