Data from test_V78500241_132.txt Node
Date: Fri Mar 25 15:42:42 CST 2022
User: usil
Spectrometer: V785-0024
Trigger mode: 0
Integration Time (sec): 4.000000E-1
Scans to average: 1
Nonlinearity correction enabled: false
Boxcar width: 0
Storing dark spectrum: false
XAxis mode: Wavelengths
Number of Pixels in Spectrum: 1024
>>>>>Begin Spectral Data<<<<<
801.071	30342
801.214	30308
801.356	30018
801.499	29965
801.641	29779
801.783	29862
801.926	29809
802.068	29904
802.211	29760
802.353	29657
802.496	29611
802.638	29528
802.78	29474
802.923	29440
803.065	29368
803.208	29520
803.35	29375
803.492	29627
803.635	29699
803.777	29558
803.919	29665
804.061	29927
804.204	29699
804.346	29528
804.488	29657
804.63	29653
804.773	29414
804.915	29570
805.057	29589
805.199	29596
805.341	29684
805.483	29786
805.626	29676
805.768	29642
805.91	29767
806.052	29657
806.194	29703
806.336	29901
806.478	29707
806.62	29794
806.762	29718
806.904	29847
807.046	30277
807.188	30106
807.33	30098
807.472	30148
807.614	30072
807.756	30098
807.898	29920
808.04	29958
808.182	29897
808.324	29824
808.465	29889
808.607	30091
808.749	30239
808.891	30369
809.033	30380
809.174	30247
809.316	30201
809.458	30346
809.6	30319
809.741	30327
809.883	30205
810.025	30429
810.166	30536
810.308	30391
810.45	30441
810.591	30505
810.733	30315
810.875	30258
811.016	30330
811.158	30152
811.299	30315
811.441	30540
811.582	30262
811.724	30190
811.865	30262
812.007	30167
812.148	30239
812.29	30178
812.431	30448
812.573	30471
812.714	30715
812.855	30730
812.997	30836
813.138	30935
813.279	30821
813.421	30521
813.562	30745
813.703	30494
813.845	30395
813.986	30110
814.127	30026
814.268	29726
814.41	29885
814.551	29927
814.692	30007
814.833	29756
814.974	29813
815.115	29996
815.256	29828
815.397	29653
815.539	29653
815.68	29543
815.821	29436
815.962	29608
816.103	29455
816.244	29326
816.385	29341
816.526	29353
816.666	29025
816.807	29041
816.948	28961
817.089	29022
817.23	28980
817.371	28949
817.512	28953
817.653	29010
817.793	28881
817.934	28892
818.075	28953
818.216	28961
818.356	28919
818.497	28873
818.638	28713
818.778	28801
818.919	28733
819.06	28645
819.2	28721
819.341	28778
819.481	28930
819.622	29098
819.762	29231
819.903	29242
820.043	29048
820.184	29098
820.324	28961
820.465	29060
820.605	28965
820.746	29029
820.886	28847
821.026	28843
821.167	28908
821.307	28949
821.447	28923
821.588	28885
821.728	28466
821.868	28440
822.008	28238
822.149	28287
822.289	28276
822.429	28135
822.569	28067
822.709	28013
822.849	27956
822.99	27766
823.13	27603
823.27	27759
823.41	27511
823.55	27610
823.69	27545
823.83	27534
823.97	27542
824.11	27291
824.25	27233
824.389	27237
824.529	27564
824.669	27294
824.809	27450
824.949	27298
825.089	27427
825.228	27424
825.368	27226
825.508	26979
825.648	27245
825.787	27127
825.927	27195
826.067	27062
826.206	27211
826.346	27192
826.485	27222
826.625	27184
826.765	27249
826.904	27127
827.044	26792
827.183	26853
827.323	26682
827.462	26868
827.601	26872
827.741	26743
827.88	26857
828.02	26708
828.159	26796
828.298	26659
828.437	26826
828.577	26735
828.716	26906
828.855	26735
828.994	26419
829.134	26434
829.273	26541
829.412	26503
829.551	26438
829.69	26533
829.829	26438
829.968	26545
830.107	26533
830.246	26446
830.385	26396
830.524	26423
830.663	26187
830.802	26225
830.941	26111
831.08	25860
831.219	26073
831.357	26126
831.496	26328
831.635	26096
831.774	25997
831.913	25708
832.051	25841
832.19	25704
832.329	25753
832.467	25597
832.606	25518
832.744	25472
832.883	25670
833.022	25578
833.16	25662
833.299	25655
833.437	25719
833.576	25643
833.714	25791
833.852	25719
833.991	25605
834.129	25727
834.267	25811
834.406	25594
834.544	25677
834.682	25662
834.821	25457
834.959	25666
835.097	25510
835.235	25578
835.373	25556
835.511	25510
835.65	25445
835.788	25350
835.926	25198
836.064	25312
836.202	25259
836.34	25407
836.478	25457
836.615	25419
836.753	25297
836.891	25419
837.029	25403
837.167	25419
837.305	25346
837.443	25221
837.58	25244
837.718	25179
837.856	25080
837.993	25129
838.131	25141
838.269	25099
838.406	25217
838.544	25099
838.681	24795
838.819	24707
838.956	24703
839.094	24612
839.231	24707
839.369	24764
839.506	24992
839.643	24795
839.781	24677
839.918	24589
840.055	24456
840.193	24585
840.33	24471
840.467	24544
840.604	24627
840.742	24840
840.879	24452
841.016	24350
841.153	24445
841.29	24661
841.427	24346
841.564	24471
841.701	24315
841.838	24323
841.975	24270
842.112	24399
842.249	24201
842.385	24159
842.522	24456
842.659	24232
842.796	24171
842.933	24186
843.069	24068
843.206	24190
843.343	24125
843.479	24076
843.616	24178
843.752	23942
843.889	24022
844.025	24015
844.162	23878
844.298	24003
844.435	23935
844.571	23752
844.708	23965
844.844	24060
844.98	24041
845.117	24015
845.253	23870
845.389	23661
845.525	23630
845.661	23779
845.798	23467
845.934	23604
846.07	23558
846.206	23547
846.342	23752
846.478	23417
846.614	23322
846.75	23368
846.886	23189
847.022	23307
847.158	23284
847.294	23239
847.429	23254
847.565	23280
847.701	23478
847.837	23113
847.972	22892
848.108	23056
848.244	23109
848.379	22885
848.515	22923
848.65	22736
848.786	22938
848.921	22809
849.057	22908
849.192	22771
849.328	22771
849.463	22790
849.598	22687
849.734	22763
849.869	22672
850.004	22592
850.14	22531
850.275	22573
850.41	22683
850.545	22493
850.68	22478
850.815	22588
850.95	22592
851.085	22713
851.22	22626
851.355	22569
851.49	22634
851.625	22356
851.76	22573
851.895	22485
852.03	22356
852.165	22489
852.299	22584
852.434	22653
852.569	22516
852.703	22542
852.838	22519
852.973	22683
853.107	22763
853.242	22489
853.376	22295
853.511	22265
853.645	22246
853.78	22569
853.914	22318
854.048	22363
854.183	22261
854.317	22322
854.451	22512
854.585	22375
854.72	22284
854.854	22421
854.988	22219
855.122	22211
855.256	22135
855.39	22390
855.524	22299
855.658	22322
855.792	22265
855.926	22386
856.06	22440
856.194	22485
856.327	22261
856.461	22226
856.595	22249
856.729	22318
856.862	22363
856.996	22272
857.13	22276
857.263	22413
857.397	22306
857.53	22310
857.664	22337
857.797	22405
857.931	22424
858.064	22287
858.197	22424
858.331	22211
858.464	22185
858.597	22162
858.731	22154
858.864	22200
858.997	22188
859.13	22337
859.263	22356
859.396	22352
859.529	22207
859.662	22238
859.795	22128
859.928	22211
860.061	22413
860.194	22428
860.327	22196
860.46	22272
860.592	22337
860.725	22242
860.858	22398
860.99	22215
861.123	22177
861.256	22238
861.388	22204
861.521	22717
861.653	21994
861.786	22051
861.918	22150
862.05	22162
862.183	22234
862.315	22394
862.447	22375
862.58	22230
862.712	22006
862.844	22032
862.976	21964
863.108	21915
863.24	22177
863.372	21937
863.504	21941
863.636	21975
863.768	21937
863.9	21918
864.032	21850
864.164	21800
864.296	21911
864.428	22078
864.559	21964
864.691	21941
864.823	21774
864.954	21941
865.086	21842
865.217	21736
865.349	21648
865.48	21804
865.612	21797
865.743	22032
865.875	21762
866.006	21751
866.137	21854
866.269	21759
866.4	21827
866.531	21743
866.662	21526
866.793	21698
866.924	21732
867.055	21778
867.186	21625
867.317	21732
867.448	21656
867.579	21599
867.71	21648
867.841	21667
867.972	21793
868.103	21682
868.233	21656
868.364	21797
868.495	21823
868.625	21934
868.756	22086
868.886	21880
869.017	22017
869.147	22002
869.278	21991
869.408	21884
869.539	21964
869.669	22010
869.799	21907
869.929	22025
870.06	21994
870.19	22246
870.32	22284
870.45	22253
870.58	22310
870.71	22462
870.84	22451
870.97	22402
871.1	22451
871.23	22561
871.36	22523
871.489	22451
871.619	22497
871.749	22554
871.879	22546
872.008	22607
872.138	22519
872.267	22592
872.397	22325
872.526	22394
872.656	22421
872.785	22219
872.915	22596
873.044	22577
873.173	22542
873.303	22603
873.432	22618
873.561	22569
873.69	22561
873.819	22645
873.948	22588
874.077	22615
874.206	22504
874.335	22664
874.464	22774
874.593	22820
874.722	22778
874.851	22771
874.979	22896
875.108	22710
875.237	22759
875.365	22763
875.494	22683
875.623	22733
875.751	22679
875.88	22698
876.008	22919
876.136	22980
876.265	23265
876.393	23220
876.521	23128
876.65	23220
876.778	23197
876.906	22995
877.034	23094
877.162	23155
877.29	23037
877.418	23166
877.546	23010
877.674	23102
877.802	23090
877.93	23166
878.058	23064
878.185	23003
878.313	23132
878.441	23064
878.568	22972
878.696	23083
878.824	23113
878.951	23170
879.079	23284
879.206	23406
879.333	23345
879.461	23117
879.588	23166
879.715	23368
879.842	23410
879.97	23159
880.097	23022
880.224	22980
880.351	22972
880.478	22934
880.605	22824
880.732	22820
880.859	23140
880.986	22866
881.112	22911
881.239	22782
881.366	22755
881.493	22546
881.619	22485
881.746	22440
881.872	22360
881.999	22459
882.125	22367
882.252	22622
882.378	22493
882.505	22584
882.631	22519
882.757	22196
882.883	22333
883.01	22261
883.136	22211
883.262	22109
883.388	21968
883.514	22177
883.64	22223
883.766	22154
883.892	21960
884.018	22109
884.143	22150
884.269	22257
884.395	21991
884.52	21873
884.646	21922
884.772	21770
884.897	21812
885.023	21857
885.148	21903
885.274	21968
885.399	21899
885.524	21842
885.65	21781
885.775	21850
885.9	21850
886.025	21918
886.15	21926
886.275	21755
886.4	21747
886.525	21743
886.65	21808
886.775	21641
886.9	21873
887.025	22067
887.149	21797
887.274	21591
887.399	21530
887.523	21663
887.648	21545
887.773	21542
887.897	21648
888.021	21595
888.146	21466
888.27	21625
888.395	21663
888.519	21492
888.643	21481
888.767	21557
888.891	21466
889.015	21294
889.139	21389
889.263	21386
889.387	21428
889.511	21515
889.635	21378
889.759	21233
889.883	21264
890.006	21340
890.13	21496
890.254	21260
890.377	21275
890.501	21032
890.624	21093
890.748	21169
890.871	20994
890.995	20811
891.118	20933
891.241	20883
891.364	20872
891.488	20956
891.611	21093
891.734	20876
891.857	21051
891.98	20845
892.103	20960
892.226	20864
892.349	20853
892.471	20689
892.594	20864
892.717	20762
892.839	20746
892.962	20720
893.085	20883
893.207	20697
893.33	20712
893.452	20765
893.575	20895
893.697	20773
893.819	20830
893.941	21043
894.064	20838
894.186	20682
894.308	20705
894.43	20880
894.552	20929
894.674	20826
894.796	20712
894.918	20792
895.04	20655
895.161	20845
895.283	20785
895.405	20686
895.526	20750
895.648	20777
895.769	20807
895.891	20792
896.012	20941
896.134	20853
896.255	20800
896.376	20697
896.498	20815
896.619	20811
896.74	20785
896.861	20948
896.982	21157
897.103	21256
897.224	21074
897.345	21070
897.466	21017
897.587	20952
897.708	21157
897.828	21093
897.949	20906
898.07	20796
898.19	21017
898.311	21032
898.431	20899
898.552	20990
898.672	20967
898.792	21077
898.913	20956
899.033	20849
899.153	20686
899.273	20716
899.393	20613
899.513	20731
899.633	20636
899.753	20575
899.873	20564
899.993	20663
900.113	20476
900.232	20537
900.352	20579
900.472	20518
900.591	20294
900.711	20476
900.83	20355
900.95	20415
901.069	20625
901.189	20473
901.308	20168
901.427	20126
901.546	20065
901.665	20054
901.784	19970
901.904	19963
902.023	19788
902.141	19514
902.26	19510
902.379	19635
902.498	19483
902.617	19506
902.735	19403
902.854	19392
902.973	19506
903.091	19274
903.21	19080
903.328	19156
903.446	19000
903.565	18913
903.683	18920
903.801	18939
903.919	18962
904.038	18901
904.156	18726
904.274	18852
904.392	18764
904.51	18604
904.627	18840
904.745	18719
904.863	18760
904.981	18494
905.098	18391
905.216	18437
905.334	18506
905.451	18384
905.569	18300
905.686	18418
905.803	18388
905.921	18102
906.038	18205
906.155	18174
906.272	17954
906.389	18114
906.506	17912
906.623	17866
906.74	17954
906.857	17828
906.974	17745
907.091	17885
907.208	17973
907.324	17855
907.441	17646
907.557	17661
907.674	17596
907.79	17417
907.907	17497
908.023	17570
908.139	17573
908.256	17482
908.372	17444
908.488	17482
908.604	17212
908.72	17239
908.836	17189
908.952	17250
909.068	17235
909.184	17387
909.3	17185
909.415	17250
909.531	17254
909.647	16949
909.762	16911
909.878	16877
909.993	16987
910.108	16809
910.224	16839
910.339	16957
910.454	16748
910.57	16744
910.685	16634
910.8	17064
910.915	16816
911.03	16763
911.145	16634
911.259	16481
911.374	16519
911.489	16375
911.604	16333
911.718	16207
911.833	16242
911.947	16173
912.062	16124
912.176	16181
912.291	16223
912.405	16249
912.519	16402
912.633	16424
912.748	16249
912.862	16242
912.976	16006
913.09	15861
913.204	15960
913.318	16090
913.431	16105
913.545	16017
913.659	16029
913.772	15907
913.886	15793
914	15835
914.113	15800
914.226	15979
914.34	15888
914.453	15671
914.566	15842
914.68	15610
914.793	15663
914.906	15496
915.019	15515
915.132	15355
915.245	15329
915.358	15386
915.47	15408
915.583	15496
915.696	15462
915.809	15561
915.921	15561
916.034	15428
916.146	15317
916.259	15173
916.371	15401
916.483	15420
916.595	15370
916.708	15313
916.82	15192
916.932	15184
917.044	15203
917.156	15176
917.268	15028
917.38	15062
917.491	15062
917.603	15058
917.715	15119
917.826	15127
917.938	14990
918.049	14807
918.161	14975
918.272	15142
918.384	15112
918.495	14960
918.606	14724
918.717	14743
918.828	14800
918.939	14758
919.05	14663
919.161	14731
919.272	14549
919.383	14621
919.494	14815
919.604	14914
919.715	14800
919.826	14632
919.936	14670
920.047	14758
920.157	14629
920.267	14823
920.378	14693
920.488	14659
920.598	14845
920.708	15039
920.818	14823
920.928	14849
921.038	14975
921.148	14864
921.258	14587
921.368	14545
921.477	14393
921.587	14328
921.697	14294
921.806	14396
921.916	14305
922.025	14062
922.134	14183
922.244	14054
922.353	14111
922.462	13906
922.571	13818
922.68	13761
922.789	13704
922.898	13780
923.007	13636
923.116	13563
923.224	13647
923.333	13632
923.442	13582
923.55	13415
923.659	13525
923.767	13590
923.876	13476
923.984	13525
924.092	13411
924.201	13491
924.309	13407
924.417	13415
924.525	13320
924.633	13365
924.741	14111
924.849	13156
924.956	13320
925.064	13050
925.172	13046
925.279	13088
925.387	13160
925.494	13065
925.602	13107
925.709	13103
925.816	13095
925.924	13027
926.031	13145
926.138	13088
926.245	13034
926.352	12913
926.459	13103
926.566	13164
926.673	12901
926.779	12905
926.886	12897
926.993	12711
927.099	12681
927.206	12570
927.312	12570
927.419	12642
927.525	12616
927.631	12601
927.737	12574
927.843	12426
927.95	12311
928.056	12479
928.162	12475
928.267	12585
928.373	13145
928.479	12635
928.585	12319
928.69	12407
928.796	12399
928.901	12285
929.007	12175
929.112	12350
929.218	12346
929.323	12175
929.428	12117
929.533	12296
929.638	12190
929.743	12175
929.848	12178
929.953	12243
930.058	11969
930.163	11920
930.267	11866
930.372	12022
930.477	11832
930.581	12026
930.685	11859
930.79	11691
930.894	11767
930.998	11630
931.103	11813
931.207	11455
931.311	11391
931.415	11326
931.519	11159
931.623	11090
