Data from test_V78500241_2449.txt Node
Date: Fri Mar 25 15:58:45 CST 2022
User: usil
Spectrometer: V785-0024
Trigger mode: 0
Integration Time (sec): 4.000000E-1
Scans to average: 1
Nonlinearity correction enabled: false
Boxcar width: 0
Storing dark spectrum: false
XAxis mode: Wavelengths
Number of Pixels in Spectrum: 1024
>>>>>Begin Spectral Data<<<<<
801.071	28896
801.214	28774
801.356	28687
801.499	28577
801.641	28603
801.783	28367
801.926	28607
802.068	28348
802.211	28265
802.353	28325
802.496	28207
802.638	28044
802.78	28070
802.923	27979
803.065	28101
803.208	27987
803.35	28188
803.492	28428
803.635	28405
803.777	28147
803.919	28348
804.061	28733
804.204	28512
804.346	28440
804.488	28238
804.63	28344
804.773	28325
804.915	28371
805.057	28626
805.199	28413
805.341	28474
805.483	28535
805.626	28363
805.768	28440
805.91	28485
806.052	28542
806.194	28443
806.336	28706
806.478	28428
806.62	28573
806.762	28687
806.904	28790
807.046	29193
807.188	29025
807.33	28847
807.472	29098
807.614	28976
807.756	28869
807.898	28877
808.04	28755
808.182	28847
808.324	28816
808.465	28816
808.607	28961
808.749	29292
808.891	29220
809.033	29375
809.174	29296
809.316	29239
809.458	29250
809.6	29140
809.741	29334
809.883	29391
810.025	29501
810.166	29638
810.308	29554
810.45	29440
810.591	29410
810.733	29273
810.875	29239
811.016	29231
811.158	29117
811.299	29345
811.441	29372
811.582	29391
811.724	29242
811.865	29204
812.007	29254
812.148	29341
812.29	29436
812.431	29535
812.573	29630
812.714	29642
812.855	29779
812.997	29859
813.138	29901
813.279	29897
813.421	29752
813.562	29646
813.703	29623
813.845	29417
813.986	29147
814.127	29056
814.268	28923
814.41	28892
814.551	29086
814.692	29071
814.833	28930
814.974	28892
815.115	28961
815.256	28900
815.397	28843
815.539	28809
815.68	28656
815.821	28637
815.962	28778
816.103	28755
816.244	28565
816.385	28478
816.526	28565
816.666	28504
816.807	28379
816.948	28440
817.089	28348
817.23	28226
817.371	28272
817.512	28196
817.653	28401
817.793	28109
817.934	28246
818.075	28322
818.216	28158
818.356	28314
818.497	28116
818.638	28040
818.778	28032
818.919	28154
819.06	28166
819.2	28086
819.341	28337
819.481	28200
819.622	28417
819.762	28672
819.903	28497
820.043	28493
820.184	28379
820.324	28394
820.465	28542
820.605	28390
820.746	28352
820.886	28253
821.026	28356
821.167	28249
821.307	28356
821.447	28299
821.588	28185
821.728	28215
821.868	27934
822.008	27823
822.149	27842
822.289	27633
822.429	27572
822.569	27454
822.709	27466
822.849	27294
822.99	27332
823.13	27363
823.27	27192
823.41	27154
823.55	26929
823.69	27009
823.83	27066
823.97	27066
824.11	26853
824.25	26785
824.389	26857
824.529	26971
824.669	26853
824.809	26948
824.949	27036
825.089	27024
825.228	26948
825.368	26880
825.508	26754
825.648	26952
825.787	26777
825.927	26788
826.067	26720
826.206	26663
826.346	26811
826.485	26804
826.625	26823
826.765	26929
826.904	26845
827.044	26526
827.183	26636
827.323	26434
827.462	26499
827.601	26564
827.741	26609
827.88	26545
828.02	26332
828.159	26465
828.298	26564
828.437	26670
828.577	26370
828.716	26587
828.855	26415
828.994	26111
829.134	26199
829.273	26317
829.412	26172
829.551	26252
829.69	26210
829.829	26202
829.968	26161
830.107	26256
830.246	26176
830.385	26214
830.524	26145
830.663	26016
830.802	25982
830.941	25845
831.08	25826
831.219	26005
831.357	25757
831.496	26050
831.635	25879
831.774	25822
831.913	25647
832.051	25693
832.19	25502
832.329	25590
832.467	25594
832.606	25457
832.744	25441
832.883	25434
833.022	25464
833.16	25525
833.299	25453
833.437	25487
833.576	25590
833.714	25578
833.852	25685
833.991	25605
834.129	25677
834.267	25559
834.406	25537
834.544	25567
834.682	25609
834.821	25658
834.959	25677
835.097	25354
835.235	25635
835.373	25518
835.511	25552
835.65	25392
835.788	25445
835.926	25206
836.064	25179
836.202	25289
836.34	25525
836.478	25434
836.615	25293
836.753	25373
836.891	25320
837.029	25369
837.167	25362
837.305	25152
837.443	25278
837.58	25088
837.718	25339
837.856	25297
837.993	25103
838.131	25247
838.269	25072
838.406	25206
838.544	24996
838.681	24935
838.819	24722
838.956	24700
839.094	24711
839.231	24768
839.369	24734
839.506	25110
839.643	24875
839.781	24642
839.918	24627
840.055	24585
840.193	24711
840.33	24604
840.467	24616
840.604	24582
840.742	24871
840.879	24338
841.016	24505
841.153	24353
841.29	24608
841.427	24475
841.564	24574
841.701	24601
841.838	24475
841.975	24445
842.112	24536
842.249	24369
842.385	24437
842.522	24525
842.659	24361
842.796	24289
842.933	24247
843.069	24300
843.206	24186
843.343	24330
843.479	24418
843.616	24296
843.752	24087
843.889	24045
844.025	24273
844.162	24140
844.298	24117
844.435	24064
844.571	24076
844.708	24064
844.844	24220
844.98	24163
845.117	24182
845.253	24197
845.389	23958
845.525	23992
845.661	23889
845.798	23863
845.934	23794
846.07	23802
846.206	23733
846.342	23984
846.478	23794
846.614	23604
846.75	23551
846.886	23509
847.022	23551
847.158	23558
847.294	23452
847.429	23581
847.565	23558
847.701	23798
847.837	23193
847.972	23235
848.108	23307
848.244	23292
848.379	23075
848.515	23200
848.65	23109
848.786	23102
848.921	23086
849.057	23258
849.192	23216
849.328	23109
849.463	23105
849.598	23067
849.734	23037
849.869	22965
850.004	22889
850.14	22908
850.275	22801
850.41	22805
850.545	22934
850.68	22885
850.815	22980
850.95	22900
851.085	23060
851.22	23056
851.355	22900
851.49	22927
851.625	22889
851.76	22862
851.895	22847
852.03	22790
852.165	22831
852.299	22915
852.434	22896
852.569	22843
852.703	22927
852.838	22930
852.973	22919
853.107	22995
853.242	22923
853.376	22653
853.511	22584
853.645	22611
853.78	22854
853.914	22790
854.048	22618
854.183	22672
854.317	22668
854.451	22869
854.585	22664
854.72	22790
854.854	22729
854.988	22645
855.122	22660
855.256	22554
855.39	22637
855.524	22824
855.658	22740
855.792	22767
855.926	22790
856.06	22694
856.194	22736
856.327	22729
856.461	22580
856.595	22694
856.729	22744
856.862	22733
856.996	22736
857.13	22786
857.263	22889
857.397	22683
857.53	22793
857.664	22793
857.797	22824
857.931	22733
858.064	22702
858.197	22752
858.331	22729
858.464	22557
858.597	22584
858.731	22710
858.864	22736
858.997	22710
859.13	22748
859.263	22733
859.396	22767
859.529	22542
859.662	22599
859.795	22702
859.928	22778
860.061	22946
860.194	22858
860.327	22759
860.46	22771
860.592	22786
860.725	22790
860.858	22858
860.99	22755
861.123	22664
861.256	22755
861.388	22538
861.521	23501
861.653	22573
861.786	22527
861.918	22421
862.05	22546
862.183	22725
862.315	22706
862.447	22630
862.58	22694
862.712	22398
862.844	22436
862.976	22489
863.108	22557
863.24	22706
863.372	22341
863.504	22428
863.636	22386
863.768	22462
863.9	22405
864.032	22417
864.164	22299
864.296	22409
864.428	22557
864.559	22504
864.691	22474
864.823	22428
864.954	22546
865.086	22367
865.217	22249
865.349	22207
865.48	22424
865.612	22246
865.743	22356
865.875	22219
866.006	22268
866.137	22238
866.269	22310
866.4	22329
866.531	22223
866.662	22215
866.793	22265
866.924	22230
867.055	22284
867.186	22219
867.317	22124
867.448	22128
867.579	22181
867.71	22101
867.841	22105
867.972	22204
868.103	22211
868.233	22128
868.364	22219
868.495	22325
868.625	22489
868.756	22504
868.886	22424
869.017	22314
869.147	22402
869.278	22489
869.408	22519
869.539	22447
869.669	22500
869.799	22447
869.929	22611
870.06	22607
870.19	22615
870.32	22698
870.45	22820
870.58	22911
870.71	22904
870.84	23041
870.97	22881
871.1	22820
871.23	22927
871.36	23033
871.489	23071
871.619	23041
871.749	23067
871.879	23075
872.008	23208
872.138	23029
872.267	23109
872.397	22854
872.526	22961
872.656	22991
872.785	22892
872.915	23060
873.044	23162
873.173	23151
873.303	23079
873.432	23022
873.561	23162
873.69	23014
873.819	23079
873.948	23090
874.077	23025
874.206	23022
874.335	23022
874.464	23208
874.593	23345
874.722	23261
874.851	23220
874.979	23379
875.108	23265
875.237	23197
875.365	23151
875.494	23273
875.623	23410
875.751	23197
875.88	23261
876.008	23417
876.136	23395
876.265	23707
876.393	23809
876.521	23771
876.65	23760
876.778	23684
876.906	23501
877.034	23490
877.162	23611
877.29	23623
877.418	23653
877.546	23558
877.674	23642
877.802	23592
877.93	23459
878.058	23581
878.185	23383
878.313	23581
878.441	23638
878.568	23570
878.696	23505
878.824	23600
878.951	23665
879.079	23729
879.206	23859
879.333	23729
879.461	23684
879.588	23779
879.715	23775
879.842	23798
879.97	23668
880.097	23459
880.224	23448
880.351	23474
880.478	23406
880.605	23395
880.732	23440
880.859	23695
880.986	23402
881.112	23471
881.239	23227
881.366	23197
881.493	23121
881.619	23010
881.746	23041
881.872	22915
881.999	23033
882.125	22923
882.252	23041
882.378	23105
882.505	23132
882.631	22828
882.757	22740
882.883	22763
883.01	22713
883.136	22672
883.262	22596
883.388	22405
883.514	22554
883.64	22748
883.766	22557
883.892	22371
884.018	22512
884.143	22569
884.269	22740
884.395	22428
884.52	22276
884.646	22265
884.772	22207
884.897	22215
885.023	22215
885.148	22363
885.274	22341
885.399	22299
885.524	22280
885.65	22299
885.775	22314
885.9	22341
886.025	22459
886.15	22333
886.275	22261
886.4	22196
886.525	22337
886.65	22215
886.775	22280
886.9	22394
887.025	22508
887.149	22242
887.274	22055
887.399	22074
887.523	22013
887.648	22055
887.773	21869
887.897	22074
888.021	22090
888.146	21983
888.27	22124
888.395	22150
888.519	21941
888.643	22120
888.767	22063
888.891	21880
889.015	21892
889.139	21850
889.263	21857
889.387	21941
889.511	22063
889.635	21922
889.759	21869
889.883	21797
890.006	21865
890.13	21907
890.254	21781
890.377	21705
890.501	21606
890.624	21500
890.748	21587
890.871	21374
890.995	21287
891.118	21401
891.241	21450
891.364	21568
891.488	21614
891.611	21526
891.734	21367
891.857	21329
891.98	21340
892.103	21382
892.226	21397
892.349	21264
892.471	21123
892.594	21256
892.717	21310
892.839	21173
892.962	21245
893.085	21370
893.207	21260
893.33	21176
893.452	21245
893.575	21233
893.697	21150
893.819	21424
893.941	21367
894.064	21382
894.186	21237
894.308	21169
894.43	21291
894.552	21428
894.674	21348
894.796	21093
894.918	21241
895.04	21214
895.161	21188
895.283	21294
895.405	21252
895.526	21237
895.648	21188
895.769	21370
895.891	21146
896.012	21298
896.134	21325
896.255	21256
896.376	21237
896.498	21116
896.619	21275
896.74	21245
896.861	21325
896.982	21542
897.103	21652
897.224	21504
897.345	21507
897.466	21370
897.587	21473
897.708	21511
897.828	21473
897.949	21344
898.07	21272
898.19	21260
898.311	21481
898.431	21325
898.552	21485
898.672	21553
898.792	21477
898.913	21481
899.033	21317
899.153	21256
899.273	21119
899.393	21249
899.513	21268
899.633	21207
899.753	21138
899.873	21047
899.993	21157
900.113	21062
900.232	21112
900.352	21028
900.472	20982
900.591	21047
900.711	20883
900.83	20815
900.95	21104
901.069	20864
901.189	20659
901.308	20617
901.427	20427
901.546	20541
901.665	20503
901.784	20495
901.904	20275
902.023	20286
902.141	20092
902.26	20005
902.379	20138
902.498	19970
902.617	19947
902.735	20024
902.854	19830
902.973	19944
903.091	19639
903.21	19693
903.328	19696
903.446	19499
903.565	19506
903.683	19499
903.801	19335
903.919	19460
904.038	19346
904.156	19247
904.274	19331
904.392	19206
904.51	19080
904.627	19080
904.745	19217
904.863	19289
904.981	18993
905.098	18916
905.216	18837
905.334	18962
905.451	18875
905.569	18772
905.686	18962
905.803	18871
905.921	18726
906.038	18779
906.155	18536
906.272	18582
906.389	18570
906.506	18445
906.623	18456
906.74	18429
906.857	18209
906.974	18311
907.091	18517
907.208	18525
907.324	18429
907.441	18247
907.557	18228
907.674	18110
907.79	18076
907.907	18121
908.023	18159
908.139	18091
908.256	18106
908.372	17939
908.488	18022
908.604	17817
908.72	17771
908.836	17756
908.952	17794
909.068	17954
909.184	17836
909.3	17836
909.415	17863
909.531	17805
909.647	17528
909.762	17501
909.878	17429
909.993	17585
910.108	17395
910.224	17376
910.339	17414
910.454	17398
910.57	17383
910.685	17341
910.8	17532
910.915	17444
911.03	17398
911.145	17151
911.259	17159
911.374	17060
911.489	16976
911.604	16987
911.718	16805
911.833	16824
911.947	16740
912.062	16672
912.176	16835
912.291	16809
912.405	16801
912.519	16930
912.633	17010
912.748	16873
912.862	16786
912.976	16656
913.09	16504
913.204	16546
913.318	16713
913.431	16755
913.545	16664
913.659	16820
913.772	16634
913.886	16436
914	16371
914.113	16611
914.226	16500
914.34	16596
914.453	16341
914.566	16504
914.68	16257
914.793	16295
914.906	16032
915.019	16017
915.132	15953
915.245	15949
915.358	15998
915.47	16025
915.583	16074
915.696	16025
915.809	16207
915.921	16116
916.034	15983
916.146	15846
916.259	15835
916.371	15953
916.483	15930
916.595	15880
916.708	15766
916.82	15842
916.932	15759
917.044	15816
917.156	15728
917.268	15694
917.38	15663
917.491	15629
917.603	15713
917.715	15648
917.826	15823
917.938	15629
918.049	15473
918.161	15614
918.272	15595
918.384	15713
918.495	15538
918.606	15439
918.717	15325
918.828	15370
918.939	15340
919.05	15287
919.161	15283
919.272	15032
919.383	15192
919.494	15370
919.604	15545
919.715	15317
919.826	15195
919.936	15340
920.047	15321
920.157	15298
920.267	15420
920.378	15325
920.488	15291
920.598	15469
920.708	15564
920.818	15542
920.928	15408
921.038	15629
921.148	15576
921.258	15161
921.368	15184
921.477	15077
921.587	15020
921.697	14967
921.806	15009
921.916	14815
922.025	14754
922.134	14727
922.244	14777
922.353	14667
922.462	14560
922.571	14522
922.68	14400
922.789	14267
922.898	14320
923.007	14221
923.116	14324
923.224	14317
923.333	14256
923.442	14107
923.55	14096
923.659	14084
923.767	14126
923.876	14077
923.984	14073
924.092	14001
924.201	14046
924.309	14005
924.417	14088
924.525	13928
924.633	14008
924.741	14727
924.849	13750
924.956	13814
925.064	13723
925.172	13620
925.279	13677
925.387	13681
925.494	13632
925.602	13811
925.709	13700
925.816	13636
925.924	13601
926.031	13647
926.138	13499
926.245	13616
926.352	13480
926.459	13590
926.566	13655
926.673	13544
926.779	13400
926.886	13438
926.993	13373
927.099	13164
927.206	13126
927.312	13209
927.419	13228
927.525	13080
927.631	13282
927.737	13133
927.843	13023
927.95	12863
928.056	12981
928.162	13084
928.267	13069
928.373	13746
928.479	13053
928.585	12760
928.69	12935
928.796	13057
928.901	12875
929.007	12768
929.112	12806
929.218	12840
929.323	12825
929.428	12631
929.533	12814
929.638	12589
929.743	12639
929.848	12798
929.953	12673
930.058	12517
930.163	12441
930.267	12464
930.372	12498
930.477	12296
930.581	12551
930.685	12506
930.79	12254
930.894	12338
930.998	12254
931.103	12376
931.207	12072
931.311	11931
931.415	11851
931.519	11668
931.623	11649
