Data from test_V78500241_3465.txt Node
Date: Fri Mar 25 16:05:48 CST 2022
User: usil
Spectrometer: V785-0024
Trigger mode: 0
Integration Time (sec): 4.000000E-1
Scans to average: 1
Nonlinearity correction enabled: false
Boxcar width: 0
Storing dark spectrum: false
XAxis mode: Wavelengths
Number of Pixels in Spectrum: 1024
>>>>>Begin Spectral Data<<<<<
801.071	28995
801.214	28946
801.356	28717
801.499	28748
801.641	28497
801.783	28588
801.926	28755
802.068	28557
802.211	28565
802.353	28489
802.496	28382
802.638	28287
802.78	28306
802.923	28207
803.065	28223
803.208	28325
803.35	28409
803.492	28577
803.635	28523
803.777	28405
803.919	28516
804.061	28946
804.204	28519
804.346	28554
804.488	28497
804.63	28584
804.773	28436
804.915	28634
805.057	28679
805.199	28481
805.341	28778
805.483	28637
805.626	28831
805.768	28634
805.91	28847
806.052	28816
806.194	28694
806.336	28877
806.478	28805
806.62	28733
806.762	28987
806.904	28984
807.046	29387
807.188	29254
807.33	29223
807.472	29265
807.614	29025
807.756	29151
807.898	29117
808.04	29044
808.182	28999
808.324	29083
808.465	29124
808.607	29372
808.749	29391
808.891	29410
809.033	29516
809.174	29509
809.316	29482
809.458	29539
809.6	29334
809.741	29657
809.883	29436
810.025	29745
810.166	29672
810.308	29798
810.45	29680
810.591	29452
810.733	29551
810.875	29577
811.016	29501
811.158	29387
811.299	29589
811.441	29672
811.582	29551
811.724	29474
811.865	29467
812.007	29372
812.148	29478
812.29	29680
812.431	29634
812.573	29874
812.714	29961
812.855	29961
812.997	30106
813.138	30190
813.279	30125
813.421	30003
813.562	29965
813.703	29817
813.845	29615
813.986	29528
814.127	29296
814.268	29227
814.41	29322
814.551	29109
814.692	29379
814.833	29090
814.974	29189
815.115	29258
815.256	29083
815.397	29121
815.539	28980
815.68	28968
815.821	28934
815.962	28976
816.103	29128
816.244	28946
816.385	28668
816.526	28717
816.666	28672
816.807	28394
816.948	28679
817.089	28721
817.23	28569
817.371	28310
817.512	28508
817.653	28637
817.793	28603
817.934	28500
818.075	28550
818.216	28497
818.356	28474
818.497	28348
818.638	28204
818.778	28204
818.919	28314
819.06	28352
819.2	28523
819.341	28421
819.481	28451
819.622	28672
819.762	28869
819.903	28736
820.043	28653
820.184	28691
820.324	28702
820.465	28850
820.605	28691
820.746	28516
820.886	28481
821.026	28577
821.167	28622
821.307	28725
821.447	28565
821.588	28497
821.728	28356
821.868	28131
822.008	28048
822.149	28044
822.289	28036
822.429	27686
822.569	27625
822.709	27770
822.849	27481
822.99	27603
823.13	27466
823.27	27492
823.41	27298
823.55	27245
823.69	27351
823.83	27351
823.97	27298
824.11	27146
824.25	27138
824.389	27249
824.529	27283
824.669	27188
824.809	27336
824.949	27199
825.089	27237
825.228	27317
825.368	26986
825.508	26891
825.648	26998
825.787	27100
825.927	27066
826.067	27218
826.206	27024
826.346	26994
826.485	27138
826.625	27089
826.765	27222
826.904	27169
827.044	26857
827.183	26853
827.323	26773
827.462	26895
827.601	26792
827.741	26754
827.88	26804
828.02	26743
828.159	26727
828.298	26777
828.437	26659
828.577	26819
828.716	26792
828.855	26629
828.994	26537
829.134	26442
829.273	26404
829.412	26469
829.551	26480
829.69	26457
829.829	26579
829.968	26655
830.107	26640
830.246	26522
830.385	26457
830.524	26324
830.663	26267
830.802	26088
830.941	26077
831.08	26077
831.219	26054
831.357	26065
831.496	26214
831.635	26050
831.774	25974
831.913	25974
832.051	25811
832.19	25723
832.329	25849
832.467	25788
832.606	25674
832.744	25616
832.883	25620
833.022	25750
833.16	25772
833.299	25601
833.437	25670
833.576	25788
833.714	25750
833.852	25791
833.991	25879
834.129	25898
834.267	25978
834.406	25822
834.544	25955
834.682	25841
834.821	25727
834.959	25932
835.097	25776
835.235	25864
835.373	25727
835.511	25723
835.65	25559
835.788	25624
835.926	25635
836.064	25365
836.202	25533
836.34	25708
836.478	25712
836.615	25601
836.753	25514
836.891	25696
837.029	25689
837.167	25533
837.305	25495
837.443	25441
837.58	25506
837.718	25441
837.856	25571
837.993	25441
838.131	25472
838.269	25194
838.406	25445
838.544	25365
838.681	25129
838.819	25114
838.956	24939
839.094	24954
839.231	24924
839.369	25034
839.506	25312
839.643	25213
839.781	24833
839.918	24886
840.055	24814
840.193	24943
840.33	24760
840.467	24810
840.604	24833
840.742	25008
840.879	24597
841.016	24749
841.153	24779
841.29	24856
841.427	24741
841.564	24688
841.701	24905
841.838	24791
841.975	24665
842.112	24639
842.249	24578
842.385	24597
842.522	24726
842.659	24566
842.796	24486
842.933	24589
843.069	24597
843.206	24494
843.343	24635
843.479	24536
843.616	24475
843.752	24346
843.889	24418
844.025	24391
844.162	24353
844.298	24399
844.435	24448
844.571	24270
844.708	24266
844.844	24521
844.98	24403
845.117	24471
845.253	24300
845.389	24205
845.525	24213
845.661	24292
845.798	24079
845.934	24228
846.07	23996
846.206	24098
846.342	24174
846.478	24038
846.614	23859
846.75	23775
846.886	23813
847.022	23893
847.158	23756
847.294	23672
847.429	23817
847.565	23710
847.701	24095
847.837	23699
847.972	23395
848.108	23570
848.244	23471
848.379	23337
848.515	23440
848.65	23383
848.786	23315
848.921	23349
849.057	23482
849.192	23417
849.328	23376
849.463	23307
849.598	23360
849.734	23250
849.869	23280
850.004	23242
850.14	23151
850.275	23075
850.41	23037
850.545	23117
850.68	23083
850.815	23113
850.95	23204
851.085	23444
851.22	23318
851.355	23132
851.49	23143
851.625	23113
851.76	23151
851.895	22995
852.03	23022
852.165	22995
852.299	23117
852.434	23208
852.569	23212
852.703	23235
852.838	23216
852.973	23143
853.107	23197
853.242	23105
853.376	22877
853.511	22957
853.645	22976
853.78	23022
853.914	22869
854.048	22843
854.183	23014
854.317	22885
854.451	23128
854.585	22953
854.72	23025
854.854	23033
854.988	22885
855.122	23003
855.256	22835
855.39	22885
855.524	22984
855.658	23014
855.792	23006
855.926	22987
856.06	23010
856.194	22915
856.327	22911
856.461	22877
856.595	22927
856.729	22938
856.862	22972
856.996	23010
857.13	23018
857.263	22934
857.397	23060
857.53	22889
857.664	23071
857.797	23018
857.931	23041
858.064	22923
858.197	22942
858.331	22942
858.464	22877
858.597	22835
858.731	22850
858.864	22839
858.997	23022
859.13	22911
859.263	22957
859.396	23079
859.529	23029
859.662	22946
859.795	22850
859.928	22972
860.061	23056
860.194	23079
860.327	22995
860.46	23041
860.592	23098
860.725	23109
860.858	23071
860.99	22953
861.123	22812
861.256	22896
861.388	22858
861.521	23551
861.653	22812
861.786	22729
861.918	22755
862.05	22816
862.183	22839
862.315	23014
862.447	22873
862.58	22828
862.712	22618
862.844	22615
862.976	22835
863.108	22607
863.24	23041
863.372	22611
863.504	22691
863.636	22672
863.768	22748
863.9	22626
864.032	22577
864.164	22516
864.296	22706
864.428	22820
864.559	22740
864.691	22660
864.823	22748
864.954	22588
865.086	22641
865.217	22516
865.349	22398
865.48	22489
865.612	22455
865.743	22561
865.875	22402
866.006	22592
866.137	22538
866.269	22702
866.4	22527
866.531	22516
866.662	22386
866.793	22470
866.924	22516
867.055	22402
867.186	22535
867.317	22440
867.448	22337
867.579	22394
867.71	22318
867.841	22497
867.972	22451
868.103	22447
868.233	22440
868.364	22512
868.495	22622
868.625	22611
868.756	22881
868.886	22713
869.017	22744
869.147	22683
869.278	22755
869.408	22740
869.539	22733
869.669	22748
869.799	22668
869.929	22771
870.06	22752
870.19	22961
870.32	23044
870.45	23124
870.58	23060
870.71	23121
870.84	23174
870.97	23128
871.1	23010
871.23	23220
871.36	23288
871.489	23223
871.619	23174
871.749	23242
871.879	23345
872.008	23356
872.138	23326
872.267	23303
872.397	23109
872.526	23060
872.656	23220
872.785	23079
872.915	23364
873.044	23440
873.173	23277
873.303	23417
873.432	23368
873.561	23524
873.69	23315
873.819	23330
873.948	23330
874.077	23299
874.206	23079
874.335	23307
874.464	23474
874.593	23478
874.722	23516
874.851	23497
874.979	23467
875.108	23623
875.237	23566
875.365	23398
875.494	23539
875.623	23577
875.751	23330
875.88	23528
876.008	23646
876.136	23687
876.265	23912
876.393	23954
876.521	23954
876.65	23923
876.778	23927
876.906	23855
877.034	23935
877.162	23843
877.29	23847
877.418	23737
877.546	23786
877.674	23809
877.802	23672
877.93	23843
878.058	23798
878.185	23687
878.313	23745
878.441	23779
878.568	23596
878.696	23718
878.824	23809
878.951	23942
879.079	24060
879.206	24213
879.333	24003
879.461	23813
879.588	23824
879.715	23996
879.842	24197
879.97	23992
880.097	23764
880.224	23649
880.351	23718
880.478	23707
880.605	23589
880.732	23646
880.859	23798
880.986	23558
881.112	23638
881.239	23512
881.366	23372
881.493	23387
881.619	23227
881.746	23200
881.872	23356
881.999	23208
882.125	23200
882.252	23113
882.378	23239
882.505	23376
882.631	23113
882.757	23018
882.883	22885
883.01	22957
883.136	22771
883.262	22664
883.388	22744
883.514	22915
883.64	22999
883.766	22801
883.892	22550
884.018	22588
884.143	22748
884.269	22835
884.395	22569
884.52	22447
884.646	22569
884.772	22523
884.897	22500
885.023	22573
885.148	22679
885.274	22607
885.399	22516
885.524	22523
885.65	22577
885.775	22504
885.9	22447
886.025	22744
886.15	22645
886.275	22573
886.4	22390
886.525	22428
886.65	22402
886.775	22519
886.9	22664
887.025	22820
887.149	22500
887.274	22363
887.399	22265
887.523	22223
887.648	22196
887.773	22128
887.897	22303
888.021	22253
888.146	22295
888.27	22314
888.395	22261
888.519	22329
888.643	22188
888.767	22284
888.891	22200
889.015	22143
889.139	22162
889.263	22025
889.387	22188
889.511	22268
889.635	22188
889.759	21979
889.883	21945
890.006	22048
890.13	22192
890.254	22120
890.377	22029
890.501	21899
890.624	21907
890.748	21812
890.871	21637
890.995	21652
891.118	21637
891.241	21705
891.364	21644
891.488	21713
891.611	21610
891.734	21614
891.857	21755
891.98	21504
892.103	21785
892.226	21580
892.349	21538
892.471	21386
892.594	21549
892.717	21553
892.839	21435
892.962	21462
893.085	21549
893.207	21481
893.33	21367
893.452	21450
893.575	21614
893.697	21500
893.819	21667
893.941	21614
894.064	21724
894.186	21348
894.308	21336
894.43	21538
894.552	21675
894.674	21515
894.796	21283
894.918	21466
895.04	21431
895.161	21450
895.283	21435
895.405	21313
895.526	21420
895.648	21439
895.769	21428
895.891	21393
896.012	21534
896.134	21580
896.255	21504
896.376	21329
896.498	21359
896.619	21386
896.74	21447
896.861	21488
896.982	21808
897.103	21937
897.224	21663
897.345	21618
897.466	21610
897.587	21591
897.708	21838
897.828	21713
897.949	21618
898.07	21534
898.19	21526
898.311	21648
898.431	21587
898.552	21671
898.672	21656
898.792	21663
898.913	21587
899.033	21507
899.153	21416
899.273	21359
899.393	21291
899.513	21325
899.633	21428
899.753	21382
899.873	21321
899.993	21306
900.113	21237
900.232	21435
900.352	21207
900.472	21252
900.591	21005
900.711	21161
900.83	21036
900.95	21222
901.069	21207
901.189	21074
901.308	20838
901.427	20712
901.546	20708
901.665	20762
901.784	20708
901.904	20526
902.023	20438
902.141	20180
902.26	20202
902.379	20278
902.498	20259
902.617	20122
902.735	20263
902.854	20259
902.973	19963
903.091	19871
903.21	19925
903.328	19803
903.446	19807
903.565	19647
903.683	19677
903.801	19510
903.919	19552
904.038	19480
904.156	19487
904.274	19457
904.392	19343
904.51	19304
904.627	19438
904.745	19430
904.863	19430
904.981	19114
905.098	19110
905.216	19103
905.334	19012
905.451	19023
905.569	19031
905.686	19069
905.803	18966
905.921	18795
906.038	18894
906.155	18806
906.272	18726
906.389	18787
906.506	18521
906.623	18627
906.74	18494
906.857	18422
906.974	18460
907.091	18677
907.208	18639
907.324	18528
907.441	18464
907.557	18338
907.674	18239
907.79	18148
907.907	18243
908.023	18304
908.139	18334
908.256	18205
908.372	18205
908.488	18106
908.604	18007
908.72	18015
908.836	18072
908.952	17870
909.068	17901
909.184	18106
909.3	17992
909.415	17961
909.531	17988
909.647	17783
909.762	17714
909.878	17642
909.993	17646
910.108	17756
910.224	17661
910.339	17657
910.454	17516
910.57	17474
910.685	17463
910.8	17646
910.915	17672
911.03	17459
911.145	17330
911.259	17220
911.374	17376
911.489	17254
911.604	17121
911.718	16999
911.833	16946
911.947	16976
912.062	16763
912.176	17014
912.291	16942
912.405	17079
912.519	17231
912.633	17151
912.748	17075
912.862	16900
912.976	16854
913.09	16694
913.204	16801
913.318	16790
913.431	16828
913.545	16965
913.659	16877
913.772	16812
913.886	16634
914	16603
914.113	16679
914.226	16683
914.34	16645
914.453	16626
914.566	16630
914.68	16382
914.793	16409
914.906	16238
915.019	16284
915.132	16112
915.245	16177
915.358	16207
915.47	16177
915.583	16093
915.696	16128
915.809	16280
915.921	16360
916.034	16074
916.146	16067
916.259	16048
916.371	16071
916.483	16090
916.595	15956
916.708	15953
916.82	15987
916.932	15899
917.044	15926
917.156	15838
917.268	15827
917.38	15930
917.491	15743
917.603	15698
917.715	15781
917.826	15831
917.938	15728
918.049	15523
918.161	15709
918.272	15880
918.384	15842
918.495	15648
918.606	15519
918.717	15374
918.828	15454
918.939	15511
919.05	15424
919.161	15496
919.272	15291
919.383	15382
919.494	15511
919.604	15701
919.715	15416
919.826	15291
919.936	15500
920.047	15534
920.157	15439
920.267	15587
920.378	15496
920.488	15466
920.598	15580
920.708	15751
920.818	15553
920.928	15515
921.038	15747
921.148	15701
921.258	15488
921.368	15283
921.477	15165
921.587	15192
921.697	15127
921.806	15165
921.916	15013
922.025	14838
922.134	14853
922.244	14796
922.353	14720
922.462	14727
922.571	14598
922.68	14434
922.789	14343
922.898	14427
923.007	14393
923.116	14526
923.224	14457
923.333	14454
923.442	14324
923.55	14263
923.659	14225
923.767	14362
923.876	14248
923.984	14298
924.092	14126
924.201	14191
924.309	14240
924.417	14126
924.525	14069
924.633	14077
924.741	15036
924.849	13830
924.956	13928
925.064	13917
925.172	13765
925.279	13803
925.387	13871
925.494	13757
925.602	13997
925.709	13879
925.816	13708
925.924	13738
926.031	13791
926.138	13727
926.245	13799
926.352	13643
926.459	13803
926.566	13734
926.673	13704
926.779	13544
926.886	13578
926.993	13346
927.099	13285
927.206	13168
927.312	13304
927.419	13392
927.525	13324
927.631	13324
927.737	13183
927.843	13228
927.95	13084
928.056	13164
928.162	13099
928.267	13164
928.373	13772
928.479	13206
928.585	12894
928.69	13129
928.796	13179
928.901	13000
929.007	12791
929.112	12947
929.218	12905
929.323	12825
929.428	12837
929.533	12966
929.638	12817
929.743	12802
929.848	12829
929.953	12833
930.058	12745
930.163	12460
930.267	12502
930.372	12658
930.477	12456
930.581	12722
930.685	12551
930.79	12391
930.894	12327
930.998	12414
931.103	12536
931.207	12167
931.311	12152
931.415	11973
931.519	11771
931.623	11790
