Data from test_V78500241_3595.txt Node
Date: Fri Mar 25 16:06:42 CST 2022
User: usil
Spectrometer: V785-0024
Trigger mode: 0
Integration Time (sec): 4.000000E-1
Scans to average: 1
Nonlinearity correction enabled: false
Boxcar width: 0
Storing dark spectrum: false
XAxis mode: Wavelengths
Number of Pixels in Spectrum: 1024
>>>>>Begin Spectral Data<<<<<
801.071	29037
801.214	28793
801.356	28691
801.499	28565
801.641	28462
801.783	28577
801.926	28462
802.068	28500
802.211	28481
802.353	28409
802.496	28207
802.638	28211
802.78	28299
802.923	28105
803.065	28204
803.208	28150
803.35	28234
803.492	28417
803.635	28451
803.777	28226
803.919	28394
804.061	28713
804.204	28497
804.346	28299
804.488	28443
804.63	28531
804.773	28447
804.915	28470
805.057	28683
805.199	28470
805.341	28565
805.483	28588
805.626	28447
805.768	28504
805.91	28561
806.052	28573
806.194	28405
806.336	28664
806.478	28637
806.62	28656
806.762	28828
806.904	28801
807.046	29200
807.188	29067
807.33	29151
807.472	29132
807.614	29025
807.756	29006
807.898	28854
808.04	28866
808.182	28953
808.324	29124
808.465	29075
808.607	29105
808.749	29356
808.891	29554
809.033	29459
809.174	29337
809.316	29345
809.458	29421
809.6	29311
809.741	29387
809.883	29463
810.025	29501
810.166	29543
810.308	29474
810.45	29577
810.591	29501
810.733	29375
810.875	29349
811.016	29193
811.158	29375
811.299	29288
811.441	29516
811.582	29642
811.724	29395
811.865	29353
812.007	29296
812.148	29349
812.29	29379
812.431	29562
812.573	29745
812.714	29786
812.855	29771
812.997	30015
813.138	30018
813.279	29901
813.421	29904
813.562	29828
813.703	29554
813.845	29703
813.986	29417
814.127	29193
814.268	29124
814.41	29064
814.551	29079
814.692	29174
814.833	29064
814.974	29128
815.115	29064
815.256	28915
815.397	29041
815.539	28976
815.68	28793
815.821	28790
815.962	29003
816.103	28866
816.244	28820
816.385	28596
816.526	28687
816.666	28421
816.807	28352
816.948	28462
817.089	28367
817.23	28390
817.371	28478
817.512	28371
817.653	28299
817.793	28063
817.934	28299
818.075	28325
818.216	28409
818.356	28466
818.497	28268
818.638	28097
818.778	28261
818.919	28093
819.06	28128
819.2	28265
819.341	28421
819.481	28371
819.622	28485
819.762	28805
819.903	28542
820.043	28531
820.184	28577
820.324	28675
820.465	28634
820.605	28546
820.746	28599
820.886	28405
821.026	28478
821.167	28573
821.307	28508
821.447	28478
821.588	28173
821.728	28257
821.868	27998
822.008	27869
822.149	27812
822.289	27884
822.429	27553
822.569	27545
822.709	27603
822.849	27408
822.99	27542
823.13	27397
823.27	27359
823.41	27222
823.55	27100
823.69	27294
823.83	27161
823.97	27222
824.11	27066
824.25	27051
824.389	27131
824.529	27005
824.669	27036
824.809	27237
824.949	27055
825.089	27104
825.228	27123
825.368	26849
825.508	26891
825.648	27093
825.787	26967
825.927	27074
826.067	26963
826.206	26918
826.346	27036
826.485	26960
826.625	26899
826.765	27062
826.904	26895
827.044	26872
827.183	26625
827.323	26648
827.462	26712
827.601	26598
827.741	26594
827.88	26655
828.02	26629
828.159	26602
828.298	26762
828.437	26773
828.577	26495
828.716	26754
828.855	26400
828.994	26408
829.134	26328
829.273	26393
829.412	26237
829.551	26275
829.69	26393
829.829	26290
829.968	26282
830.107	26465
830.246	26362
830.385	26149
830.524	26142
830.663	26180
830.802	26088
830.941	25993
831.08	25921
831.219	25921
831.357	26043
831.496	26088
831.635	25970
831.774	25830
831.913	25909
832.051	25674
832.19	25639
832.329	25712
832.467	25639
832.606	25655
832.744	25445
832.883	25540
833.022	25472
833.16	25495
833.299	25635
833.437	25559
833.576	25696
833.714	25575
833.852	25708
833.991	25719
834.129	25719
834.267	25780
834.406	25647
834.544	25799
834.682	25655
834.821	25727
834.959	25788
835.097	25468
835.235	25712
835.373	25575
835.511	25712
835.65	25479
835.788	25419
835.926	25377
836.064	25411
836.202	25285
836.34	25407
836.478	25483
836.615	25411
836.753	25422
836.891	25571
837.029	25491
837.167	25369
837.305	25495
837.443	25304
837.58	25129
837.718	25327
837.856	25476
837.993	25206
838.131	25297
838.269	25194
838.406	25259
838.544	25107
838.681	25038
838.819	24779
838.956	24848
839.094	24753
839.231	24916
839.369	25015
839.506	25103
839.643	25004
839.781	24837
839.918	24738
840.055	24715
840.193	24726
840.33	24642
840.467	24730
840.604	24738
840.742	25050
840.879	24631
841.016	24684
841.153	24494
841.29	24749
841.427	24593
841.564	24734
841.701	24570
841.838	24604
841.975	24627
842.112	24502
842.249	24532
842.385	24547
842.522	24585
842.659	24532
842.796	24414
842.933	24376
843.069	24338
843.206	24369
843.343	24498
843.479	24551
843.616	24365
843.752	24304
843.889	24216
844.025	24338
844.162	24220
844.298	24209
844.435	24171
844.571	24243
844.708	24197
844.844	24330
844.98	24399
845.117	24235
845.253	24144
845.389	24022
845.525	24098
845.661	24110
845.798	23965
845.934	24041
846.07	23927
846.206	23920
846.342	24060
846.478	23999
846.614	23817
846.75	23573
846.886	23672
847.022	23718
847.158	23729
847.294	23684
847.429	23779
847.565	23630
847.701	23950
847.837	23436
847.972	23417
848.108	23512
848.244	23600
848.379	23440
848.515	23204
848.65	23345
848.786	23284
848.921	23436
849.057	23235
849.192	23288
849.328	23356
849.463	23239
849.598	23239
849.734	22965
849.869	23143
850.004	23056
850.14	23018
850.275	23018
850.41	22995
850.545	23090
850.68	23006
850.815	23044
850.95	23067
851.085	23185
851.22	23132
851.355	23052
851.49	23029
851.625	23044
851.76	22938
851.895	22919
852.03	23025
852.165	22915
852.299	23128
852.434	23003
852.569	23102
852.703	23010
852.838	23189
852.973	23086
853.107	23109
853.242	22835
853.376	22824
853.511	22565
853.645	22801
853.78	22824
853.914	22771
854.048	22759
854.183	22847
854.317	22793
854.451	23018
854.585	22835
854.72	22839
854.854	22938
854.988	22691
855.122	22873
855.256	22828
855.39	22858
855.524	22946
855.658	22778
855.792	22847
855.926	22889
856.06	22843
856.194	22923
856.327	22771
856.461	22805
856.595	22710
856.729	22805
856.862	23014
856.996	22828
857.13	22858
857.263	22976
857.397	22987
857.53	22900
857.664	22968
857.797	22858
857.931	22892
858.064	22873
858.197	22911
858.331	22786
858.464	22626
858.597	22683
858.731	22713
858.864	22877
858.997	22873
859.13	22873
859.263	22850
859.396	22889
859.529	22816
859.662	22816
859.795	22702
859.928	22816
860.061	22984
860.194	23006
860.327	22942
860.46	22816
860.592	22957
860.725	22850
860.858	22976
860.99	22721
861.123	22729
861.256	22698
861.388	22843
861.521	23634
861.653	22793
861.786	22599
861.918	22656
862.05	22664
862.183	22706
862.315	22649
862.447	22797
862.58	22778
862.712	22588
862.844	22607
862.976	22641
863.108	22618
863.24	23098
863.372	22588
863.504	22489
863.636	22561
863.768	22694
863.9	22554
864.032	22535
864.164	22603
864.296	22512
864.428	22611
864.559	22561
864.691	22668
864.823	22565
864.954	22584
865.086	22493
865.217	22367
865.349	22382
865.48	22417
865.612	22485
865.743	22504
865.875	22398
866.006	22344
866.137	22402
866.269	22333
866.4	22417
866.531	22337
866.662	22352
866.793	22352
866.924	22325
867.055	22295
867.186	22261
867.317	22344
867.448	22192
867.579	22337
867.71	22185
867.841	22150
867.972	22375
868.103	22424
868.233	22360
868.364	22367
868.495	22443
868.625	22535
868.756	22729
868.886	22489
869.017	22584
869.147	22588
869.278	22580
869.408	22413
869.539	22519
869.669	22580
869.799	22618
869.929	22649
870.06	22702
870.19	22949
870.32	22820
870.45	22980
870.58	22942
870.71	23029
870.84	23037
870.97	23010
871.1	22953
871.23	23212
871.36	23151
871.489	23132
871.619	23159
871.749	23121
871.879	23170
872.008	23239
872.138	23223
872.267	23090
872.397	23102
872.526	23041
872.656	22957
872.785	22961
872.915	23132
873.044	23337
873.173	23083
873.303	23185
873.432	23246
873.561	23193
873.69	23292
873.819	23250
873.948	23246
874.077	23269
874.206	23261
874.335	23181
874.464	23326
874.593	23406
874.722	23379
874.851	23360
874.979	23360
875.108	23490
875.237	23433
875.365	23356
875.494	23406
875.623	23478
875.751	23288
875.88	23474
876.008	23531
876.136	23505
876.265	23802
876.393	23988
876.521	23790
876.65	23840
876.778	23710
876.906	23729
877.034	23756
877.162	23707
877.29	23627
877.418	23646
877.546	23752
877.674	23687
877.802	23847
877.93	23779
878.058	23509
878.185	23608
878.313	23668
878.441	23756
878.568	23592
878.696	23714
878.824	23794
878.951	23847
879.079	23939
879.206	24060
879.333	23931
879.461	23695
879.588	23794
879.715	23798
879.842	23977
879.97	23695
880.097	23680
880.224	23627
880.351	23554
880.478	23577
880.605	23471
880.732	23531
880.859	23714
880.986	23478
881.112	23585
881.239	23448
881.366	23360
881.493	23220
881.619	23128
881.746	23113
881.872	23216
881.999	23098
882.125	23098
882.252	23185
882.378	23090
882.505	23204
882.631	23060
882.757	22809
882.883	22805
883.01	22820
883.136	22752
883.262	22675
883.388	22626
883.514	22767
883.64	22763
883.766	22744
883.892	22542
884.018	22630
884.143	22649
884.269	22740
884.395	22466
884.52	22455
884.646	22516
884.772	22272
884.897	22424
885.023	22341
885.148	22656
885.274	22500
885.399	22421
885.524	22379
885.65	22333
885.775	22542
885.9	22382
886.025	22592
886.15	22523
886.275	22261
886.4	22386
886.525	22424
886.65	22322
886.775	22238
886.9	22546
887.025	22713
887.149	22462
887.274	22234
887.399	22215
887.523	22105
887.648	22223
887.773	22017
887.897	22284
888.021	22223
888.146	22051
888.27	22284
888.395	22158
888.519	22257
888.643	22230
888.767	22272
888.891	22036
889.015	21983
889.139	22010
889.263	22006
889.387	22169
889.511	22166
889.635	22116
889.759	21930
889.883	21960
890.006	21861
890.13	21983
890.254	21827
890.377	21915
890.501	21682
890.624	21720
890.748	21766
890.871	21564
890.995	21454
891.118	21462
891.241	21496
891.364	21538
891.488	21618
891.611	21428
891.734	21564
891.857	21553
891.98	21473
892.103	21511
892.226	21511
892.349	21538
892.471	21283
892.594	21393
892.717	21492
892.839	21359
892.962	21431
893.085	21443
893.207	21378
893.33	21306
893.452	21294
893.575	21401
893.697	21382
893.819	21507
893.941	21591
894.064	21507
894.186	21363
894.308	21272
894.43	21435
894.552	21515
894.674	21435
894.796	21306
894.918	21279
895.04	21287
895.161	21405
895.283	21378
895.405	21260
895.526	21291
895.648	21348
895.769	21355
895.891	21431
896.012	21473
896.134	21428
896.255	21473
896.376	21268
896.498	21367
896.619	21329
896.74	21294
896.861	21496
896.982	21591
897.103	21827
897.224	21648
897.345	21599
897.466	21534
897.587	21572
897.708	21713
897.828	21549
897.949	21511
898.07	21306
898.19	21545
898.311	21591
898.431	21500
898.552	21492
898.672	21583
898.792	21682
898.913	21557
899.033	21367
899.153	21367
899.273	21230
899.393	21214
899.513	21275
899.633	21264
899.753	21291
899.873	21252
899.993	21287
900.113	21272
900.232	21272
900.352	21062
900.472	21096
900.591	21043
900.711	21047
900.83	21005
900.95	21127
901.069	20925
901.189	20891
901.308	20663
901.427	20533
901.546	20625
901.665	20705
901.784	20629
901.904	20415
902.023	20305
902.141	20202
902.26	20100
902.379	20271
902.498	20172
902.617	19970
902.735	20240
902.854	20069
902.973	19932
903.091	19860
903.21	19757
903.328	19833
903.446	19658
903.565	19639
903.683	19491
903.801	19533
903.919	19422
904.038	19518
904.156	19407
904.274	19384
904.392	19274
904.51	19289
904.627	19320
904.745	19312
904.863	19377
904.981	19126
905.098	18962
905.216	19012
905.334	19019
905.451	19027
905.569	18970
905.686	19061
905.803	19050
905.921	18783
906.038	18791
906.155	18817
906.272	18555
906.389	18715
906.506	18525
906.623	18479
906.74	18418
906.857	18433
906.974	18323
907.091	18582
907.208	18540
907.324	18490
907.441	18353
907.557	18258
907.674	18296
907.79	18064
907.907	18083
908.023	18235
908.139	18190
908.256	18121
908.372	18083
908.488	18079
908.604	18007
908.72	17961
908.836	17999
908.952	17805
909.068	18034
909.184	17965
909.3	17920
909.415	17999
909.531	17874
909.647	17623
909.762	17577
909.878	17455
909.993	17516
910.108	17630
910.224	17634
910.339	17592
910.454	17543
910.57	17493
910.685	17337
910.8	17554
910.915	17497
911.03	17406
911.145	17280
911.259	17261
911.374	17189
911.489	17083
911.604	16938
911.718	16919
911.833	16877
911.947	16869
912.062	16755
912.176	16919
912.291	16877
912.405	16919
912.519	17128
912.633	17128
912.748	17037
912.862	16900
912.976	16702
913.09	16580
913.204	16820
913.318	16698
913.431	16812
913.545	16717
913.659	16812
913.772	16885
913.886	16596
914	16519
914.113	16653
914.226	16596
914.34	16550
914.453	16382
914.566	16561
914.68	16356
914.793	16386
914.906	16135
915.019	16078
915.132	15991
915.245	16150
915.358	16131
915.47	16097
915.583	16051
915.696	16086
915.809	16090
915.921	16169
916.034	15979
916.146	15964
916.259	15975
916.371	16029
916.483	16010
916.595	15895
916.708	15888
916.82	15915
916.932	15861
917.044	15895
917.156	15888
917.268	15819
917.38	15808
917.491	15804
917.603	15804
917.715	15759
917.826	15804
917.938	15759
918.049	15686
918.161	15686
918.272	15827
918.384	15800
918.495	15637
918.606	15564
918.717	15500
918.828	15587
918.939	15542
919.05	15511
919.161	15363
919.272	15310
919.383	15294
919.494	15477
919.604	15705
919.715	15431
919.826	15454
919.936	15458
920.047	15500
920.157	15485
920.267	15595
920.378	15511
920.488	15336
920.598	15603
920.708	15694
920.818	15572
920.928	15530
921.038	15743
921.148	15637
921.258	15477
921.368	15294
921.477	15112
921.587	15173
921.697	15036
921.806	15108
921.916	15051
922.025	14861
922.134	14815
922.244	14731
922.353	14819
922.462	14640
922.571	14655
922.68	14408
922.789	14442
922.898	14438
923.007	14351
923.116	14484
923.224	14412
923.333	14370
923.442	14320
923.55	14263
923.659	14267
923.767	14385
923.876	14191
923.984	14153
924.092	14153
924.201	14069
924.309	14096
924.417	14145
924.525	14062
924.633	13955
924.741	15013
924.849	13826
924.956	14123
925.064	13830
925.172	13791
925.279	13674
925.387	13864
925.494	13849
925.602	13894
925.709	13837
925.816	13628
925.924	13765
926.031	13860
926.138	13753
926.245	13830
926.352	13575
926.459	13788
926.566	13803
926.673	13586
926.779	13472
926.886	13491
926.993	13430
927.099	13384
927.206	13213
927.312	13263
927.419	13358
927.525	13350
927.631	13365
927.737	13183
927.843	13187
927.95	13008
928.056	13145
928.162	13164
928.267	13129
928.373	13696
928.479	13202
928.585	12924
928.69	13069
928.796	13179
928.901	13023
929.007	12825
929.112	12920
929.218	12939
929.323	12837
929.428	12814
929.533	12920
929.638	12741
929.743	12757
929.848	12920
929.953	12696
930.058	12665
930.163	12585
930.267	12509
930.372	12650
930.477	12467
930.581	12730
930.685	12509
930.79	12410
930.894	12464
930.998	12220
931.103	12448
931.207	12194
931.311	12007
931.415	11935
931.519	11699
931.623	11722
