Data from test_V78500241_3006.txt Node
Date: Fri Mar 25 16:02:37 CST 2022
User: usil
Spectrometer: V785-0024
Trigger mode: 0
Integration Time (sec): 4.000000E-1
Scans to average: 1
Nonlinearity correction enabled: false
Boxcar width: 0
Storing dark spectrum: false
XAxis mode: Wavelengths
Number of Pixels in Spectrum: 1024
>>>>>Begin Spectral Data<<<<<
801.071	28691
801.214	28519
801.356	28451
801.499	28344
801.641	28097
801.783	28215
801.926	28299
802.068	28131
802.211	28188
802.353	28074
802.496	27945
802.638	28017
802.78	27869
802.923	27835
803.065	27819
803.208	27846
803.35	27717
803.492	27892
803.635	28074
803.777	28036
803.919	28013
804.061	28611
804.204	28185
804.346	28078
804.488	28143
804.63	28272
804.773	28150
804.915	28105
805.057	28204
805.199	28120
805.341	28325
805.483	28306
805.626	28230
805.768	28318
805.91	28204
806.052	28158
806.194	28162
806.336	28413
806.478	28352
806.62	28341
806.762	28352
806.904	28615
807.046	28702
807.188	28797
807.33	28786
807.472	28733
807.614	28596
807.756	28645
807.898	28481
808.04	28584
808.182	28512
808.324	28622
808.465	28641
808.607	28790
808.749	29003
808.891	29109
809.033	29105
809.174	29060
809.316	29067
809.458	28938
809.6	28949
809.741	29041
809.883	29060
810.025	29368
810.166	29178
810.308	29200
810.45	29307
810.591	29284
810.733	29166
810.875	28896
811.016	28946
811.158	29018
811.299	29075
811.441	29064
811.582	29162
811.724	29037
811.865	28881
812.007	28995
812.148	28888
812.29	28995
812.431	29136
812.573	29337
812.714	29395
812.855	29501
812.997	29783
813.138	29710
813.279	29657
813.421	29497
813.562	29459
813.703	29296
813.845	29155
813.986	29044
814.127	28805
814.268	28649
814.41	28706
814.551	28512
814.692	28752
814.833	28679
814.974	28615
815.115	28702
815.256	28466
815.397	28466
815.539	28588
815.68	28451
815.821	28314
815.962	28577
816.103	28516
816.244	28333
816.385	28329
816.526	28329
816.666	28219
816.807	28044
816.948	28223
817.089	28215
817.23	28036
817.371	27937
817.512	28093
817.653	27945
817.793	28025
817.934	28025
818.075	27998
818.216	28021
818.356	27903
818.497	27762
818.638	27728
818.778	27873
818.919	27819
819.06	27968
819.2	28013
819.341	28032
819.481	28048
819.622	28097
819.762	28424
819.903	28192
820.043	28333
820.184	28192
820.324	28067
820.465	28067
820.605	28196
820.746	28025
820.886	27987
821.026	28010
821.167	28021
821.307	28120
821.447	27949
821.588	28025
821.728	27800
821.868	27652
822.008	27427
822.149	27469
822.289	27386
822.429	27188
822.569	27344
822.709	27237
822.849	27032
822.99	26967
823.13	26990
823.27	27032
823.41	26910
823.55	26754
823.69	26830
823.83	26864
823.97	26842
824.11	26655
824.25	26648
824.389	26598
824.529	26762
824.669	26697
824.809	26811
824.949	26670
825.089	26686
825.228	26499
825.368	26530
825.508	26374
825.648	26629
825.787	26503
825.927	26663
826.067	26602
826.206	26598
826.346	26511
826.485	26552
826.625	26533
826.765	26670
826.904	26587
827.044	26427
827.183	26259
827.323	26176
827.462	26107
827.601	26210
827.741	26229
827.88	26191
828.02	26111
828.159	26164
828.298	26176
828.437	26351
828.577	26157
828.716	26343
828.855	26100
828.994	26027
829.134	25951
829.273	25909
829.412	25860
829.551	25830
829.69	25940
829.829	26031
829.968	25947
830.107	26039
830.246	25963
830.385	25818
830.524	25921
830.663	25772
830.802	25647
830.941	25594
831.08	25460
831.219	25597
831.357	25681
831.496	25761
831.635	25643
831.774	25430
831.913	25381
832.051	25259
832.19	25270
832.329	25354
832.467	25148
832.606	25266
832.744	25114
832.883	25289
833.022	25122
833.16	25118
833.299	25114
833.437	25457
833.576	25327
833.714	25487
833.852	25152
833.991	25362
834.129	25339
834.267	25308
834.406	25396
834.544	25259
834.682	25206
834.821	25213
834.959	25384
835.097	25251
835.235	25472
835.373	25183
835.511	25190
835.65	25156
835.788	25164
835.926	25069
836.064	24837
836.202	24829
836.34	25206
836.478	25122
836.615	25114
836.753	25072
836.891	25179
837.029	25103
837.167	24985
837.305	25072
837.443	24920
837.58	24962
837.718	25046
837.856	24890
837.993	24848
838.131	24935
838.269	24757
838.406	24848
838.544	24711
838.681	24566
838.819	24544
838.956	24467
839.094	24330
839.231	24490
839.369	24673
839.506	24829
839.643	24612
839.781	24323
839.918	24353
840.055	24441
840.193	24315
840.33	24338
840.467	24327
840.604	24407
840.742	24494
840.879	24243
841.016	24216
841.153	24125
841.29	24410
841.427	24186
841.564	24289
841.701	24262
841.838	24262
841.975	24136
842.112	24155
842.249	24102
842.385	24041
842.522	24213
842.659	24174
842.796	23992
842.933	24003
843.069	24026
843.206	24003
843.343	24064
843.479	24034
843.616	24015
843.752	23889
843.889	23885
844.025	23939
844.162	23988
844.298	23817
844.435	23817
844.571	23752
844.708	23874
844.844	24083
844.98	23920
845.117	23855
845.253	23756
845.389	23863
845.525	23840
845.661	23665
845.798	23638
845.934	23543
846.07	23649
846.206	23604
846.342	23600
846.478	23490
846.614	23429
846.75	23273
846.886	23326
847.022	23330
847.158	23315
847.294	23273
847.429	23277
847.565	23212
847.701	23520
847.837	22946
847.972	23067
848.108	23162
848.244	23132
848.379	22869
848.515	22854
848.65	22771
848.786	22744
848.921	22847
849.057	23048
849.192	23018
849.328	22968
849.463	22835
849.598	22919
849.734	22835
849.869	22782
850.004	22584
850.14	22592
850.275	22698
850.41	22615
850.545	22508
850.68	22569
850.815	22767
850.95	22675
851.085	22801
851.22	22786
851.355	22702
851.49	22630
851.625	22535
851.76	22656
851.895	22500
852.03	22592
852.165	22592
852.299	22691
852.434	22687
852.569	22519
852.703	22702
852.838	22710
852.973	22767
853.107	22672
853.242	22561
853.376	22485
853.511	22398
853.645	22398
853.78	22554
853.914	22451
854.048	22497
854.183	22455
854.317	22596
854.451	22653
854.585	22569
854.72	22421
854.854	22691
854.988	22500
855.122	22523
855.256	22367
855.39	22402
855.524	22550
855.658	22424
855.792	22436
855.926	22493
856.06	22390
856.194	22542
856.327	22367
856.461	22405
856.595	22318
856.729	22489
856.862	22542
856.996	22375
857.13	22500
857.263	22516
857.397	22531
857.53	22356
857.664	22512
857.797	22626
857.931	22550
858.064	22599
858.197	22645
858.331	22447
858.464	22527
858.597	22280
858.731	22360
858.864	22428
858.997	22500
859.13	22516
859.263	22516
859.396	22523
859.529	22470
859.662	22405
859.795	22447
859.928	22443
860.061	22523
860.194	22668
860.327	22424
860.46	22596
860.592	22554
860.725	22615
860.858	22611
860.99	22470
861.123	22481
861.256	22398
861.388	22557
861.521	23246
861.653	22367
861.786	22276
861.918	22268
862.05	22386
862.183	22360
862.315	22352
862.447	22421
862.58	22386
862.712	22131
862.844	22090
862.976	22306
863.108	22291
863.24	22592
863.372	22109
863.504	22128
863.636	22078
863.768	22333
863.9	22185
864.032	22067
864.164	22200
864.296	22249
864.428	22367
864.559	22192
864.691	22173
864.823	22070
864.954	21998
865.086	22150
865.217	22078
865.349	21876
865.48	22101
865.612	22177
865.743	22177
865.875	22036
866.006	21987
866.137	22067
866.269	22067
866.4	22097
866.531	21979
866.662	21964
866.793	22051
866.924	22086
867.055	22010
867.186	22059
867.317	21991
867.448	21861
867.579	21907
867.71	21960
867.841	21926
867.972	22059
868.103	21945
868.233	22044
868.364	21983
868.495	22055
868.625	22162
868.756	22284
868.886	22192
869.017	22169
869.147	22390
869.278	22265
869.408	22306
869.539	22322
869.669	22188
869.799	22280
869.929	22325
870.06	22284
870.19	22607
870.32	22500
870.45	22535
870.58	22713
870.71	22721
870.84	22725
870.97	22592
871.1	22516
871.23	22873
871.36	22752
871.489	22683
871.619	22782
871.749	22828
871.879	22755
872.008	22942
872.138	22850
872.267	22824
872.397	22653
872.526	22565
872.656	22664
872.785	22733
872.915	23006
873.044	22961
873.173	22892
873.303	22866
873.432	22896
873.561	22927
873.69	22744
873.819	22843
873.948	22957
874.077	22877
874.206	22774
874.335	22767
874.464	23014
874.593	23056
874.722	22942
874.851	23041
874.979	23098
875.108	23155
875.237	22957
875.365	23033
875.494	23048
875.623	23124
875.751	23041
875.88	23231
876.008	23136
876.136	23280
876.265	23474
876.393	23566
876.521	23509
876.65	23562
876.778	23577
876.906	23429
877.034	23360
877.162	23471
877.29	23360
877.418	23341
877.546	23463
877.674	23421
877.802	23452
877.93	23330
878.058	23311
878.185	23204
878.313	23296
878.441	23330
878.568	23307
878.696	23296
878.824	23364
878.951	23482
879.079	23547
879.206	23589
879.333	23547
879.461	23406
879.588	23501
879.715	23608
879.842	23627
879.97	23376
880.097	23166
880.224	23216
880.351	23284
880.478	23246
880.605	23185
880.732	23208
880.859	23414
880.986	23242
881.112	23265
881.239	22987
881.366	23010
881.493	22847
881.619	22877
881.746	22839
881.872	22839
881.999	22736
882.125	22599
882.252	22881
882.378	22721
882.505	22900
882.631	22675
882.757	22451
882.883	22569
883.01	22417
883.136	22409
883.262	22360
883.388	22375
883.514	22470
883.64	22398
883.766	22341
883.892	22276
884.018	22230
884.143	22322
884.269	22394
884.395	22143
884.52	22006
884.646	22143
884.772	22013
884.897	21956
885.023	22078
885.148	22204
885.274	22215
885.399	22207
885.524	22059
885.65	22051
885.775	22017
885.9	22067
886.025	22120
886.15	22120
886.275	22124
886.4	22044
886.525	22135
886.65	22006
886.775	22025
886.9	22215
887.025	22280
887.149	22090
887.274	21922
887.399	21873
887.523	21797
887.648	21808
887.773	21766
887.897	22051
888.021	21998
888.146	21743
888.27	21816
888.395	21903
888.519	21800
888.643	21869
888.767	21991
888.891	21549
889.015	21599
889.139	21690
889.263	21667
889.387	21812
889.511	21789
889.635	21831
889.759	21580
889.883	21553
890.006	21606
890.13	21770
890.254	21606
890.377	21595
890.501	21408
890.624	21332
890.748	21420
890.871	21211
890.995	21123
891.118	21264
891.241	21199
891.364	21211
891.488	21275
891.611	21100
891.734	21085
891.857	21237
891.98	21180
892.103	21241
892.226	21294
892.349	21104
892.471	20960
892.594	21062
892.717	21173
892.839	21096
892.962	21039
893.085	21081
893.207	21024
893.33	21024
893.452	21104
893.575	21085
893.697	21070
893.819	21154
893.941	21245
894.064	21184
894.186	21096
894.308	21020
894.43	21161
894.552	21154
894.674	21207
894.796	21017
894.918	21028
895.04	21081
895.161	21127
895.283	20982
895.405	21017
895.526	21146
895.648	20925
895.769	21150
895.891	21138
896.012	21131
896.134	21070
896.255	21047
896.376	21009
896.498	21043
896.619	21138
896.74	21074
896.861	21138
896.982	21260
897.103	21374
897.224	21408
897.345	21317
897.466	21230
897.587	21283
897.708	21363
897.828	21260
897.949	21249
898.07	21154
898.19	21264
898.311	21397
898.431	21138
898.552	21351
898.672	21355
898.792	21241
898.913	21355
899.033	21211
899.153	20979
899.273	21017
899.393	21032
899.513	20971
899.633	21036
899.753	20998
899.873	20864
899.993	21036
900.113	20941
900.232	20963
900.352	20937
900.472	20811
900.591	20689
900.711	20785
900.83	20598
900.95	20876
901.069	20777
901.189	20648
901.308	20499
901.427	20301
901.546	20393
901.665	20301
901.784	20320
901.904	20195
902.023	20069
902.141	19986
902.26	19791
902.379	19875
902.498	19791
902.617	19765
902.735	19875
902.854	19780
902.973	19841
903.091	19476
903.21	19377
903.328	19571
903.446	19365
903.565	19369
903.683	19232
903.801	19255
903.919	19209
904.038	19190
904.156	19110
904.274	19122
904.392	19015
904.51	18985
904.627	18958
904.745	19084
904.863	19107
904.981	18913
905.098	18692
905.216	18684
905.334	18669
905.451	18623
905.569	18661
905.686	18749
905.803	18696
905.921	18506
906.038	18639
906.155	18483
906.272	18441
906.389	18494
906.506	18235
906.623	18380
906.74	18262
906.857	18053
906.974	18190
907.091	18277
907.208	18292
907.324	18285
907.441	18076
907.557	17969
907.674	17969
907.79	17946
907.907	17946
908.023	18030
908.139	17950
908.256	17889
908.372	17904
908.488	17779
908.604	17786
908.72	17680
908.836	17649
908.952	17672
909.068	17585
909.184	17817
909.3	17570
909.415	17802
909.531	17630
909.647	17376
909.762	17467
909.878	17391
909.993	17402
910.108	17307
910.224	17246
910.339	17277
910.454	17254
910.57	17174
910.685	17086
910.8	17402
910.915	17322
911.03	17147
911.145	16961
911.259	16877
911.374	16927
911.489	16896
911.604	16820
911.718	16675
911.833	16637
911.947	16615
912.062	16592
912.176	16615
912.291	16653
912.405	16721
912.519	16729
912.633	16790
912.748	16641
912.862	16660
912.976	16550
913.09	16459
913.204	16542
913.318	16497
913.431	16569
913.545	16577
913.659	16645
913.772	16489
913.886	16284
914	16249
914.113	16360
914.226	16466
914.34	16261
914.453	16143
914.566	16344
914.68	16143
914.793	16090
914.906	16017
915.019	15899
915.132	15892
915.245	15865
915.358	16013
915.47	15819
915.583	15842
915.696	15884
915.809	15899
915.921	15987
916.034	15755
916.146	15656
916.259	15774
916.371	15808
916.483	15770
916.595	15656
916.708	15679
916.82	15656
916.932	15686
917.044	15568
917.156	15572
917.268	15428
917.38	15557
917.491	15412
917.603	15549
917.715	15507
917.826	15572
917.938	15454
918.049	15283
918.161	15405
918.272	15515
918.384	15542
918.495	15348
918.606	15272
918.717	15230
918.828	15344
918.939	15260
919.05	15131
919.161	15184
919.272	15028
919.383	15013
919.494	15176
919.604	15424
919.715	15150
919.826	15142
919.936	15127
920.047	15264
920.157	15112
920.267	15306
920.378	15173
920.488	15211
920.598	15291
920.708	15469
920.818	15344
920.928	15378
921.038	15439
921.148	15348
921.258	15070
921.368	15017
921.477	14967
921.587	14998
921.697	14773
921.806	14819
921.916	14800
922.025	14602
922.134	14575
922.244	14594
922.353	14495
922.462	14507
922.571	14339
922.68	14244
922.789	14218
922.898	14180
923.007	14180
923.116	14195
923.224	14168
923.333	14130
923.442	13978
923.55	14012
923.659	14126
923.767	14130
923.876	13913
923.984	14035
924.092	13913
924.201	13906
924.309	13951
924.417	13845
924.525	13822
924.633	13742
924.741	14667
924.849	13662
924.956	13780
925.064	13571
925.172	13537
925.279	13575
925.387	13658
925.494	13548
925.602	13658
925.709	13552
925.816	13449
925.924	13525
926.031	13594
926.138	13491
926.245	13563
926.352	13594
926.459	13548
926.566	13552
926.673	13419
926.779	13327
926.886	13263
926.993	13179
927.099	13107
927.206	13095
927.312	13149
927.419	13012
927.525	13141
927.631	13069
927.737	13053
927.843	12970
927.95	12852
928.056	12856
928.162	12901
928.267	13061
928.373	13537
928.479	13034
928.585	12783
928.69	12856
928.796	12897
928.901	12802
929.007	12631
929.112	12658
929.218	12719
929.323	12635
929.428	12570
929.533	12749
929.638	12604
929.743	12566
929.848	12608
929.953	12490
930.058	12399
930.163	12353
930.267	12315
930.372	12399
930.477	12197
930.581	12391
930.685	12323
930.79	12152
930.894	12232
930.998	12171
931.103	12338
931.207	11893
931.311	11737
931.415	11672
931.519	11562
931.623	11558
