Data from test_V78500241_3477.txt Node
Date: Fri Mar 25 16:05:53 CST 2022
User: usil
Spectrometer: V785-0024
Trigger mode: 0
Integration Time (sec): 4.000000E-1
Scans to average: 1
Nonlinearity correction enabled: false
Boxcar width: 0
Storing dark spectrum: false
XAxis mode: Wavelengths
Number of Pixels in Spectrum: 1024
>>>>>Begin Spectral Data<<<<<
801.071	29033
801.214	29037
801.356	28672
801.499	28873
801.641	28763
801.783	28607
801.926	28706
802.068	28679
802.211	28672
802.353	28554
802.496	28401
802.638	28447
802.78	28310
802.923	28379
803.065	28360
803.208	28440
803.35	28428
803.492	28592
803.635	28588
803.777	28493
803.919	28626
804.061	28915
804.204	28672
804.346	28615
804.488	28489
804.63	28637
804.773	28542
804.915	28618
805.057	28824
805.199	28664
805.341	28717
805.483	28748
805.626	28797
805.768	28850
805.91	28892
806.052	28904
806.194	28869
806.336	28930
806.478	28980
806.62	28995
806.762	28938
806.904	29284
807.046	29501
807.188	29223
807.33	29356
807.472	29261
807.614	29147
807.756	29231
807.898	29140
808.04	29044
808.182	29109
808.324	29010
808.465	29246
808.607	29436
808.749	29581
808.891	29551
809.033	29676
809.174	29528
809.316	29589
809.458	29501
809.6	29535
809.741	29726
809.883	29745
810.025	29908
810.166	29920
810.308	29805
810.45	29764
810.591	29691
810.733	29611
810.875	29543
811.016	29547
811.158	29558
811.299	29687
811.441	29733
811.582	29771
811.724	29585
811.865	29490
812.007	29611
812.148	29581
812.29	29623
812.431	29722
812.573	30026
812.714	30003
812.855	30022
812.997	30144
813.138	30273
813.279	30117
813.421	30057
813.562	30068
813.703	29958
813.845	29737
813.986	29592
814.127	29311
814.268	29204
814.41	29296
814.551	29349
814.692	29478
814.833	29258
814.974	29330
815.115	29261
815.256	29102
815.397	29102
815.539	29121
815.68	29121
815.821	29094
815.962	29140
816.103	29105
816.244	29121
816.385	28927
816.526	28991
816.666	28763
816.807	28668
816.948	28641
817.089	28752
817.23	28485
817.371	28710
817.512	28512
817.653	28459
817.793	28432
817.934	28675
818.075	28584
818.216	28694
818.356	28523
818.497	28584
818.638	28356
818.778	28333
818.919	28401
819.06	28375
819.2	28546
819.341	28649
819.481	28649
819.622	28755
819.762	28843
819.903	28965
820.043	28847
820.184	28786
820.324	28778
820.465	28801
820.605	28713
820.746	28660
820.886	28622
821.026	28672
821.167	28580
821.307	28774
821.447	28683
821.588	28519
821.728	28363
821.868	28344
822.008	28051
822.149	27979
822.289	28116
822.429	27934
822.569	27793
822.709	27922
822.849	27652
822.99	27603
823.13	27492
823.27	27679
823.41	27416
823.55	27344
823.69	27580
823.83	27370
823.97	27401
824.11	27199
824.25	27211
824.389	27287
824.529	27302
824.669	27192
824.809	27405
824.949	27313
825.089	27447
825.228	27420
825.368	27135
825.508	27047
825.648	27180
825.787	27203
825.927	27275
826.067	27123
826.206	27123
826.346	27173
826.485	27230
826.625	27055
826.765	27192
826.904	27237
827.044	26994
827.183	26857
827.323	26746
827.462	26925
827.601	26887
827.741	26967
827.88	27001
828.02	26807
828.159	26819
828.298	26902
828.437	26819
828.577	26781
828.716	26940
828.855	26800
828.994	26613
829.134	26571
829.273	26465
829.412	26503
829.551	26579
829.69	26423
829.829	26556
829.968	26518
830.107	26663
830.246	26644
830.385	26655
830.524	26450
830.663	26427
830.802	26282
830.941	26221
831.08	26130
831.219	26305
831.357	26191
831.496	26286
831.635	26157
831.774	26092
831.913	26157
832.051	25890
832.19	25868
832.329	25944
832.467	25894
832.606	25818
832.744	25734
832.883	25898
833.022	25860
833.16	25856
833.299	25890
833.437	25890
833.576	25944
833.714	26008
833.852	25963
833.991	25955
834.129	25978
834.267	25902
834.406	26058
834.544	25974
834.682	25947
834.821	25947
834.959	26065
835.097	25784
835.235	26001
835.373	25959
835.511	25970
835.65	25746
835.788	25814
835.926	25655
836.064	25502
836.202	25582
836.34	25795
836.478	25849
836.615	25712
836.753	25708
836.891	25715
837.029	25784
837.167	25803
837.305	25487
837.443	25632
837.58	25575
837.718	25578
837.856	25616
837.993	25468
838.131	25518
838.269	25457
838.406	25400
838.544	25335
838.681	25129
838.819	25133
838.956	25129
839.094	24989
839.231	25133
839.369	25152
839.506	25487
839.643	25343
839.781	24973
839.918	24871
840.055	25042
840.193	24951
840.33	24935
840.467	24920
840.604	24977
840.742	25194
840.879	24688
841.016	24833
841.153	24722
841.29	24935
841.427	24894
841.564	25038
841.701	24913
841.838	24760
841.975	24741
842.112	24810
842.249	24814
842.385	24578
842.522	24989
842.659	24810
842.796	24601
842.933	24760
843.069	24498
843.206	24593
843.343	24776
843.479	24715
843.616	24715
843.752	24525
843.889	24505
844.025	24528
844.162	24490
844.298	24650
844.435	24486
844.571	24467
844.708	24422
844.844	24582
844.98	24665
845.117	24502
845.253	24452
845.389	24292
845.525	24429
845.661	24251
845.798	24209
845.934	24224
846.07	24117
846.206	24106
846.342	24216
846.478	24209
846.614	24121
846.75	23878
846.886	23935
847.022	24038
847.158	23961
847.294	23764
847.429	24030
847.565	23794
847.701	24186
847.837	23474
847.972	23657
848.108	23707
848.244	23687
848.379	23520
848.515	23543
848.65	23429
848.786	23322
848.921	23558
849.057	23687
849.192	23592
849.328	23539
849.463	23372
849.598	23474
849.734	23402
849.869	23288
850.004	23216
850.14	23341
850.275	23311
850.41	23254
850.545	23284
850.68	23162
850.815	23353
850.95	23284
851.085	23543
851.22	23239
851.355	23204
851.49	23288
851.625	23200
851.76	23208
851.895	23075
852.03	23178
852.165	23284
852.299	23227
852.434	23337
852.569	23258
852.703	23220
852.838	23364
852.973	23261
853.107	23402
853.242	23181
853.376	23079
853.511	22938
853.645	23162
853.78	23280
853.914	23071
854.048	23029
854.183	23022
854.317	23102
854.451	23181
854.585	23064
854.72	23044
854.854	23064
854.988	22984
855.122	23086
855.256	22942
855.39	22987
855.524	23083
855.658	23220
855.792	23143
855.926	22972
856.06	23178
856.194	23254
856.327	23071
856.461	23052
856.595	23010
856.729	22995
856.862	23140
856.996	23147
857.13	23098
857.263	23155
857.397	23090
857.53	23105
857.664	23071
857.797	23147
857.931	23223
858.064	23102
858.197	23174
858.331	22930
858.464	23052
858.597	22968
858.731	22946
858.864	23033
858.997	22904
859.13	23094
859.263	23067
859.396	23117
859.529	23041
859.662	22957
859.795	22946
859.928	23022
860.061	23181
860.194	23296
860.327	23124
860.46	23060
860.592	23071
860.725	23181
860.858	23189
860.99	23090
861.123	22839
861.256	22987
861.388	23083
861.521	23798
861.653	22949
861.786	22816
861.918	22873
862.05	22927
862.183	22965
862.315	23010
862.447	22961
862.58	22995
862.712	22698
862.844	22649
862.976	22869
863.108	22824
863.24	23178
863.372	22717
863.504	22717
863.636	22702
863.768	22790
863.9	22748
864.032	22740
864.164	22713
864.296	22748
864.428	22873
864.559	22763
864.691	22733
864.823	22672
864.954	22729
865.086	22706
865.217	22759
865.349	22557
865.48	22664
865.612	22706
865.743	22778
865.875	22748
866.006	22596
866.137	22668
866.269	22592
866.4	22535
866.531	22683
866.662	22512
866.793	22542
866.924	22561
867.055	22512
867.186	22729
867.317	22565
867.448	22516
867.579	22447
867.71	22386
867.841	22493
867.972	22653
868.103	22504
868.233	22618
868.364	22489
868.495	22630
868.625	22698
868.756	22805
868.886	22683
869.017	22820
869.147	22904
869.278	22877
869.408	22885
869.539	22778
869.669	22915
869.799	22816
869.929	22976
870.06	22744
870.19	23147
870.32	23098
870.45	23181
870.58	23086
870.71	23330
870.84	23318
870.97	23162
871.1	23113
871.23	23322
871.36	23467
871.489	23178
871.619	23368
871.749	23414
871.879	23467
872.008	23474
872.138	23436
872.267	23467
872.397	23330
872.526	23288
872.656	23303
872.785	23083
872.915	23482
873.044	23436
873.173	23337
873.303	23448
873.432	23414
873.561	23577
873.69	23455
873.819	23444
873.948	23509
874.077	23330
874.206	23440
874.335	23410
874.464	23581
874.593	23619
874.722	23516
874.851	23707
874.979	23600
875.108	23634
875.237	23592
875.365	23570
875.494	23642
875.623	23703
875.751	23474
875.88	23581
876.008	23627
876.136	23790
876.265	24007
876.393	24064
876.521	24144
876.65	24140
876.778	23984
876.906	24053
877.034	23999
877.162	23916
877.29	24030
877.418	24064
877.546	24060
877.674	23988
877.802	24034
877.93	23939
878.058	23901
878.185	23874
878.313	23912
878.441	23874
878.568	23840
878.696	24007
878.824	24045
878.951	23992
879.079	24167
879.206	24178
879.333	24083
879.461	23950
879.588	24068
879.715	24209
879.842	24235
879.97	24064
880.097	23726
880.224	23710
880.351	23767
880.478	23760
880.605	23703
880.732	23855
880.859	23984
880.986	23836
881.112	23783
881.239	23642
881.366	23509
881.493	23322
881.619	23246
881.746	23379
881.872	23185
881.999	23311
882.125	23208
882.252	23379
882.378	23322
882.505	23501
882.631	23235
882.757	23056
882.883	23159
883.01	22995
883.136	22957
883.262	22927
883.388	22843
883.514	23006
883.64	22953
883.766	22896
883.892	22733
884.018	22809
884.143	22873
884.269	22999
884.395	22683
884.52	22557
884.646	22748
884.772	22546
884.897	22497
885.023	22516
885.148	22752
885.274	22740
885.399	22767
885.524	22478
885.65	22531
885.775	22588
885.9	22641
886.025	22694
886.15	22683
886.275	22653
886.4	22489
886.525	22641
886.65	22474
886.775	22519
886.9	22599
887.025	22881
887.149	22519
887.274	22382
887.399	22405
887.523	22371
887.648	22394
887.773	22249
887.897	22493
888.021	22462
888.146	22341
888.27	22512
888.395	22436
888.519	22386
888.643	22474
888.767	22379
888.891	22238
889.015	22226
889.139	22196
889.263	22109
889.387	22272
889.511	22402
889.635	22314
889.759	22032
889.883	22044
890.006	22181
890.13	22249
890.254	22032
890.377	22188
890.501	21873
890.624	21972
890.748	22063
890.871	21876
890.995	21804
891.118	21682
891.241	21766
891.364	21610
891.488	21846
891.611	21682
891.734	21644
891.857	21732
891.98	21759
892.103	21911
892.226	21603
892.349	21690
892.471	21526
892.594	21648
892.717	21580
892.839	21523
892.962	21591
893.085	21595
893.207	21576
893.33	21386
893.452	21576
893.575	21561
893.697	21698
893.819	21713
893.941	21781
894.064	21755
894.186	21545
894.308	21519
894.43	21633
894.552	21759
894.674	21641
894.796	21408
894.918	21572
895.04	21538
895.161	21542
895.283	21526
895.405	21447
895.526	21572
895.648	21561
895.769	21603
895.891	21595
896.012	21648
896.134	21667
896.255	21557
896.376	21428
896.498	21580
896.619	21583
896.74	21549
896.861	21492
896.982	21797
897.103	21861
897.224	21736
897.345	21686
897.466	21709
897.587	21759
897.708	21876
897.828	21747
897.949	21606
898.07	21614
898.19	21660
898.311	21793
898.431	21759
898.552	21762
898.672	21819
898.792	21797
898.913	21717
899.033	21580
899.153	21542
899.273	21294
899.393	21500
899.513	21439
899.633	21431
899.753	21507
899.873	21374
899.993	21431
900.113	21416
900.232	21367
900.352	21313
900.472	21195
900.591	21131
900.711	21226
900.83	21138
900.95	21359
901.069	21279
901.189	21116
901.308	20765
901.427	20804
901.546	20891
901.665	20872
901.784	20804
901.904	20648
902.023	20484
902.141	20313
902.26	20412
902.379	20385
902.498	20339
902.617	20233
902.735	20298
902.854	20275
902.973	20149
903.091	19898
903.21	19890
903.328	19993
903.446	19833
903.565	19757
903.683	19712
903.801	19681
903.919	19590
904.038	19647
904.156	19460
904.274	19544
904.392	19586
904.51	19392
904.627	19434
904.745	19502
904.863	19480
904.981	19293
905.098	19118
905.216	19168
905.334	19240
905.451	19107
905.569	19129
905.686	19228
905.803	19046
905.921	18875
906.038	19023
906.155	18947
906.272	18772
906.389	18840
906.506	18582
906.623	18787
906.74	18665
906.857	18555
906.974	18532
907.091	18696
907.208	18681
907.324	18642
907.441	18551
907.557	18422
907.674	18403
907.79	18300
907.907	18281
908.023	18300
908.139	18483
908.256	18372
908.372	18251
908.488	18254
908.604	18098
908.72	18102
908.836	18087
908.952	18072
909.068	18076
909.184	18178
909.3	18098
909.415	18053
909.531	18068
909.647	17752
909.762	17779
909.878	17760
909.993	17805
910.108	17775
910.224	17718
910.339	17722
910.454	17695
910.57	17558
910.685	17376
910.8	17802
910.915	17779
911.03	17573
911.145	17429
911.259	17349
911.374	17417
911.489	17296
911.604	17368
911.718	17132
911.833	17052
911.947	16957
912.062	16995
912.176	17109
912.291	17109
912.405	17052
912.519	17189
912.633	17292
912.748	17113
912.862	17041
912.976	16881
913.09	16858
913.204	16889
913.318	16881
913.431	17029
913.545	16965
913.659	16980
913.772	16862
913.886	16683
914	16687
914.113	16767
914.226	16717
914.34	16816
914.453	16470
914.566	16664
914.68	16603
914.793	16405
914.906	16314
915.019	16306
915.132	16090
915.245	16185
915.358	16234
915.47	16242
915.583	16246
915.696	16230
915.809	16322
915.921	16436
916.034	16154
916.146	16158
916.259	16051
916.371	16223
916.483	16131
916.595	16055
916.708	16093
916.82	15941
916.932	15949
917.044	15972
917.156	15994
917.268	15770
917.38	15888
917.491	15766
917.603	15808
917.715	15915
917.826	15895
917.938	15774
918.049	15686
918.161	15804
918.272	15854
918.384	15918
918.495	15720
918.606	15667
918.717	15488
918.828	15599
918.939	15641
919.05	15485
919.161	15534
919.272	15466
919.383	15420
919.494	15557
919.604	15751
919.715	15477
919.826	15538
919.936	15473
920.047	15587
920.157	15511
920.267	15797
920.378	15473
920.488	15469
920.598	15652
920.708	15911
920.818	15603
920.928	15637
921.038	15838
921.148	15724
921.258	15485
921.368	15336
921.477	15252
921.587	15272
921.697	15104
921.806	15226
921.916	15154
922.025	14998
922.134	14845
922.244	14849
922.353	14952
922.462	14727
922.571	14629
922.68	14518
922.789	14552
922.898	14480
923.007	14465
923.116	14552
923.224	14560
923.333	14423
923.442	14377
923.55	14267
923.659	14278
923.767	14374
923.876	14263
923.984	14324
924.092	14244
924.201	14191
924.309	14195
924.417	14240
924.525	14065
924.633	14092
924.741	14861
924.849	13959
924.956	14027
925.064	13917
925.172	13841
925.279	13849
925.387	13940
925.494	13803
925.602	14001
925.709	13902
925.816	13731
925.924	13780
926.031	13932
926.138	13837
926.245	13784
926.352	13662
926.459	13769
926.566	13830
926.673	13674
926.779	13533
926.886	13559
926.993	13510
927.099	13457
927.206	13282
927.312	13343
927.419	13403
927.525	13438
927.631	13274
927.737	13304
927.843	13274
927.95	13110
928.056	13122
928.162	13152
928.267	13266
928.373	13776
928.479	13335
928.585	13053
928.69	13183
928.796	13247
928.901	13076
929.007	12783
929.112	13042
929.218	12962
929.323	12871
929.428	12901
929.533	13004
929.638	12821
929.743	12844
929.848	12935
929.953	12810
930.058	12719
930.163	12528
930.267	12597
930.372	12806
930.477	12498
930.581	12734
930.685	12597
930.79	12506
930.894	12521
930.998	12388
931.103	12570
931.207	12095
931.311	12133
931.415	12030
931.519	11840
931.623	11767
