Data from test_V78500241_515.txt Node
Date: Fri Mar 25 15:45:22 CST 2022
User: usil
Spectrometer: V785-0024
Trigger mode: 0
Integration Time (sec): 4.000000E-1
Scans to average: 1
Nonlinearity correction enabled: false
Boxcar width: 0
Storing dark spectrum: false
XAxis mode: Wavelengths
Number of Pixels in Spectrum: 1024
>>>>>Begin Spectral Data<<<<<
801.071	27028
801.214	27077
801.356	26842
801.499	26823
801.641	26617
801.783	26594
801.926	26640
802.068	26743
802.211	26457
802.353	26427
802.496	26259
802.638	26218
802.78	26210
802.923	26214
803.065	26225
803.208	26214
803.35	26134
803.492	26343
803.635	26457
803.777	26282
803.919	26294
804.061	26587
804.204	26374
804.346	26301
804.488	26317
804.63	26343
804.773	26313
804.915	26343
805.057	26530
805.199	26324
805.341	26427
805.483	26499
805.626	26537
805.768	26465
805.91	26408
806.052	26434
806.194	26298
806.336	26705
806.478	26526
806.62	26374
806.762	26533
806.904	26716
807.046	26956
807.188	27043
807.33	26842
807.472	26853
807.614	26838
807.756	26788
807.898	26648
808.04	26648
808.182	26594
808.324	26758
808.465	26724
808.607	26845
808.749	26982
808.891	27230
809.033	27298
809.174	27157
809.316	27093
809.458	27214
809.6	27135
809.741	27252
809.883	27268
810.025	27348
810.166	27256
810.308	27317
810.45	27427
810.591	27348
810.733	27123
810.875	26979
811.016	26944
811.158	27024
811.299	27218
811.441	27287
811.582	27207
811.724	27146
811.865	27081
812.007	27005
812.148	27047
812.29	26998
812.431	27195
812.573	27336
812.714	27408
812.855	27614
812.997	27789
813.138	27720
813.279	27694
813.421	27663
813.562	27576
813.703	27389
813.845	27245
813.986	27096
814.127	26914
814.268	26758
814.41	26804
814.551	26693
814.692	26807
814.833	26621
814.974	26686
815.115	26796
815.256	26507
815.397	26602
815.539	26651
815.68	26583
815.821	26366
815.962	26431
816.103	26442
816.244	26355
816.385	26161
816.526	26229
816.666	26084
816.807	25966
816.948	26001
817.089	26065
817.23	25997
817.371	25986
817.512	25974
817.653	25849
817.793	26134
817.934	25932
818.075	26092
818.216	25993
818.356	25986
818.497	25841
818.638	25715
818.778	25643
818.919	25753
819.06	25700
819.2	25803
819.341	25959
819.481	25845
819.622	26054
819.762	26195
819.903	26206
820.043	26164
820.184	26043
820.324	26058
820.465	26161
820.605	26115
820.746	26043
820.886	25871
821.026	26081
821.167	26107
821.307	26142
821.447	25906
821.588	25974
821.728	25868
821.868	25658
822.008	25544
822.149	25518
822.289	25457
822.429	25228
822.569	25126
822.709	25168
822.849	25015
822.99	24829
823.13	24909
823.27	24947
823.41	24958
823.55	24783
823.69	24833
823.83	24738
823.97	24707
824.11	24582
824.25	24639
824.389	24509
824.529	24563
824.669	24601
824.809	24646
824.949	24719
825.089	24627
825.228	24650
825.368	24372
825.508	24525
825.648	24460
825.787	24464
825.927	24448
826.067	24445
826.206	24407
826.346	24448
826.485	24426
826.625	24391
826.765	24540
826.904	24570
827.044	24117
827.183	24327
827.323	24140
827.462	24308
827.601	24174
827.741	24144
827.88	24102
828.02	24083
828.159	24095
828.298	24152
828.437	24159
828.577	24186
828.716	24262
828.855	24178
828.994	23904
829.134	23828
829.273	23893
829.412	23824
829.551	23813
829.69	23855
829.829	23878
829.968	23996
830.107	23965
830.246	23847
830.385	23824
830.524	23653
830.663	23623
830.802	23474
830.941	23463
831.08	23376
831.219	23509
831.357	23535
831.496	23646
831.635	23444
831.774	23452
831.913	23311
832.051	23254
832.19	23353
832.329	23258
832.467	23162
832.606	23010
832.744	23200
832.883	23197
833.022	23102
833.16	23250
833.299	23086
833.437	23299
833.576	23200
833.714	23250
833.852	23242
833.991	23147
834.129	23216
834.267	23284
834.406	23223
834.544	23136
834.682	23212
834.821	23189
834.959	23345
835.097	23113
835.235	23075
835.373	23379
835.511	23132
835.65	23025
835.788	23064
835.926	22980
836.064	22786
836.202	22771
836.34	23037
836.478	23075
836.615	23075
836.753	23083
836.891	23098
837.029	23018
837.167	23037
837.305	23003
837.443	22919
837.58	22908
837.718	22854
837.856	22889
837.993	22637
838.131	22892
838.269	22675
838.406	22637
838.544	22683
838.681	22531
838.819	22481
838.956	22390
839.094	22367
839.231	22443
839.369	22447
839.506	22755
839.643	22592
839.781	22272
839.918	22268
840.055	22249
840.193	22325
840.33	22322
840.467	22280
840.604	22306
840.742	22554
840.879	22105
841.016	22086
841.153	22200
841.29	22242
841.427	22242
841.564	22386
841.701	22238
841.838	22291
841.975	22139
842.112	22204
842.249	22166
842.385	22055
842.522	22181
842.659	22306
842.796	21964
842.933	21911
843.069	21915
843.206	21926
843.343	22025
843.479	22139
843.616	22006
843.752	21770
843.889	21766
844.025	21892
844.162	21675
844.298	21926
844.435	21728
844.571	21724
844.708	21804
844.844	21926
844.98	22017
845.117	21865
845.253	21739
845.389	21736
845.525	21660
845.661	21641
845.798	21545
845.934	21572
846.07	21473
846.206	21519
846.342	21751
846.478	21557
846.614	21310
846.75	21180
846.886	21214
847.022	21214
847.158	21325
847.294	21298
847.429	21268
847.565	21230
847.701	21443
847.837	20975
847.972	20933
848.108	21005
848.244	21169
848.379	20929
848.515	20918
848.65	20796
848.786	20883
848.921	20838
849.057	20887
849.192	20990
849.328	20857
849.463	20838
849.598	20724
849.734	20670
849.869	20697
850.004	20735
850.14	20606
850.275	20701
850.41	20545
850.545	20499
850.68	20556
850.815	20701
850.95	20571
851.085	20834
851.22	20750
851.355	20648
851.49	20746
851.625	20499
851.76	20552
851.895	20579
852.03	20556
852.165	20663
852.299	20727
852.434	20632
852.569	20689
852.703	20526
852.838	20659
852.973	20701
853.107	20788
853.242	20537
853.376	20393
853.511	20374
853.645	20454
853.78	20533
853.914	20492
854.048	20571
854.183	20507
854.317	20480
854.451	20564
854.585	20530
854.72	20564
854.854	20495
854.988	20419
855.122	20393
855.256	20454
855.39	20469
855.524	20545
855.658	20499
855.792	20423
855.926	20465
856.06	20473
856.194	20480
856.327	20465
856.461	20442
856.595	20434
856.729	20412
856.862	20606
856.996	20385
857.13	20499
857.263	20579
857.397	20594
857.53	20419
857.664	20461
857.797	20503
857.931	20625
858.064	20480
858.197	20659
858.331	20454
858.464	20355
858.597	20317
858.731	20400
858.864	20351
858.997	20431
859.13	20461
859.263	20537
859.396	20602
859.529	20351
859.662	20400
859.795	20358
859.928	20518
860.061	20537
860.194	20663
860.327	20564
860.46	20267
860.592	20560
860.725	20575
860.858	20564
860.99	20469
861.123	20374
861.256	20518
861.388	20385
861.521	21131
861.653	20305
861.786	20176
861.918	20221
862.05	20275
862.183	20454
862.315	20431
862.447	20530
862.58	20362
862.712	20183
862.844	20107
862.976	20286
863.108	20252
863.24	20705
863.372	20039
863.504	20259
863.636	20096
863.768	20164
863.9	20077
864.032	20062
864.164	20100
864.296	20138
864.428	20275
864.559	20210
864.691	20164
864.823	20107
864.954	20195
865.086	20138
865.217	20069
865.349	19913
865.48	20172
865.612	20088
865.743	20240
865.875	20149
866.006	20027
866.137	19982
866.269	20027
866.4	20138
866.531	20024
866.662	19986
866.793	19936
866.924	20027
867.055	19967
867.186	20084
867.317	19967
867.448	19860
867.579	19947
867.71	19967
867.841	20020
867.972	19974
868.103	20088
868.233	19913
868.364	20020
868.495	20107
868.625	20183
868.756	20434
868.886	20088
869.017	20240
869.147	20431
869.278	20381
869.408	20271
869.539	20233
869.669	20389
869.799	20336
869.929	20358
870.06	20358
870.19	20583
870.32	20507
870.45	20587
870.58	20575
870.71	20754
870.84	20807
870.97	20636
871.1	20621
871.23	20811
871.36	20826
871.489	20621
871.619	20781
871.749	20906
871.879	20891
872.008	20990
872.138	20963
872.267	20781
872.397	20868
872.526	20636
872.656	20739
872.785	20632
872.915	20883
873.044	20906
873.173	20887
873.303	20845
873.432	20914
873.561	20933
873.69	20857
873.819	20880
873.948	20994
874.077	20944
874.206	20899
874.335	21020
874.464	21036
874.593	21051
874.722	21051
874.851	21142
874.979	21226
875.108	21233
875.237	20998
875.365	20986
875.494	20971
875.623	21085
875.751	21165
875.88	21112
876.008	21169
876.136	21325
876.265	21610
876.393	21580
876.521	21572
876.65	21599
876.778	21538
876.906	21583
877.034	21416
877.162	21515
877.29	21447
877.418	21500
877.546	21389
877.674	21393
877.802	21564
877.93	21386
878.058	21340
878.185	21329
878.313	21367
878.441	21504
878.568	21291
878.696	21450
878.824	21428
878.951	21622
879.079	21644
879.206	21747
879.333	21709
879.461	21481
879.588	21614
879.715	21759
879.842	21720
879.97	21553
880.097	21317
880.224	21302
880.351	21241
880.478	21325
880.605	21184
880.732	21249
880.859	21591
880.986	21275
881.112	21260
881.239	21146
881.366	20960
881.493	21039
881.619	20876
881.746	20960
881.872	20902
881.999	20842
882.125	20830
882.252	20823
882.378	20880
882.505	20975
882.631	20686
882.757	20632
882.883	20735
883.01	20590
883.136	20511
883.262	20537
883.388	20396
883.514	20552
883.64	20564
883.766	20545
883.892	20473
884.018	20431
884.143	20564
884.269	20514
884.395	20278
884.52	20202
884.646	20176
884.772	20111
884.897	20191
885.023	20305
885.148	20332
885.274	20431
885.399	20336
885.524	20214
885.65	20244
885.775	20240
885.9	20225
886.025	20351
886.15	20412
886.275	20191
886.4	20016
886.525	20210
886.65	20107
886.775	20237
886.9	20324
887.025	20488
887.149	20218
887.274	20183
887.399	20039
887.523	20073
887.648	19917
887.773	19906
887.897	20084
888.021	20111
888.146	19917
888.27	20111
888.395	20088
888.519	20046
888.643	20027
888.767	20008
888.891	19982
889.015	19868
889.139	19830
889.263	19807
889.387	19841
889.511	20001
889.635	19913
889.759	19822
889.883	19917
890.006	19780
890.13	19947
890.254	19643
890.377	19742
890.501	19571
890.624	19476
890.748	19662
890.871	19635
890.995	19247
891.118	19320
891.241	19472
891.364	19381
891.488	19464
891.611	19483
891.734	19403
891.857	19460
891.98	19373
892.103	19537
892.226	19415
892.349	19438
892.471	19259
892.594	19392
892.717	19339
892.839	19449
892.962	19327
893.085	19502
893.207	19434
893.33	19202
893.452	19308
893.575	19365
893.697	19350
893.819	19483
893.941	19480
894.064	19476
894.186	19228
894.308	19160
894.43	19407
894.552	19441
894.674	19335
894.796	19343
894.918	19171
895.04	19168
895.161	19316
895.283	19358
895.405	19247
895.526	19377
895.648	19274
895.769	19384
895.891	19392
896.012	19441
896.134	19369
896.255	19301
896.376	19308
896.498	19377
896.619	19396
896.74	19297
896.861	19388
896.982	19708
897.103	19833
897.224	19601
897.345	19670
897.466	19464
897.587	19525
897.708	19833
897.828	19575
897.949	19491
898.07	19346
898.19	19575
898.311	19666
898.431	19590
898.552	19544
898.672	19670
898.792	19670
898.913	19795
899.033	19381
899.153	19388
899.273	19270
899.393	19308
899.513	19388
899.633	19430
899.753	19453
899.873	19320
899.993	19438
900.113	19392
900.232	19403
900.352	19221
900.472	19236
900.591	19179
900.711	19183
900.83	19175
900.95	19297
901.069	19221
901.189	19091
901.308	18791
901.427	18692
901.546	18745
901.665	18993
901.784	18722
901.904	18665
902.023	18555
902.141	18380
902.26	18346
902.379	18388
902.498	18235
902.617	18277
902.735	18266
902.854	18254
902.973	18182
903.091	18007
903.21	17931
903.328	17908
903.446	17859
903.565	17745
903.683	17809
903.801	17718
903.919	17691
904.038	17646
904.156	17558
904.274	17623
904.392	17478
904.51	17532
904.627	17554
904.745	17585
904.863	17482
904.981	17292
905.098	17197
905.216	17102
905.334	17223
905.451	17159
905.569	17159
905.686	17197
905.803	17045
905.921	17056
906.038	17029
906.155	17048
906.272	16869
906.389	16889
906.506	16767
906.623	16778
906.74	16790
906.857	16672
906.974	16656
907.091	16778
907.208	16869
907.324	16828
907.441	16759
907.557	16417
907.674	16493
907.79	16363
907.907	16440
908.023	16462
908.139	16573
908.256	16413
908.372	16268
908.488	16325
908.604	16226
908.72	16074
908.836	16173
908.952	16200
909.068	16295
909.184	16177
909.3	16173
909.415	16303
909.531	16249
909.647	15934
909.762	15895
909.878	15926
909.993	15861
910.108	15797
910.224	15888
910.339	15816
910.454	15698
910.57	15774
910.685	15618
910.8	15926
910.915	15793
911.03	15701
911.145	15618
911.259	15507
911.374	15587
911.489	15378
911.604	15447
911.718	15264
911.833	15287
911.947	15222
912.062	15097
912.176	15332
912.291	15344
912.405	15150
912.519	15431
912.633	15469
912.748	15275
912.862	15218
912.976	15150
913.09	14883
913.204	15028
913.318	15077
913.431	15138
913.545	15066
913.659	15165
913.772	15013
913.886	14902
914	14914
914.113	14899
914.226	14944
914.34	14918
914.453	14819
914.566	14914
914.68	14792
914.793	14777
914.906	14583
915.019	14454
915.132	14374
915.245	14492
915.358	14568
915.47	14556
915.583	14564
915.696	14552
915.809	14629
915.921	14663
916.034	14465
916.146	14393
916.259	14408
916.371	14552
916.483	14564
916.595	14275
916.708	14385
916.82	14301
916.932	14286
917.044	14309
917.156	14298
917.268	14172
917.38	14278
917.491	14176
917.603	14206
917.715	14237
917.826	14267
917.938	14149
918.049	13993
918.161	14187
918.272	14332
918.384	14210
918.495	14187
918.606	14054
918.717	13856
918.828	13917
918.939	14024
919.05	13830
919.161	13936
919.272	13746
919.383	13780
919.494	14016
919.604	14138
919.715	13955
919.826	13970
919.936	13814
920.047	13982
920.157	13898
920.267	14073
920.378	13955
920.488	13879
920.598	14096
920.708	14233
920.818	14012
920.928	14100
921.038	14286
921.148	14119
921.258	13830
921.368	13784
921.477	13757
921.587	13689
921.697	13655
921.806	13681
921.916	13487
922.025	13346
922.134	13396
922.244	13331
922.353	13407
922.462	13232
922.571	13137
922.68	13012
922.789	13042
922.898	12947
923.007	12913
923.116	12985
923.224	12932
923.333	12928
923.442	12871
923.55	12806
923.659	12996
923.767	12966
923.876	12825
923.984	12806
924.092	12673
924.201	12802
924.309	12779
924.417	12726
924.525	12650
924.633	12715
924.741	13354
924.849	12559
924.956	12684
925.064	12388
925.172	12353
925.279	12471
925.387	12502
925.494	12433
925.602	12589
925.709	12494
925.816	12361
925.924	12403
926.031	12490
926.138	12429
926.245	12506
926.352	12391
926.459	12426
926.566	12433
926.673	12224
926.779	12243
926.886	12182
926.993	12064
927.099	11988
927.206	12064
927.312	11992
927.419	11954
927.525	12049
927.631	11961
927.737	11916
927.843	11935
927.95	11748
928.056	11737
928.162	11843
928.267	12011
928.373	12582
928.479	11958
928.585	11653
928.69	11676
928.796	11824
928.901	11695
929.007	11512
929.112	11760
929.218	11649
929.323	11604
929.428	11547
929.533	11688
929.638	11516
929.743	11570
929.848	11657
929.953	11604
930.058	11406
930.163	11273
930.267	11246
930.372	11429
930.477	11273
930.581	11490
930.685	11258
930.79	11220
930.894	11197
930.998	11204
931.103	11239
931.207	10934
931.311	10828
931.415	10816
931.519	10660
931.623	10497
