Data from test_V78500241_3407.txt Node
Date: Fri Mar 25 16:05:24 CST 2022
User: usil
Spectrometer: V785-0024
Trigger mode: 0
Integration Time (sec): 4.000000E-1
Scans to average: 1
Nonlinearity correction enabled: false
Boxcar width: 0
Storing dark spectrum: false
XAxis mode: Wavelengths
Number of Pixels in Spectrum: 1024
>>>>>Begin Spectral Data<<<<<
801.071	28725
801.214	28668
801.356	28421
801.499	28394
801.641	28242
801.783	28188
801.926	28421
802.068	28211
802.211	28234
802.353	28249
802.496	27949
802.638	28006
802.78	27926
802.923	28017
803.065	27895
803.208	27991
803.35	28090
803.492	28166
803.635	28109
803.777	28219
803.919	28215
804.061	28687
804.204	28177
804.346	28238
804.488	28128
804.63	28261
804.773	28116
804.915	28265
805.057	28371
805.199	28158
805.341	28234
805.483	28428
805.626	28474
805.768	28291
805.91	28360
806.052	28401
806.194	28310
806.336	28508
806.478	28379
806.62	28379
806.762	28615
806.904	28759
807.046	28824
807.188	28892
807.33	28858
807.472	28927
807.614	28873
807.756	28824
807.898	28748
808.04	28721
808.182	28702
808.324	28755
808.465	28675
808.607	28934
808.749	29064
808.891	29060
809.033	29273
809.174	29113
809.316	29014
809.458	29041
809.6	29056
809.741	29250
809.883	29242
810.025	29235
810.166	29383
810.308	29360
810.45	29227
810.591	29231
810.733	29181
810.875	29193
811.016	29052
811.158	29022
811.299	29037
811.441	29395
811.582	29315
811.724	29193
811.865	29121
812.007	29121
812.148	29071
812.29	29037
812.431	29292
812.573	29516
812.714	29539
812.855	29657
812.997	29653
813.138	29821
813.279	29710
813.421	29676
813.562	29528
813.703	29375
813.845	29379
813.986	28957
814.127	28885
814.268	28809
814.41	28976
814.551	28900
814.692	28896
814.833	28820
814.974	28752
815.115	28778
815.256	28626
815.397	28744
815.539	28782
815.68	28645
815.821	28721
815.962	28592
816.103	28523
816.244	28649
816.385	28550
816.526	28398
816.666	28139
816.807	28101
816.948	28158
817.089	28188
817.23	28112
817.371	28025
817.512	28036
817.653	28093
817.793	28051
817.934	28181
818.075	28128
818.216	28029
818.356	28059
818.497	28101
818.638	27903
818.778	27895
818.919	27873
819.06	27945
819.2	28082
819.341	28185
819.481	28173
819.622	28352
819.762	28440
819.903	28352
820.043	28390
820.184	28200
820.324	28268
820.465	28295
820.605	28333
820.746	28344
820.886	28204
821.026	28280
821.167	28234
821.307	28341
821.447	28006
821.588	28090
821.728	27934
821.868	27774
822.008	27736
822.149	27732
822.289	27797
822.429	27454
822.569	27439
822.709	27363
822.849	27176
822.99	27169
823.13	27173
823.27	27043
823.41	26944
823.55	26743
823.69	26914
823.83	26971
823.97	26876
824.11	26674
824.25	26765
824.389	26845
824.529	26864
824.669	26746
824.809	27024
824.949	26750
825.089	26887
825.228	26811
825.368	26826
825.508	26670
825.648	26602
825.787	26724
825.927	26663
826.067	26678
826.206	26545
826.346	26507
826.485	26754
826.625	26705
826.765	26686
826.904	26617
827.044	26484
827.183	26495
827.323	26313
827.462	26427
827.601	26476
827.741	26214
827.88	26339
828.02	26298
828.159	26309
828.298	26404
828.437	26370
828.577	26305
828.716	26461
828.855	26294
828.994	26149
829.134	26096
829.273	26122
829.412	25917
829.551	25913
829.69	26058
829.829	26065
829.968	26202
830.107	26096
830.246	26065
830.385	25921
830.524	25997
830.663	25883
830.802	25753
830.941	25597
831.08	25544
831.219	25734
831.357	25769
831.496	25902
831.635	25571
831.774	25609
831.913	25685
832.051	25483
832.19	25438
832.329	25430
832.467	25388
832.606	25350
832.744	25343
832.883	25324
833.022	25327
833.16	25282
833.299	25476
833.437	25483
833.576	25483
833.714	25350
833.852	25559
833.991	25365
834.129	25556
834.267	25662
834.406	25384
834.544	25460
834.682	25419
834.821	25415
834.959	25616
835.097	25426
835.235	25491
835.373	25282
835.511	25362
835.65	25346
835.788	25324
835.926	25061
836.064	25194
836.202	25145
836.34	25198
836.478	25472
836.615	25171
836.753	25183
836.891	25236
837.029	25152
837.167	25072
837.305	25187
837.443	25076
837.58	25084
837.718	25103
837.856	25095
837.993	24954
838.131	25114
838.269	24882
838.406	25015
838.544	24905
838.681	24669
838.819	24692
838.956	24517
839.094	24608
839.231	24642
839.369	24700
839.506	24833
839.643	24844
839.781	24616
839.918	24437
840.055	24528
840.193	24486
840.33	24407
840.467	24502
840.604	24475
840.742	24741
840.879	24319
841.016	24327
841.153	24167
841.29	24403
841.427	24410
841.564	24486
841.701	24372
841.838	24464
841.975	24342
842.112	24281
842.249	24247
842.385	24209
842.522	24494
842.659	24251
842.796	24239
842.933	24121
843.069	24117
843.206	24258
843.343	24270
843.479	24224
843.616	24296
843.752	24049
843.889	24106
844.025	24053
844.162	23916
844.298	24102
844.435	23866
844.571	23843
844.708	23946
844.844	24171
844.98	24155
845.117	24045
845.253	23885
845.389	23794
845.525	23980
845.661	23832
845.798	23741
845.934	23691
846.07	23783
846.206	23771
846.342	23840
846.478	23779
846.614	23596
846.75	23490
846.886	23493
847.022	23429
847.158	23414
847.294	23543
847.429	23551
847.565	23372
847.701	23615
847.837	23178
847.972	23105
848.108	23288
848.244	23235
848.379	23140
848.515	22949
848.65	23159
848.786	23041
848.921	22995
849.057	23124
849.192	23155
849.328	23128
849.463	23102
849.598	23014
849.734	22904
849.869	22763
850.004	22793
850.14	22805
850.275	22801
850.41	22660
850.545	22656
850.68	22725
850.815	22816
850.95	22831
851.085	23006
851.22	22896
851.355	22843
851.49	22797
851.625	22687
851.76	22706
851.895	22653
852.03	22675
852.165	22862
852.299	22820
852.434	22759
852.569	22797
852.703	22805
852.838	22759
852.973	22862
853.107	22816
853.242	22691
853.376	22649
853.511	22497
853.645	22561
853.78	22831
853.914	22672
854.048	22485
854.183	22634
854.317	22691
854.451	22820
854.585	22679
854.72	22508
854.854	22683
854.988	22569
855.122	22679
855.256	22554
855.39	22508
855.524	22679
855.658	22592
855.792	22618
855.926	22474
856.06	22618
856.194	22759
856.327	22550
856.461	22573
856.595	22546
856.729	22577
856.862	22713
856.996	22710
857.13	22675
857.263	22733
857.397	22755
857.53	22611
857.664	22618
857.797	22569
857.931	22805
858.064	22649
858.197	22653
858.331	22615
858.464	22508
858.597	22451
858.731	22596
858.864	22440
858.997	22531
859.13	22573
859.263	22618
859.396	22656
859.529	22565
859.662	22599
859.795	22573
859.928	22569
860.061	22752
860.194	22896
860.327	22634
860.46	22653
860.592	22706
860.725	22755
860.858	22637
860.99	22641
861.123	22645
861.256	22550
861.388	22516
861.521	23296
861.653	22386
861.786	22318
861.918	22413
862.05	22512
862.183	22413
862.315	22459
862.447	22527
862.58	22573
862.712	22424
862.844	22276
862.976	22394
863.108	22295
863.24	22580
863.372	22291
863.504	22363
863.636	22352
863.768	22333
863.9	22276
864.032	22166
864.164	22287
864.296	22325
864.428	22455
864.559	22402
864.691	22386
864.823	22352
864.954	22234
865.086	22348
865.217	22158
865.349	22166
865.48	22032
865.612	22074
865.743	22344
865.875	22090
866.006	22124
866.137	22124
866.269	22090
866.4	22181
866.531	22249
866.662	22093
866.793	22162
866.924	22272
867.055	22204
867.186	22192
867.317	22131
867.448	22116
867.579	22150
867.71	22044
867.841	22128
867.972	22154
868.103	21979
868.233	22116
868.364	22086
868.495	22166
868.625	22375
868.756	22382
868.886	22295
869.017	22348
869.147	22577
869.278	22459
869.408	22303
869.539	22276
869.669	22352
869.799	22470
869.929	22485
870.06	22557
870.19	22656
870.32	22535
870.45	22778
870.58	22721
870.71	22797
870.84	22900
870.97	22847
871.1	22649
871.23	22915
871.36	22987
871.489	22820
871.619	23056
871.749	22984
871.879	22934
872.008	23098
872.138	22908
872.267	22892
872.397	22805
872.526	22847
872.656	22717
872.785	22778
872.915	22957
873.044	23037
873.173	23048
873.303	23109
873.432	23090
873.561	23033
873.69	23147
873.819	22949
873.948	23018
874.077	22915
874.206	22965
874.335	22889
874.464	23105
874.593	23113
874.722	23109
874.851	23273
874.979	23193
875.108	23277
875.237	23212
875.365	23121
875.494	23189
875.623	23322
875.751	23204
875.88	23189
876.008	23356
876.136	23410
876.265	23547
876.393	23642
876.521	23562
876.65	23699
876.778	23516
876.906	23497
877.034	23463
877.162	23653
877.29	23531
877.418	23421
877.546	23535
877.674	23520
877.802	23482
877.93	23448
878.058	23440
878.185	23273
878.313	23410
878.441	23638
878.568	23330
878.696	23524
878.824	23440
878.951	23657
879.079	23604
879.206	23733
879.333	23646
879.461	23471
879.588	23668
879.715	23684
879.842	23931
879.97	23653
880.097	23417
880.224	23254
880.351	23398
880.478	23356
880.605	23353
880.732	23341
880.859	23672
880.986	23463
881.112	23406
881.239	23284
881.366	23128
881.493	23044
881.619	22999
881.746	22991
881.872	23094
881.999	22816
882.125	22866
882.252	22854
882.378	22793
882.505	23022
882.631	22790
882.757	22721
882.883	22755
883.01	22634
883.136	22569
883.262	22660
883.388	22428
883.514	22592
883.64	22443
883.766	22497
883.892	22375
884.018	22394
884.143	22569
884.269	22569
884.395	22268
884.52	22276
884.646	22310
884.772	22143
884.897	22105
885.023	22131
885.148	22356
885.274	22417
885.399	22131
885.524	22265
885.65	22192
885.775	22192
885.9	22131
886.025	22306
886.15	22230
886.275	22169
886.4	22055
886.525	22177
886.65	22158
886.775	22044
886.9	22238
887.025	22417
887.149	22303
887.274	22006
887.399	22040
887.523	21968
887.648	21895
887.773	22017
887.897	22109
888.021	21884
888.146	22025
888.27	22055
888.395	22070
888.519	21915
888.643	21964
888.767	21915
888.891	21922
889.015	21850
889.139	21926
889.263	21724
889.387	21781
889.511	21945
889.635	21915
889.759	21793
889.883	21759
890.006	21778
890.13	21819
890.254	21622
890.377	21625
890.501	21507
890.624	21469
890.748	21443
890.871	21382
890.995	21302
891.118	21176
891.241	21249
891.364	21264
891.488	21378
891.611	21268
891.734	21374
891.857	21405
891.98	21344
892.103	21321
892.226	21359
892.349	21203
892.471	21146
892.594	21226
892.717	21146
892.839	21142
892.962	21272
893.085	21161
893.207	21138
893.33	21108
893.452	21230
893.575	21241
893.697	21123
893.819	21363
893.941	21363
894.064	21199
894.186	21135
894.308	21047
894.43	21154
894.552	21306
894.674	21302
894.796	21077
894.918	21180
895.04	21180
895.161	21260
895.283	21211
895.405	21138
895.526	21161
895.648	21161
895.769	21203
895.891	21348
896.012	21233
896.134	21184
896.255	21146
896.376	21192
896.498	21245
896.619	21260
896.74	21199
896.861	21241
896.982	21545
897.103	21625
897.224	21454
897.345	21447
897.466	21283
897.587	21435
897.708	21576
897.828	21473
897.949	21146
898.07	21226
898.19	21310
898.311	21340
898.431	21325
898.552	21302
898.672	21416
898.792	21443
898.913	21405
899.033	21150
899.153	21093
899.273	20960
899.393	21108
899.513	21043
899.633	21104
899.753	21199
899.873	21017
899.993	21161
900.113	21055
900.232	21055
900.352	20956
900.472	20876
900.591	20758
900.711	20941
900.83	20857
900.95	20868
901.069	20990
901.189	20781
901.308	20575
901.427	20339
901.546	20252
901.665	20545
901.784	20602
901.904	20176
902.023	20282
902.141	19913
902.26	19913
902.379	20043
902.498	20008
902.617	19807
902.735	19959
902.854	19917
902.973	19913
903.091	19533
903.21	19559
903.328	19643
903.446	19495
903.565	19460
903.683	19476
903.801	19301
903.919	19335
904.038	19244
904.156	19232
904.274	19244
904.392	19080
904.51	19072
904.627	19129
904.745	19114
904.863	19175
904.981	18962
905.098	18791
905.216	18779
905.334	18844
905.451	18829
905.569	18875
905.686	18840
905.803	18798
905.921	18642
906.038	18795
906.155	18559
906.272	18563
906.389	18330
906.506	18330
906.623	18380
906.74	18308
906.857	18266
906.974	18273
907.091	18334
907.208	18445
907.324	18346
907.441	18285
907.557	18076
907.674	18030
907.79	17904
907.907	17973
908.023	18072
908.139	18003
908.256	18049
908.372	17961
908.488	17908
908.604	17783
908.72	17714
908.836	17874
908.952	17691
909.068	17737
909.184	17870
909.3	17805
909.415	17760
909.531	17760
909.647	17539
909.762	17402
909.878	17421
909.993	17440
910.108	17391
910.224	17337
910.339	17448
910.454	17364
910.57	17307
910.685	17197
910.8	17410
910.915	17406
911.03	17376
911.145	17064
911.259	16999
911.374	17079
911.489	16972
911.604	16961
911.718	16702
911.833	16778
911.947	16668
912.062	16500
912.176	16637
912.291	16725
912.405	16748
912.519	17071
912.633	16812
912.748	16850
912.862	16736
912.976	16607
913.09	16436
913.204	16531
913.318	16550
913.431	16740
913.545	16733
913.659	16584
913.772	16493
913.886	16432
914	16367
914.113	16512
914.226	16421
914.34	16348
914.453	16344
914.566	16455
914.68	16257
914.793	16181
914.906	16048
915.019	15964
915.132	15899
915.245	15884
915.358	15956
915.47	16010
915.583	15960
915.696	16010
915.809	16067
915.921	16124
916.034	15869
916.146	15781
916.259	15895
916.371	15941
916.483	15873
916.595	15808
916.708	15743
916.82	15759
916.932	15690
917.044	15743
917.156	15675
917.268	15584
917.38	15572
917.491	15595
917.603	15618
917.715	15587
917.826	15686
917.938	15492
918.049	15408
918.161	15462
918.272	15656
918.384	15534
918.495	15511
918.606	15386
918.717	15176
918.828	15298
918.939	15351
919.05	15268
919.161	15325
919.272	15001
919.383	15089
919.494	15321
919.604	15492
919.715	15249
919.826	15211
919.936	15176
920.047	15279
920.157	15195
920.267	15458
920.378	15332
920.488	15173
920.598	15428
920.708	15553
920.818	15329
920.928	15329
921.038	15595
921.148	15389
921.258	15195
921.368	15097
921.477	15020
921.587	14952
921.697	14963
921.806	14910
921.916	14743
922.025	14689
922.134	14583
922.244	14602
922.353	14682
922.462	14522
922.571	14427
922.68	14347
922.789	14339
922.898	14206
923.007	14199
923.116	14286
923.224	14142
923.333	14214
923.442	14043
923.55	14062
923.659	14202
923.767	14168
923.876	13951
923.984	14126
924.092	13898
924.201	13967
924.309	13909
924.417	13913
924.525	13887
924.633	13898
924.741	14735
924.849	13662
924.956	13807
925.064	13613
925.172	13567
925.279	13639
925.387	13662
925.494	13567
925.602	13677
925.709	13734
925.816	13521
925.924	13457
926.031	13685
926.138	13544
926.245	13616
926.352	13499
926.459	13609
926.566	13704
926.673	13441
926.779	13373
926.886	13411
926.993	13312
927.099	13061
927.206	13129
927.312	13160
927.419	13228
927.525	13179
927.631	13122
927.737	13050
927.843	13038
927.95	12859
928.056	12954
928.162	13080
928.267	13118
928.373	13483
928.479	13031
928.585	12901
928.69	12939
928.796	12951
928.901	12749
929.007	12639
929.112	12882
929.218	12802
929.323	12696
929.428	12760
929.533	12772
929.638	12639
929.743	12658
929.848	12578
929.953	12604
930.058	12540
930.163	12399
930.267	12292
930.372	12521
930.477	12380
930.581	12551
930.685	12323
930.79	12228
930.894	12251
930.998	12285
931.103	12319
931.207	12015
931.311	11946
931.415	11828
931.519	11657
931.623	11570
