Data from test_V78500241_3265.txt Node
Date: Fri Mar 25 16:04:25 CST 2022
User: usil
Spectrometer: V785-0024
Trigger mode: 0
Integration Time (sec): 4.000000E-1
Scans to average: 1
Nonlinearity correction enabled: false
Boxcar width: 0
Storing dark spectrum: false
XAxis mode: Wavelengths
Number of Pixels in Spectrum: 1024
>>>>>Begin Spectral Data<<<<<
801.071	28740
801.214	28717
801.356	28569
801.499	28516
801.641	28401
801.783	28234
801.926	28462
802.068	28341
802.211	28325
802.353	28276
802.496	28242
802.638	28078
802.78	28032
802.923	28044
803.065	27956
803.208	27869
803.35	28200
803.492	28204
803.635	28325
803.777	28196
803.919	28352
804.061	28554
804.204	28436
804.346	28356
804.488	28272
804.63	28421
804.773	28284
804.915	28352
805.057	28497
805.199	28303
805.341	28432
805.483	28683
805.626	28341
805.768	28401
805.91	28607
806.052	28538
806.194	28424
806.336	28790
806.478	28481
806.62	28432
806.762	28557
806.904	28641
807.046	29083
807.188	28843
807.33	29044
807.472	28987
807.614	28995
807.756	28904
807.898	28771
808.04	28596
808.182	28710
808.324	28881
808.465	28976
808.607	28942
808.749	29121
808.891	29250
809.033	29242
809.174	29200
809.316	29094
809.458	29098
809.6	28965
809.741	29284
809.883	29391
810.025	29387
810.166	29341
810.308	29406
810.45	29383
810.591	29322
810.733	29307
810.875	29273
811.016	29064
811.158	29075
811.299	29254
811.441	29395
811.582	29395
811.724	29166
811.865	29102
812.007	29326
812.148	29124
812.29	29235
812.431	29239
812.573	29539
812.714	29577
812.855	29676
812.997	29729
813.138	29859
813.279	29904
813.421	29805
813.562	29668
813.703	29524
813.845	29440
813.986	29052
814.127	28968
814.268	28915
814.41	28953
814.551	28953
814.692	29029
814.833	28934
814.974	28877
815.115	28923
815.256	28698
815.397	28908
815.539	28721
815.68	28691
815.821	28641
815.962	28675
816.103	28637
816.244	28634
816.385	28542
816.526	28504
816.666	28287
816.807	28169
816.948	28310
817.089	28367
817.23	28112
817.371	28219
817.512	28109
817.653	28162
817.793	28204
817.934	28219
818.075	28158
818.216	28329
818.356	28097
818.497	28036
818.638	27865
818.778	27968
818.919	27994
819.06	28017
819.2	28067
819.341	28173
819.481	28230
819.622	28436
819.762	28565
819.903	28424
820.043	28531
820.184	28310
820.324	28436
820.465	28394
820.605	28500
820.746	28276
820.886	28280
821.026	28276
821.167	28344
821.307	28348
821.447	28207
821.588	28261
821.728	28097
821.868	28013
822.008	27743
822.149	27781
822.289	27720
822.429	27481
822.569	27344
822.709	27431
822.849	27279
822.99	27211
823.13	27176
823.27	27055
823.41	27001
823.55	26994
823.69	26948
823.83	27062
823.97	26971
824.11	26838
824.25	26861
824.389	26838
824.529	26998
824.669	26883
824.809	27020
824.949	26918
825.089	26765
825.228	26845
825.368	26804
825.508	26758
825.648	26773
825.787	26663
825.927	26845
826.067	26811
826.206	26762
826.346	26849
826.485	26838
826.625	26708
826.765	26796
826.904	26807
827.044	26556
827.183	26514
827.323	26450
827.462	26533
827.601	26511
827.741	26339
827.88	26511
828.02	26377
828.159	26484
828.298	26442
828.437	26488
828.577	26431
828.716	26549
828.855	26317
828.994	26073
829.134	26157
829.273	26039
829.412	26092
829.551	26046
829.69	26138
829.829	26199
829.968	26081
830.107	26191
830.246	26221
830.385	26111
830.524	25989
830.663	26103
830.802	26039
830.941	25788
831.08	25803
831.219	25860
831.357	25852
831.496	25925
831.635	25700
831.774	25765
831.913	25632
832.051	25571
832.19	25464
832.329	25571
832.467	25384
832.606	25308
832.744	25400
832.883	25343
833.022	25400
833.16	25460
833.299	25373
833.437	25453
833.576	25438
833.714	25506
833.852	25491
833.991	25468
834.129	25582
834.267	25586
834.406	25559
834.544	25415
834.682	25479
834.821	25544
834.959	25780
835.097	25430
835.235	25457
835.373	25472
835.511	25506
835.65	25426
835.788	25320
835.926	25179
836.064	24958
836.202	25171
836.34	25308
836.478	25453
836.615	25259
836.753	25316
836.891	25354
837.029	25274
837.167	25240
837.305	25141
837.443	25187
837.58	25103
837.718	25190
837.856	25179
837.993	25129
838.131	25110
838.269	25031
838.406	24977
838.544	24932
838.681	24806
838.819	24867
838.956	24513
839.094	24525
839.231	24764
839.369	24795
839.506	24913
839.643	24772
839.781	24696
839.918	24502
840.055	24620
840.193	24563
840.33	24479
840.467	24395
840.604	24532
840.742	24741
840.879	24422
841.016	24471
841.153	24365
841.29	24532
841.427	24365
841.564	24574
841.701	24471
841.838	24346
841.975	24311
842.112	24372
842.249	24277
842.385	24258
842.522	24433
842.659	24311
842.796	24102
842.933	24201
843.069	24266
843.206	24251
843.343	24323
843.479	24308
843.616	24308
843.752	24015
843.889	24171
844.025	24254
844.162	23996
844.298	24171
844.435	24076
844.571	24015
844.708	24072
844.844	24201
844.98	24224
845.117	24167
845.253	23996
845.389	23908
845.525	23931
845.661	23866
845.798	23790
845.934	23741
846.07	23756
846.206	23794
846.342	23904
846.478	23646
846.614	23638
846.75	23406
846.886	23455
847.022	23577
847.158	23665
847.294	23520
847.429	23528
847.565	23406
847.701	23809
847.837	23216
847.972	23250
848.108	23292
848.244	23299
848.379	23067
848.515	23090
848.65	22991
848.786	23022
848.921	22972
849.057	23132
849.192	23216
849.328	23029
849.463	22984
849.598	23090
849.734	22904
849.869	22927
850.004	22885
850.14	22927
850.275	22793
850.41	22679
850.545	22748
850.68	22892
850.815	23025
850.95	22805
851.085	23041
851.22	22999
851.355	22850
851.49	22995
851.625	22831
851.76	22774
851.895	22729
852.03	22755
852.165	22984
852.299	22812
852.434	22904
852.569	22911
852.703	22873
852.838	22858
852.973	22896
853.107	23018
853.242	22850
853.376	22668
853.511	22573
853.645	22660
853.78	22698
853.914	22706
854.048	22599
854.183	22531
854.317	22694
854.451	22843
854.585	22634
854.72	22653
854.854	22786
854.988	22603
855.122	22824
855.256	22466
855.39	22455
855.524	22656
855.658	22767
855.792	22569
855.926	22733
856.06	22740
856.194	22820
856.327	22672
856.461	22653
856.595	22645
856.729	22672
856.862	22664
856.996	22748
857.13	22755
857.263	22687
857.397	22782
857.53	22565
857.664	22649
857.797	22759
857.931	22790
858.064	22679
858.197	22881
858.331	22713
858.464	22538
858.597	22447
858.731	22691
858.864	22630
858.997	22656
859.13	22653
859.263	22649
859.396	22656
859.529	22599
859.662	22626
859.795	22630
859.928	22618
860.061	22873
860.194	22892
860.327	22702
860.46	22725
860.592	22752
860.725	22812
860.858	22763
860.99	22546
861.123	22550
861.256	22656
861.388	22668
861.521	23391
861.653	22672
861.786	22459
861.918	22542
862.05	22584
862.183	22645
862.315	22485
862.447	22607
862.58	22512
862.712	22257
862.844	22398
862.976	22470
863.108	22440
863.24	22740
863.372	22398
863.504	22409
863.636	22417
863.768	22356
863.9	22386
864.032	22257
864.164	22314
864.296	22303
864.428	22409
864.559	22443
864.691	22474
864.823	22402
864.954	22382
865.086	22272
865.217	22242
865.349	22219
865.48	22219
865.612	22246
865.743	22356
865.875	22337
866.006	22200
866.137	22299
866.269	22253
866.4	22173
866.531	22219
866.662	22135
866.793	22158
866.924	22139
867.055	22112
867.186	22188
867.317	22055
867.448	22135
867.579	22116
867.71	22032
867.841	22185
867.972	22169
868.103	22177
868.233	22200
868.364	22192
868.495	22329
868.625	22379
868.756	22527
868.886	22367
869.017	22287
869.147	22656
869.278	22466
869.408	22432
869.539	22428
869.669	22424
869.799	22462
869.929	22447
870.06	22519
870.19	22736
870.32	22603
870.45	22683
870.58	22729
870.71	22733
870.84	22946
870.97	22679
871.1	22767
871.23	23029
871.36	23056
871.489	22831
871.619	22869
871.749	23025
871.879	23022
872.008	23037
872.138	23067
872.267	22942
872.397	22923
872.526	22755
872.656	22729
872.785	22733
872.915	23018
873.044	23075
873.173	23029
873.303	23121
873.432	23071
873.561	23147
873.69	23071
873.819	22995
873.948	23193
874.077	23071
874.206	23033
874.335	23083
874.464	23132
874.593	23204
874.722	23391
874.851	23414
874.979	23315
875.108	23277
875.237	23174
875.365	23242
875.494	23220
875.623	23299
875.751	23235
875.88	23223
876.008	23379
876.136	23421
876.265	23600
876.393	23821
876.521	23726
876.65	23764
876.778	23676
876.906	23630
877.034	23516
877.162	23448
877.29	23531
877.418	23608
877.546	23718
877.674	23539
877.802	23570
877.93	23478
878.058	23604
878.185	23433
878.313	23600
878.441	23577
878.568	23448
878.696	23600
878.824	23600
878.951	23783
879.079	23798
879.206	23878
879.333	23798
879.461	23467
879.588	23672
879.715	23752
879.842	23817
879.97	23714
880.097	23383
880.224	23402
880.351	23463
880.478	23440
880.605	23436
880.732	23433
880.859	23630
880.986	23425
881.112	23520
881.239	23288
881.366	23094
881.493	23041
881.619	23010
881.746	23113
881.872	22984
881.999	23010
882.125	22881
882.252	22995
882.378	23029
882.505	23136
882.631	22797
882.757	22733
882.883	22702
883.01	22706
883.136	22607
883.262	22542
883.388	22436
883.514	22561
883.64	22858
883.766	22546
883.892	22337
884.018	22398
884.143	22421
884.269	22641
884.395	22382
884.52	22314
884.646	22162
884.772	22109
884.897	22242
885.023	22181
885.148	22268
885.274	22394
885.399	22367
885.524	22348
885.65	22211
885.775	22162
885.9	22249
886.025	22500
886.15	22352
886.275	22268
886.4	22162
886.525	22177
886.65	22192
886.775	22074
886.9	22409
887.025	22512
887.149	22204
887.274	22116
887.399	22006
887.523	21937
887.648	21854
887.773	21941
887.897	22131
888.021	21922
888.146	22059
888.27	22090
888.395	21994
888.519	22082
888.643	22029
888.767	21934
888.891	21915
889.015	21800
889.139	21865
889.263	21793
889.387	21842
889.511	22006
889.635	21934
889.759	21956
889.883	21838
890.006	21838
890.13	21899
890.254	21648
890.377	21766
890.501	21469
890.624	21412
890.748	21618
890.871	21477
890.995	21329
891.118	21325
891.241	21389
891.364	21298
891.488	21469
891.611	21351
891.734	21378
891.857	21370
891.98	21317
892.103	21397
892.226	21325
892.349	21237
892.471	21131
892.594	21302
892.717	21393
892.839	21230
892.962	21332
893.085	21237
893.207	21176
893.33	21138
893.452	21222
893.575	21249
893.697	21203
893.819	21283
893.941	21454
894.064	21336
894.186	21214
894.308	21112
894.43	21321
894.552	21412
894.674	21268
894.796	21131
894.918	21184
895.04	21203
895.161	21237
895.283	21351
895.405	21218
895.526	21275
895.648	21207
895.769	21226
895.891	21252
896.012	21428
896.134	21214
896.255	21279
896.376	21157
896.498	21249
896.619	21203
896.74	21192
896.861	21195
896.982	21576
897.103	21660
897.224	21496
897.345	21412
897.466	21336
897.587	21485
897.708	21606
897.828	21321
897.949	21348
898.07	21252
898.19	21348
898.311	21443
898.431	21473
898.552	21351
898.672	21374
898.792	21500
898.913	21378
899.033	21230
899.153	21192
899.273	21169
899.393	21146
899.513	21154
899.633	21154
899.753	21157
899.873	21047
899.993	21157
900.113	20982
900.232	21161
900.352	20990
900.472	21020
900.591	20739
900.711	20864
900.83	20830
900.95	21001
901.069	20975
901.189	20823
901.308	20518
901.427	20339
901.546	20400
901.665	20552
901.784	20412
901.904	20294
902.023	20187
902.141	20039
902.26	20107
902.379	20157
902.498	19944
902.617	19928
902.735	19982
902.854	19875
902.973	19909
903.091	19521
903.21	19651
903.328	19635
903.446	19518
903.565	19415
903.683	19445
903.801	19362
903.919	19449
904.038	19335
904.156	19175
904.274	19244
904.392	19190
904.51	19175
904.627	19206
904.745	19141
904.863	19316
904.981	18920
905.098	18848
905.216	18852
905.334	18970
905.451	18909
905.569	18875
905.686	18749
905.803	18905
905.921	18612
906.038	18707
906.155	18669
906.272	18452
906.389	18513
906.506	18365
906.623	18304
906.74	18353
906.857	18216
906.974	18296
907.091	18330
907.208	18452
907.324	18479
907.441	18330
907.557	18117
907.674	18121
907.79	18057
907.907	18045
908.023	18224
908.139	17992
908.256	17999
908.372	17923
908.488	17965
908.604	17729
908.72	17767
908.836	17767
908.952	17859
909.068	17893
909.184	17840
909.3	17760
909.415	17714
909.531	17726
909.647	17516
909.762	17551
909.878	17505
909.993	17512
910.108	17520
910.224	17448
910.339	17497
910.454	17326
910.57	17246
910.685	17178
910.8	17490
910.915	17509
911.03	17174
911.145	17132
911.259	17155
911.374	17151
911.489	17006
911.604	16877
911.718	16828
911.833	16881
911.947	16759
912.062	16649
912.176	16748
912.291	16763
912.405	16892
912.519	17041
912.633	17014
912.748	16805
912.862	16858
912.976	16672
913.09	16588
913.204	16580
913.318	16512
913.431	16683
913.545	16664
913.659	16725
913.772	16569
913.886	16474
914	16428
914.113	16462
914.226	16531
914.34	16440
914.453	16356
914.566	16451
914.68	16299
914.793	16200
914.906	16063
915.019	15975
915.132	16017
915.245	15987
915.358	16017
915.47	15994
915.583	15975
915.696	16051
915.809	16120
915.921	16105
916.034	15907
916.146	15998
916.259	15842
916.371	15842
916.483	15991
916.595	15854
916.708	15873
916.82	15709
916.932	15766
917.044	15774
917.156	15736
917.268	15576
917.38	15530
917.491	15637
917.603	15610
917.715	15553
917.826	15705
917.938	15485
918.049	15401
918.161	15526
918.272	15644
918.384	15648
918.495	15481
918.606	15397
918.717	15241
918.828	15393
918.939	15378
919.05	15264
919.161	15351
919.272	15093
919.383	15252
919.494	15336
919.604	15450
919.715	15325
919.826	15154
919.936	15283
920.047	15298
920.157	15260
920.267	15553
920.378	15214
920.488	15329
920.598	15431
920.708	15644
920.818	15359
920.928	15420
921.038	15576
921.148	15580
921.258	15275
921.368	15192
921.477	15070
921.587	15017
921.697	14906
921.806	15013
921.916	14944
922.025	14682
922.134	14663
922.244	14621
922.353	14682
922.462	14511
922.571	14537
922.68	14358
922.789	14199
922.898	14278
923.007	14263
923.116	14275
923.224	14313
923.333	14199
923.442	14046
923.55	14062
923.659	14126
923.767	14142
923.876	14008
923.984	14043
924.092	14058
924.201	13982
924.309	13974
924.417	13978
924.525	13917
924.633	13917
924.741	14632
924.849	13780
924.956	13841
925.064	13746
925.172	13685
925.279	13628
925.387	13689
925.494	13708
925.602	13803
925.709	13746
925.816	13544
925.924	13677
926.031	13681
926.138	13571
926.245	13689
926.352	13495
926.459	13586
926.566	13712
926.673	13559
926.779	13407
926.886	13365
926.993	13232
927.099	13244
927.206	13149
927.312	13168
927.419	13232
927.525	13164
927.631	13190
927.737	13107
927.843	12970
927.95	12943
928.056	12924
928.162	12958
928.267	13065
928.373	13559
928.479	13012
928.585	12802
928.69	13004
928.796	13008
928.901	12844
929.007	12677
929.112	12844
929.218	12757
929.323	12639
929.428	12612
929.533	12913
929.638	12593
929.743	12665
929.848	12681
929.953	12662
930.058	12490
930.163	12403
930.267	12372
930.372	12486
930.477	12327
930.581	12547
930.685	12357
930.79	12346
930.894	12247
930.998	12243
931.103	12327
931.207	12034
931.311	11893
931.415	11863
931.519	11615
931.623	11596
