Data from test_V78500241_1684.txt Node
Date: Fri Mar 25 15:53:28 CST 2022
User: usil
Spectrometer: V785-0024
Trigger mode: 0
Integration Time (sec): 4.000000E-1
Scans to average: 1
Nonlinearity correction enabled: false
Boxcar width: 0
Storing dark spectrum: false
XAxis mode: Wavelengths
Number of Pixels in Spectrum: 1024
>>>>>Begin Spectral Data<<<<<
801.071	28417
801.214	28375
801.356	28090
801.499	28059
801.641	27998
801.783	28025
801.926	28150
802.068	27949
802.211	27960
802.353	27884
802.496	27599
802.638	27694
802.78	27557
802.923	27641
803.065	27587
803.208	27542
803.35	27694
803.492	27713
803.635	27808
803.777	27675
803.919	27899
804.061	28051
804.204	27983
804.346	27850
804.488	27736
804.63	27800
804.773	27759
804.915	27930
805.057	27945
805.199	27797
805.341	27873
805.483	28063
805.626	28105
805.768	27975
805.91	27899
806.052	28090
806.194	28150
806.336	28154
806.478	28139
806.62	28002
806.762	28143
806.904	28287
807.046	28565
807.188	28363
807.33	28405
807.472	28554
807.614	28348
807.756	28398
807.898	28303
808.04	28268
808.182	28303
808.324	28284
808.465	28386
808.607	28485
808.749	28679
808.891	28801
809.033	28790
809.174	28679
809.316	28615
809.458	28622
809.6	28531
809.741	28656
809.883	28782
810.025	28885
810.166	28946
810.308	28946
810.45	28968
810.591	28812
810.733	28596
810.875	28626
811.016	28675
811.158	28497
811.299	28801
811.441	28767
811.582	28793
811.724	28721
811.865	28790
812.007	28630
812.148	28767
812.29	28683
812.431	28858
812.573	29109
812.714	29170
812.855	29140
812.997	29277
813.138	29486
813.279	29395
813.421	29280
813.562	29231
813.703	29071
813.845	28896
813.986	28580
814.127	28500
814.268	28291
814.41	28443
814.551	28466
814.692	28519
814.833	28428
814.974	28280
815.115	28421
815.256	28230
815.397	28291
815.539	28287
815.68	28082
815.821	28086
815.962	28177
816.103	28158
816.244	28086
816.385	28032
816.526	27987
816.666	27793
816.807	27732
816.948	27717
817.089	27717
817.23	27694
817.371	27686
817.512	27686
817.653	27720
817.793	27667
817.934	27717
818.075	27724
818.216	27675
818.356	27583
818.497	27564
818.638	27496
818.778	27370
818.919	27454
819.06	27564
819.2	27523
819.341	27770
819.481	27701
819.622	27880
819.762	27945
819.903	27884
820.043	27907
820.184	27778
820.324	27747
820.465	27865
820.605	27770
820.746	27797
820.886	27625
821.026	27747
821.167	27610
821.307	27934
821.447	27778
821.588	27633
821.728	27435
821.868	27249
822.008	27233
822.149	27157
822.289	27203
822.429	26887
822.569	26807
822.709	26929
822.849	26712
822.99	26773
823.13	26598
823.27	26629
823.41	26381
823.55	26355
823.69	26499
823.83	26400
823.97	26488
824.11	26377
824.25	26324
824.389	26298
824.529	26370
824.669	26408
824.809	26412
824.949	26377
825.089	26343
825.228	26374
825.368	26115
825.508	26111
825.648	26275
825.787	26317
825.927	26294
826.067	26176
826.206	26119
826.346	26282
826.485	26339
826.625	26229
826.765	26431
826.904	26138
827.044	25997
827.183	25921
827.323	25947
827.462	25871
827.601	25940
827.741	25970
827.88	26008
828.02	25909
828.159	25879
828.298	25917
828.437	25902
828.577	25913
828.716	26001
828.855	25879
828.994	25613
829.134	25529
829.273	25658
829.412	25491
829.551	25548
829.69	25556
829.829	25693
829.968	25677
830.107	25666
830.246	25601
830.385	25655
830.524	25544
830.663	25403
830.802	25381
830.941	25160
831.08	25133
831.219	25255
831.357	25175
831.496	25476
831.635	25221
831.774	25236
831.913	25099
832.051	24962
832.19	25053
832.329	25152
832.467	24897
832.606	24764
832.744	24817
832.883	24806
833.022	24821
833.16	24901
833.299	24996
833.437	25069
833.576	25008
833.714	24943
833.852	24985
833.991	24943
834.129	25133
834.267	25057
834.406	24768
834.544	24985
834.682	24909
834.821	24882
834.959	25247
835.097	24833
835.235	24966
835.373	25012
835.511	24871
835.65	24867
835.788	24776
835.926	24726
836.064	24475
836.202	24513
836.34	24711
836.478	24947
836.615	24654
836.753	24711
836.891	24814
837.029	24650
837.167	24593
837.305	24525
837.443	24730
837.58	24669
837.718	24627
837.856	24582
837.993	24536
838.131	24627
838.269	24350
838.406	24448
838.544	24372
838.681	24247
838.819	24391
838.956	23935
839.094	24057
839.231	24102
839.369	24308
839.506	24532
839.643	24388
839.781	24045
839.918	24114
840.055	24072
840.193	24045
840.33	24007
840.467	24026
840.604	23961
840.742	24239
840.879	23855
841.016	23843
841.153	23965
841.29	24247
841.427	23908
841.564	23927
841.701	23946
841.838	23999
841.975	23855
842.112	23893
842.249	23703
842.385	23745
842.522	23961
842.659	23885
842.796	23718
842.933	23729
843.069	23745
843.206	23585
843.343	23695
843.479	23745
843.616	23634
843.752	23478
843.889	23467
844.025	23646
844.162	23478
844.298	23668
844.435	23551
844.571	23433
844.708	23452
844.844	23703
844.98	23634
845.117	23524
845.253	23497
845.389	23353
845.525	23269
845.661	23318
845.798	23193
845.934	23143
846.07	23239
846.206	23303
846.342	23341
846.478	23250
846.614	23025
846.75	22820
846.886	22949
847.022	22991
847.158	22873
847.294	22854
847.429	22972
847.565	22850
847.701	23200
847.837	22824
847.972	22641
848.108	22763
848.244	22885
848.379	22596
848.515	22542
848.65	22455
848.786	22550
848.921	22504
849.057	22683
849.192	22493
849.328	22497
849.463	22531
849.598	22599
849.734	22466
849.869	22367
850.004	22382
850.14	22207
850.275	22352
850.41	22405
850.545	22246
850.68	22310
850.815	22386
850.95	22375
851.085	22443
851.22	22356
851.355	22379
851.49	22215
851.625	22337
851.76	22428
851.895	22181
852.03	22211
852.165	22390
852.299	22341
852.434	22314
852.569	22348
852.703	22322
852.838	22299
852.973	22489
853.107	22371
853.242	22333
853.376	22029
853.511	22063
853.645	22010
853.78	22169
853.914	22105
854.048	22097
854.183	22040
854.317	22120
854.451	22325
854.585	22029
854.72	22093
854.854	22204
854.988	22040
855.122	21998
855.256	21895
855.39	22040
855.524	22116
855.658	22169
855.792	22097
855.926	22109
856.06	22196
856.194	22158
856.327	22067
856.461	21987
856.595	22059
856.729	22090
856.862	22242
856.996	22131
857.13	22131
857.263	22299
857.397	22215
857.53	22078
857.664	22299
857.797	22333
857.931	22139
858.064	22036
858.197	22207
858.331	22082
858.464	22116
858.597	22006
858.731	22074
858.864	22044
858.997	22048
859.13	22150
859.263	22090
859.396	22207
859.529	22101
859.662	22173
859.795	22074
859.928	22192
860.061	22223
860.194	22325
860.327	22246
860.46	22242
860.592	22268
860.725	22386
860.858	22272
860.99	22154
861.123	22021
861.256	22082
861.388	22169
861.521	22847
861.653	22128
861.786	21903
861.918	21880
862.05	22029
862.183	22105
862.315	22067
862.447	22040
862.58	21972
862.712	21838
862.844	21717
862.976	21945
863.108	21857
863.24	22356
863.372	21747
863.504	21922
863.636	21686
863.768	21857
863.9	21770
864.032	21717
864.164	21842
864.296	21766
864.428	22013
864.559	21998
864.691	21850
864.823	21930
864.954	21835
865.086	21831
865.217	21781
865.349	21564
865.48	21667
865.612	21808
865.743	21937
865.875	21774
866.006	21641
866.137	21797
866.269	21778
866.4	21663
866.531	21660
866.662	21538
866.793	21610
866.924	21701
867.055	21633
867.186	21686
867.317	21572
867.448	21420
867.579	21694
867.71	21481
867.841	21576
867.972	21591
868.103	21656
868.233	21564
868.364	21660
868.495	21770
868.625	21816
868.756	21911
868.886	21838
869.017	21873
869.147	21998
869.278	22097
869.408	21895
869.539	21899
869.669	21949
869.799	21953
869.929	22105
870.06	22051
870.19	22207
870.32	22200
870.45	22169
870.58	22284
870.71	22295
870.84	22447
870.97	22166
871.1	22284
871.23	22466
871.36	22462
871.489	22409
871.619	22538
871.749	22474
871.879	22493
872.008	22542
872.138	22538
872.267	22500
872.397	22402
872.526	22348
872.656	22299
872.785	22367
872.915	22607
873.044	22546
873.173	22500
873.303	22630
873.432	22573
873.561	22637
873.69	22485
873.819	22394
873.948	22485
874.077	22573
874.206	22500
874.335	22557
874.464	22641
874.593	22645
874.722	22687
874.851	22767
874.979	22896
875.108	22656
875.237	22618
875.365	22565
875.494	22736
875.623	22847
875.751	22596
875.88	22820
876.008	22828
876.136	22816
876.265	23083
876.393	23273
876.521	23155
876.65	23200
876.778	23109
876.906	23155
877.034	22934
877.162	23041
877.29	22987
877.418	23029
877.546	23090
877.674	22995
877.802	23018
877.93	22934
878.058	23018
878.185	22953
878.313	22938
878.441	23178
878.568	22854
878.696	22999
878.824	22953
878.951	23117
879.079	23223
879.206	23223
879.333	23227
879.461	23094
879.588	23121
879.715	23155
879.842	23284
879.97	23094
880.097	22930
880.224	22843
880.351	22885
880.478	22896
880.605	22793
880.732	22828
880.859	23083
880.986	22881
881.112	23033
881.239	22786
881.366	22607
881.493	22474
881.619	22481
881.746	22527
881.872	22409
881.999	22341
882.125	22474
882.252	22432
882.378	22360
882.505	22424
882.631	22344
882.757	22139
882.883	22173
883.01	22044
883.136	22017
883.262	21975
883.388	21926
883.514	21979
883.64	22150
883.766	22010
883.892	21770
884.018	21911
884.143	22112
884.269	22173
884.395	21918
884.52	21819
884.646	21831
884.772	21717
884.897	21762
885.023	21831
885.148	21819
885.274	21907
885.399	21819
885.524	21804
885.65	21606
885.775	21827
885.9	21770
886.025	21941
886.15	21842
886.275	21717
886.4	21553
886.525	21762
886.65	21690
886.775	21770
886.9	21915
887.025	21835
887.149	21698
887.274	21523
887.399	21420
887.523	21595
887.648	21538
887.773	21450
887.897	21545
888.021	21587
888.146	21450
888.27	21675
888.395	21648
888.519	21663
888.643	21549
888.767	21679
888.891	21340
889.015	21367
889.139	21428
889.263	21252
889.387	21553
889.511	21473
889.635	21363
889.759	21310
889.883	21435
890.006	21260
890.13	21420
890.254	21264
890.377	21214
890.501	21020
890.624	21142
890.748	21165
890.871	20963
890.995	20785
891.118	20902
891.241	20823
891.364	20845
891.488	21028
891.611	20929
891.734	20906
891.857	20925
891.98	20910
892.103	20800
892.226	20849
892.349	20758
892.471	20625
892.594	20750
892.717	20781
892.839	20823
892.962	20750
893.085	20815
893.207	20746
893.33	20705
893.452	20659
893.575	20804
893.697	20838
893.819	20864
893.941	20910
894.064	20887
894.186	20788
894.308	20693
894.43	20823
894.552	20944
894.674	20804
894.796	20663
894.918	20731
895.04	20743
895.161	20781
895.283	20758
895.405	20701
895.526	20655
895.648	20716
895.769	20781
895.891	20796
896.012	20807
896.134	20785
896.255	20781
896.376	20651
896.498	20716
896.619	20712
896.74	20735
896.861	20792
896.982	20994
897.103	21256
897.224	21066
897.345	20933
897.466	20937
897.587	21009
897.708	20941
897.828	20990
897.949	20941
898.07	20845
898.19	20918
898.311	21032
898.431	20914
898.552	20921
898.672	21009
898.792	20918
898.913	20986
899.033	20785
899.153	20769
899.273	20693
899.393	20750
899.513	20716
899.633	20724
899.753	20857
899.873	20602
899.993	20746
900.113	20674
900.232	20674
900.352	20602
900.472	20629
900.591	20507
900.711	20434
900.83	20366
900.95	20495
901.069	20678
901.189	20328
901.308	20122
901.427	19993
901.546	20016
901.665	19982
901.784	20050
901.904	19875
902.023	19818
902.141	19540
902.26	19544
902.379	19597
902.498	19719
902.617	19559
902.735	19662
902.854	19441
902.973	19514
903.091	19141
903.21	19217
903.328	19141
903.446	19141
903.565	19046
903.683	19008
903.801	18913
903.919	18989
904.038	19080
904.156	18738
904.274	18848
904.392	18852
904.51	18734
904.627	18635
904.745	18817
904.863	18840
904.981	18574
905.098	18429
905.216	18490
905.334	18490
905.451	18414
905.569	18296
905.686	18422
905.803	18407
905.921	18224
906.038	18338
906.155	18205
906.272	17996
906.389	18098
906.506	18011
906.623	17916
906.74	17942
906.857	17950
906.974	17802
907.091	17988
907.208	18171
907.324	17980
907.441	17950
907.557	17676
907.674	17630
907.79	17657
907.907	17623
908.023	17623
908.139	17687
908.256	17604
908.372	17642
908.488	17577
908.604	17433
908.72	17471
908.836	17452
908.952	17387
909.068	17368
909.184	17493
909.3	17387
909.415	17474
909.531	17501
909.647	17166
909.762	17094
909.878	17083
909.993	17189
910.108	17113
910.224	16972
910.339	17052
910.454	16987
910.57	17003
910.685	16919
910.8	17071
910.915	17064
911.03	16908
911.145	16713
911.259	16656
911.374	16721
911.489	16698
911.604	16504
911.718	16394
911.833	16497
911.947	16314
912.062	16333
912.176	16493
912.291	16569
912.405	16375
912.519	16725
912.633	16672
912.748	16466
912.862	16504
912.976	16276
913.09	16074
913.204	16196
913.318	16341
913.431	16409
913.545	16341
913.659	16337
913.772	16150
913.886	16173
914	16124
914.113	16215
914.226	16093
914.34	16105
914.453	15934
914.566	16067
914.68	15956
914.793	15941
914.906	15759
915.019	15663
915.132	15561
915.245	15709
915.358	15682
915.47	15648
915.583	15629
915.696	15671
915.809	15743
915.921	15728
916.034	15572
916.146	15538
916.259	15481
916.371	15587
916.483	15663
916.595	15504
916.708	15485
916.82	15416
916.932	15443
917.044	15420
917.156	15363
917.268	15283
917.38	15332
917.491	15336
917.603	15348
917.715	15420
917.826	15428
917.938	15142
918.049	15180
918.161	15226
918.272	15336
918.384	15321
918.495	15199
918.606	15070
918.717	15013
918.828	14982
918.939	15036
919.05	14933
919.161	15001
919.272	14830
919.383	14807
919.494	15032
919.604	15222
919.715	14979
919.826	14906
919.936	14937
920.047	15036
920.157	15043
920.267	15131
920.378	14944
920.488	14929
920.598	15074
920.708	15298
920.818	15085
920.928	15176
921.038	15237
921.148	15188
921.258	14933
921.368	14811
921.477	14705
921.587	14743
921.697	14568
921.806	14724
921.916	14492
922.025	14343
922.134	14320
922.244	14324
922.353	14343
922.462	14237
922.571	14183
922.68	14077
922.789	13989
922.898	13970
923.007	13917
923.116	13944
923.224	13986
923.333	13940
923.442	13864
923.55	13826
923.659	13921
923.767	13932
923.876	13765
923.984	13841
924.092	13738
924.201	13731
924.309	13738
924.417	13734
924.525	13700
924.633	13700
924.741	14476
924.849	13400
924.956	13537
925.064	13449
925.172	13297
925.279	13415
925.387	13369
925.494	13426
925.602	13468
925.709	13422
925.816	13171
925.924	13365
926.031	13343
926.138	13339
926.245	13460
926.352	13244
926.459	13358
926.566	13472
926.673	13213
926.779	13149
926.886	13179
926.993	12970
927.099	13046
927.206	12996
927.312	12897
927.419	13004
927.525	12935
927.631	12943
927.737	12833
927.843	12791
927.95	12658
928.056	12757
928.162	12783
928.267	12871
928.373	13411
928.479	12840
928.585	12547
928.69	12677
928.796	12768
928.901	12574
929.007	12517
929.112	12597
929.218	12585
929.323	12486
929.428	12479
929.533	12654
929.638	12384
929.743	12429
929.848	12422
929.953	12365
930.058	12281
930.163	12136
930.267	12095
930.372	12292
930.477	12152
930.581	12304
930.685	12140
930.79	11992
930.894	12041
930.998	11984
931.103	12125
931.207	11794
931.311	11707
931.415	11653
931.519	11436
931.623	11433
