Data from test_V78500241_3318.txt Node
Date: Fri Mar 25 16:04:47 CST 2022
User: usil
Spectrometer: V785-0024
Trigger mode: 0
Integration Time (sec): 4.000000E-1
Scans to average: 1
Nonlinearity correction enabled: false
Boxcar width: 0
Storing dark spectrum: false
XAxis mode: Wavelengths
Number of Pixels in Spectrum: 1024
>>>>>Begin Spectral Data<<<<<
801.071	28679
801.214	28626
801.356	28561
801.499	28337
801.641	28207
801.783	28291
801.926	28360
802.068	28162
802.211	28268
802.353	28272
802.496	27964
802.638	28097
802.78	27934
802.923	27953
803.065	27903
803.208	28017
803.35	28025
803.492	28010
803.635	28093
803.777	28093
803.919	28200
804.061	28554
804.204	28306
804.346	28169
804.488	28177
804.63	28287
804.773	28109
804.915	28268
805.057	28200
805.199	28226
805.341	28261
805.483	28390
805.626	28280
805.768	28200
805.91	28329
806.052	28451
806.194	28268
806.336	28504
806.478	28474
806.62	28401
806.762	28523
806.904	28660
807.046	29025
807.188	28774
807.33	28816
807.472	28835
807.614	28698
807.756	28771
807.898	28675
808.04	28607
808.182	28481
808.324	28645
808.465	28797
808.607	28839
808.749	29124
808.891	29235
809.033	29288
809.174	29109
809.316	28987
809.458	28968
809.6	29006
809.741	29185
809.883	29121
810.025	29288
810.166	29311
810.308	29406
810.45	29273
810.591	29235
810.733	29109
810.875	29086
811.016	28953
811.158	28957
811.299	29227
811.441	29178
811.582	29143
811.724	29216
811.865	28991
812.007	28987
812.148	29056
812.29	29155
812.431	29200
812.573	29402
812.714	29425
812.855	29482
812.997	29566
813.138	29916
813.279	29623
813.421	29596
813.562	29642
813.703	29402
813.845	29288
813.986	29033
814.127	29048
814.268	28793
814.41	28774
814.551	28786
814.692	28816
814.833	28656
814.974	28725
815.115	28793
815.256	28710
815.397	28786
815.539	28630
815.68	28675
815.821	28588
815.962	28702
816.103	28630
816.244	28432
816.385	28390
816.526	28322
816.666	28268
816.807	28029
816.948	28101
817.089	28131
817.23	28219
817.371	28013
817.512	28173
817.653	28070
817.793	28112
817.934	28090
818.075	27987
818.216	28128
818.356	28074
818.497	27956
818.638	27930
818.778	27819
818.919	27819
819.06	27873
819.2	27987
819.341	28048
819.481	28120
819.622	28344
819.762	28436
819.903	28440
820.043	28299
820.184	28265
820.324	28249
820.465	28299
820.605	28398
820.746	28169
820.886	27972
821.026	28299
821.167	28265
821.307	28177
821.447	28074
821.588	28040
821.728	27816
821.868	27842
822.008	27576
822.149	27603
822.289	27534
822.429	27412
822.569	27272
822.709	27218
822.849	27180
822.99	27020
823.13	27039
823.27	27013
823.41	27055
823.55	26868
823.69	26826
823.83	26872
823.97	26758
824.11	26701
824.25	26777
824.389	26743
824.529	26708
824.669	26689
824.809	26754
824.949	26876
825.089	26811
825.228	26880
825.368	26720
825.508	26583
825.648	26568
825.787	26674
825.927	26632
826.067	26560
826.206	26575
826.346	26613
826.485	26636
826.625	26659
826.765	26746
826.904	26655
827.044	26438
827.183	26366
827.323	26294
827.462	26423
827.601	26309
827.741	26393
827.88	26431
828.02	26290
828.159	26370
828.298	26381
828.437	26457
828.577	26191
828.716	26552
828.855	26328
828.994	25887
829.134	26126
829.273	26024
829.412	26092
829.551	25966
829.69	26039
829.829	26081
829.968	26062
830.107	26043
830.246	26024
830.385	26031
830.524	25970
830.663	25860
830.802	25624
830.941	25647
831.08	25559
831.219	25757
831.357	25666
831.496	25871
831.635	25556
831.774	25616
831.913	25639
832.051	25483
832.19	25384
832.329	25316
832.467	25411
832.606	25194
832.744	25198
832.883	25282
833.022	25019
833.16	25358
833.299	25362
833.437	25331
833.576	25441
833.714	25327
833.852	25381
833.991	25491
834.129	25384
834.267	25255
834.406	25362
834.544	25396
834.682	25324
834.821	25263
834.959	25613
835.097	25274
835.235	25449
835.373	25377
835.511	25335
835.65	25289
835.788	25206
835.926	25114
836.064	24966
836.202	25065
836.34	25084
836.478	25304
836.615	25148
836.753	25133
836.891	25324
837.029	25175
837.167	25057
837.305	25084
837.443	25103
837.58	24958
837.718	25004
837.856	25061
837.993	24954
838.131	24897
838.269	24913
838.406	24901
838.544	24837
838.681	24681
838.819	24608
838.956	24323
839.094	24475
839.231	24483
839.369	24696
839.506	24795
839.643	24787
839.781	24445
839.918	24410
840.055	24585
840.193	24525
840.33	24460
840.467	24422
840.604	24384
840.742	24673
840.879	24171
841.016	24258
841.153	24338
841.29	24456
841.427	24357
841.564	24388
841.701	24445
841.838	24334
841.975	24125
842.112	24311
842.249	24300
842.385	24197
842.522	24399
842.659	24327
842.796	24129
842.933	24262
843.069	24121
843.206	24148
843.343	24163
843.479	24155
843.616	24098
843.752	23889
843.889	23904
844.025	24076
844.162	23901
844.298	23980
844.435	24026
844.571	23798
844.708	23901
844.844	24110
844.98	24068
845.117	24041
845.253	23893
845.389	23828
845.525	23855
845.661	23764
845.798	23585
845.934	23680
846.07	23687
846.206	23817
846.342	23764
846.478	23775
846.614	23535
846.75	23391
846.886	23318
847.022	23486
847.158	23429
847.294	23421
847.429	23444
847.565	23292
847.701	23623
847.837	23162
847.972	23022
848.108	23269
848.244	23288
848.379	23037
848.515	22896
848.65	23060
848.786	22908
848.921	23060
849.057	23033
849.192	23052
849.328	23121
849.463	22793
849.598	22869
849.734	22812
849.869	22786
850.004	22927
850.14	22835
850.275	22763
850.41	22664
850.545	22596
850.68	22577
850.815	22721
850.95	22778
851.085	22946
851.22	22812
851.355	22733
851.49	22637
851.625	22725
851.76	22740
851.895	22592
852.03	22706
852.165	22793
852.299	22862
852.434	22892
852.569	22736
852.703	22721
852.838	22672
852.973	22862
853.107	22809
853.242	22755
853.376	22554
853.511	22531
853.645	22557
853.78	22679
853.914	22527
854.048	22550
854.183	22577
854.317	22550
854.451	22691
854.585	22573
854.72	22527
854.854	22622
854.988	22516
855.122	22538
855.256	22512
855.39	22630
855.524	22565
855.658	22626
855.792	22554
855.926	22538
856.06	22538
856.194	22630
856.327	22466
856.461	22561
856.595	22497
856.729	22580
856.862	22812
856.996	22615
857.13	22550
857.263	22618
857.397	22660
857.53	22508
857.664	22470
857.797	22550
857.931	22519
858.064	22390
858.197	22679
858.331	22436
858.464	22329
858.597	22413
858.731	22508
858.864	22470
858.997	22459
859.13	22569
859.263	22512
859.396	22516
859.529	22565
859.662	22451
859.795	22409
859.928	22588
860.061	22645
860.194	22797
860.327	22603
860.46	22550
860.592	22698
860.725	22767
860.858	22729
860.99	22584
861.123	22443
861.256	22531
861.388	22550
861.521	23269
861.653	22386
861.786	22360
861.918	22371
862.05	22440
862.183	22493
862.315	22421
862.447	22573
862.58	22459
862.712	22268
862.844	22219
862.976	22314
863.108	22333
863.24	22736
863.372	22215
863.504	22276
863.636	22337
863.768	22226
863.9	22257
864.032	22101
864.164	22177
864.296	22230
864.428	22379
864.559	22249
864.691	22322
864.823	22215
864.954	22211
865.086	22211
865.217	22219
865.349	22124
865.48	22135
865.612	22090
865.743	22261
865.875	22253
866.006	22070
866.137	22147
866.269	22040
866.4	22006
866.531	22067
866.662	22048
866.793	22063
866.924	22017
867.055	22051
867.186	22097
867.317	22055
867.448	21972
867.579	22017
867.71	21964
867.841	21972
867.972	22013
868.103	22109
868.233	22032
868.364	22063
868.495	22063
868.625	22306
868.756	22508
868.886	22154
869.017	22329
869.147	22417
869.278	22386
869.408	22352
869.539	22249
869.669	22352
869.799	22360
869.929	22462
870.06	22352
870.19	22634
870.32	22561
870.45	22622
870.58	22713
870.71	22736
870.84	22831
870.97	22702
871.1	22790
871.23	22919
871.36	22953
871.489	22889
871.619	22877
871.749	22968
871.879	22843
872.008	22968
872.138	22938
872.267	23037
872.397	22862
872.526	22786
872.656	22816
872.785	22672
872.915	23113
873.044	23052
873.173	22869
873.303	22949
873.432	22934
873.561	22972
873.69	23018
873.819	22991
873.948	23003
874.077	22927
874.206	22858
874.335	22915
874.464	23064
874.593	23090
874.722	23060
874.851	23162
874.979	23185
875.108	23178
875.237	23041
875.365	23189
875.494	23155
875.623	23132
875.751	23044
875.88	23022
876.008	23242
876.136	23379
876.265	23592
876.393	23710
876.521	23642
876.65	23551
876.778	23615
876.906	23668
877.034	23478
877.162	23425
877.29	23448
877.418	23520
877.546	23524
877.674	23433
877.802	23570
877.93	23573
878.058	23406
878.185	23356
878.313	23341
878.441	23474
878.568	23273
878.696	23455
878.824	23581
878.951	23600
879.079	23668
879.206	23737
879.333	23444
879.461	23455
879.588	23570
879.715	23653
879.842	23665
879.97	23570
880.097	23292
880.224	23216
880.351	23433
880.478	23292
880.605	23318
880.732	23326
880.859	23486
880.986	23349
881.112	23337
881.239	23105
881.366	23033
881.493	22999
881.619	22809
881.746	22949
881.872	22942
881.999	22767
882.125	22767
882.252	22946
882.378	22869
882.505	23006
882.631	22641
882.757	22721
882.883	22569
883.01	22554
883.136	22470
883.262	22375
883.388	22409
883.514	22577
883.64	22637
883.766	22443
883.892	22303
884.018	22371
884.143	22516
884.269	22523
884.395	22371
884.52	22078
884.646	22265
884.772	22044
884.897	22154
885.023	22143
885.148	22284
885.274	22322
885.399	22287
885.524	22242
885.65	22154
885.775	22242
885.9	22150
886.025	22188
886.15	22310
886.275	21979
886.4	21964
886.525	22090
886.65	22078
886.775	22067
886.9	22291
887.025	22352
887.149	22044
887.274	21926
887.399	21880
887.523	21869
887.648	21972
887.773	21876
887.897	21994
888.021	22010
888.146	21743
888.27	22063
888.395	21922
888.519	21922
888.643	21907
888.767	21987
888.891	21888
889.015	21747
889.139	21736
889.263	21614
889.387	21739
889.511	22055
889.635	21766
889.759	21686
889.883	21713
890.006	21739
890.13	21930
890.254	21549
890.377	21599
890.501	21397
890.624	21504
890.748	21507
890.871	21355
890.995	21298
891.118	21252
891.241	21291
891.364	21291
891.488	21279
891.611	21260
891.734	21233
891.857	21367
891.98	21211
892.103	21397
892.226	21355
892.349	21138
892.471	20956
892.594	21222
892.717	21192
892.839	21135
892.962	21173
893.085	21245
893.207	21081
893.33	21119
893.452	20967
893.575	21260
893.697	21218
893.819	21313
893.941	21431
894.064	21165
894.186	21100
894.308	21093
894.43	21218
894.552	21298
894.674	21291
894.796	21058
894.918	21199
895.04	21070
895.161	21093
895.283	21207
895.405	21013
895.526	21180
895.648	21055
895.769	21017
895.891	21123
896.012	21058
896.134	21218
896.255	21112
896.376	21043
896.498	21100
896.619	21233
896.74	21127
896.861	21195
896.982	21466
897.103	21534
897.224	21382
897.345	21344
897.466	21359
897.587	21359
897.708	21370
897.828	21363
897.949	21382
898.07	21256
898.19	21256
898.311	21367
898.431	21237
898.552	21268
898.672	21306
898.792	21344
898.913	21370
899.033	21241
899.153	21085
899.273	20990
899.393	21142
899.513	21066
899.633	21051
899.753	21036
899.873	20941
899.993	21100
900.113	21020
900.232	20967
900.352	20963
900.472	20910
900.591	20826
900.711	20746
900.83	20868
900.95	20811
901.069	20883
901.189	20781
901.308	20469
901.427	20408
901.546	20317
901.665	20389
901.784	20427
901.904	20278
902.023	20172
902.141	19890
902.26	19894
902.379	19906
902.498	19864
902.617	19723
902.735	19940
902.854	19864
902.973	19761
903.091	19552
903.21	19476
903.328	19445
903.446	19464
903.565	19316
903.683	19441
903.801	19160
903.919	19289
904.038	19266
904.156	19080
904.274	19160
904.392	19133
904.51	19038
904.627	19213
904.745	19072
904.863	19187
904.981	18848
905.098	18646
905.216	18783
905.334	18760
905.451	18905
905.569	18825
905.686	18875
905.803	18715
905.921	18589
906.038	18677
906.155	18608
906.272	18467
906.389	18365
906.506	18304
906.623	18319
906.74	18319
906.857	18201
906.974	18281
907.091	18353
907.208	18350
907.324	18350
907.441	18148
907.557	17954
907.674	18026
907.79	17954
907.907	17992
908.023	17958
908.139	17980
908.256	17961
908.372	17965
908.488	17851
908.604	17786
908.72	17695
908.836	17748
908.952	17623
909.068	17707
909.184	17851
909.3	17783
909.415	17779
909.531	17695
909.647	17478
909.762	17410
909.878	17337
909.993	17398
910.108	17433
910.224	17414
910.339	17334
910.454	17216
910.57	17239
910.685	17166
910.8	17448
910.915	17406
911.03	17311
911.145	17029
911.259	16930
911.374	16976
911.489	16904
911.604	16824
911.718	16649
911.833	16752
911.947	16713
912.062	16527
912.176	16786
912.291	16744
912.405	16854
912.519	16961
912.633	16854
912.748	16790
912.862	16687
912.976	16519
913.09	16493
913.204	16375
913.318	16603
913.431	16554
913.545	16611
913.659	16565
913.772	16542
913.886	16424
914	16348
914.113	16402
914.226	16409
914.34	16375
914.453	16162
914.566	16436
914.68	16238
914.793	16101
914.906	16002
915.019	15915
915.132	15838
915.245	15915
915.358	15838
915.47	15899
915.583	15956
915.696	15835
915.809	15972
915.921	16002
916.034	15770
916.146	15812
916.259	15869
916.371	15930
916.483	15793
916.595	15717
916.708	15732
916.82	15682
916.932	15728
917.044	15644
917.156	15591
917.268	15622
917.38	15698
917.491	15568
917.603	15530
917.715	15622
917.826	15610
917.938	15355
918.049	15378
918.161	15454
918.272	15629
918.384	15519
918.495	15439
918.606	15344
918.717	15279
918.828	15264
918.939	15195
919.05	15154
919.161	15241
919.272	15070
919.383	15180
919.494	15306
919.604	15454
919.715	15245
919.826	15188
919.936	15077
920.047	15363
920.157	15214
920.267	15454
920.378	15283
920.488	15119
920.598	15389
920.708	15408
920.818	15283
920.928	15329
921.038	15526
921.148	15412
921.258	15150
921.368	15093
921.477	14902
921.587	14960
921.697	14785
921.806	14967
921.916	14708
922.025	14594
922.134	14590
922.244	14629
922.353	14583
922.462	14343
922.571	14377
922.68	14263
922.789	14225
922.898	14290
923.007	14202
923.116	14225
923.224	14157
923.333	14225
923.442	14062
923.55	14062
923.659	14073
923.767	14020
923.876	13898
923.984	14054
924.092	13871
924.201	13898
924.309	13875
924.417	13898
924.525	13947
924.633	13883
924.741	14792
924.849	13704
924.956	13803
925.064	13696
925.172	13597
925.279	13533
925.387	13674
925.494	13571
925.602	13822
925.709	13639
925.816	13419
925.924	13540
926.031	13704
926.138	13521
926.245	13567
926.352	13426
926.459	13518
926.566	13571
926.673	13506
926.779	13297
926.886	13301
926.993	13202
927.099	13091
927.206	13114
927.312	13061
927.419	13164
927.525	13133
927.631	13236
927.737	12989
927.843	12985
927.95	12920
928.056	12924
928.162	12962
928.267	13000
928.373	13556
928.479	13015
928.585	12768
928.69	12901
928.796	12833
928.901	12753
929.007	12639
929.112	12852
929.218	12772
929.323	12662
929.428	12684
929.533	12806
929.638	12635
929.743	12608
929.848	12635
929.953	12673
930.058	12464
930.163	12365
930.267	12407
930.372	12471
930.477	12235
930.581	12486
930.685	12357
930.79	12300
930.894	12220
930.998	12129
931.103	12273
931.207	11859
931.311	11855
931.415	11832
931.519	11611
931.623	11551
