Data from test_V78500241_1562.txt Node
Date: Fri Mar 25 15:52:37 CST 2022
User: usil
Spectrometer: V785-0024
Trigger mode: 0
Integration Time (sec): 4.000000E-1
Scans to average: 1
Nonlinearity correction enabled: false
Boxcar width: 0
Storing dark spectrum: false
XAxis mode: Wavelengths
Number of Pixels in Spectrum: 1024
>>>>>Begin Spectral Data<<<<<
801.071	28025
801.214	27823
801.356	27770
801.499	27717
801.641	27530
801.783	27599
801.926	27633
802.068	27667
802.211	27526
802.353	27443
802.496	27523
802.638	27355
802.78	27123
802.923	27112
803.065	27131
803.208	27256
803.35	27237
803.492	27329
803.635	27370
803.777	27412
803.919	27447
804.061	27675
804.204	27576
804.346	27477
804.488	27332
804.63	27424
804.773	27348
804.915	27542
805.057	27568
805.199	27370
805.341	27538
805.483	27629
805.626	27610
805.768	27587
805.91	27644
806.052	27530
806.194	27614
806.336	27724
806.478	27637
806.62	27595
806.762	27652
806.904	27865
807.046	28109
807.188	28105
807.33	28048
807.472	28067
807.614	28059
807.756	27998
807.898	28006
808.04	27747
808.182	27987
808.324	27994
808.465	28051
808.607	28116
808.749	28303
808.891	28276
809.033	28348
809.174	28150
809.316	28303
809.458	28223
809.6	28261
809.741	28421
809.883	28512
810.025	28504
810.166	28451
810.308	28542
810.45	28523
810.591	28440
810.733	28265
810.875	28314
811.016	28276
811.158	28120
811.299	28257
811.441	28375
811.582	28322
811.724	28112
811.865	28295
812.007	28101
812.148	28192
812.29	28337
812.431	28341
812.573	28527
812.714	28550
812.855	28744
812.997	28942
813.138	28934
813.279	28976
813.421	28622
813.562	28675
813.703	28706
813.845	28447
813.986	28097
814.127	27972
814.268	27926
814.41	27892
814.551	27968
814.692	28112
814.833	27884
814.974	28002
815.115	27895
815.256	27686
815.397	27816
815.539	27827
815.68	27720
815.821	27595
815.962	27682
816.103	27766
816.244	27500
816.385	27523
816.526	27469
816.666	27287
816.807	27074
816.948	27230
817.089	27420
817.23	27188
817.371	27245
817.512	27211
817.653	27169
817.793	27005
817.934	27226
818.075	27222
818.216	27199
818.356	27150
818.497	27161
818.638	26933
818.778	26887
818.919	26952
819.06	26998
819.2	26982
819.341	27074
819.481	27226
819.622	27363
819.762	27580
819.903	27534
820.043	27336
820.184	27397
820.324	27298
820.465	27412
820.605	27416
820.746	27287
820.886	27192
821.026	27283
821.167	27306
821.307	27378
821.447	27241
821.588	27218
821.728	26899
821.868	26887
822.008	26716
822.149	26792
822.289	26617
822.429	26347
822.569	26473
822.709	26412
822.849	26180
822.99	26225
823.13	26290
823.27	26233
823.41	26005
823.55	25940
823.69	26001
823.83	26088
823.97	26027
824.11	25822
824.25	25769
824.389	25860
824.529	25978
824.669	25890
824.809	26046
824.949	25997
825.089	26008
825.228	25944
825.368	25734
825.508	25811
825.648	25750
825.787	25856
825.927	25761
826.067	25746
826.206	25643
826.346	25856
826.485	25898
826.625	25811
826.765	25856
826.904	25814
827.044	25571
827.183	25518
827.323	25392
827.462	25521
827.601	25483
827.741	25373
827.88	25297
828.02	25206
828.159	25377
828.298	25464
828.437	25411
828.577	25346
828.716	25544
828.855	25293
828.994	25148
829.134	25095
829.273	25065
829.412	25031
829.551	25114
829.69	25194
829.829	25107
829.968	25091
830.107	25228
830.246	25202
830.385	25107
830.524	25080
830.663	24882
830.802	24776
830.941	24684
831.08	24620
831.219	24768
831.357	24791
831.496	25050
831.635	24798
831.774	24684
831.913	24654
832.051	24490
832.19	24528
832.329	24555
832.467	24361
832.606	24270
832.744	24448
832.883	24422
833.022	24391
833.16	24319
833.299	24418
833.437	24494
833.576	24555
833.714	24555
833.852	24528
833.991	24437
834.129	24547
834.267	24471
834.406	24414
834.544	24498
834.682	24464
834.821	24505
834.959	24661
835.097	24289
835.235	24525
835.373	24445
835.511	24475
835.65	24285
835.788	24338
835.926	24163
836.064	24026
836.202	24045
836.34	24353
836.478	24281
836.615	24205
836.753	24178
836.891	24300
837.029	24350
837.167	24247
837.305	24182
837.443	24182
837.58	24163
837.718	24251
837.856	24098
837.993	23992
838.131	24136
838.269	24026
838.406	23996
838.544	24045
838.681	23840
838.819	23809
838.956	23520
839.094	23531
839.231	23615
839.369	23600
839.506	23988
839.643	23767
839.781	23672
839.918	23551
840.055	23585
840.193	23642
840.33	23528
840.467	23463
840.604	23486
840.742	23775
840.879	23528
841.016	23497
841.153	23395
841.29	23497
841.427	23391
841.564	23474
841.701	23478
841.838	23471
841.975	23349
842.112	23429
842.249	23436
842.385	23250
842.522	23425
842.659	23277
842.796	23231
842.933	23311
843.069	23159
843.206	23128
843.343	23341
843.479	23265
843.616	23227
843.752	22976
843.889	23128
844.025	23086
844.162	22763
844.298	23162
844.435	23048
844.571	22976
844.708	23166
844.844	23064
844.98	23174
845.117	23056
845.253	22984
845.389	23003
845.525	22915
845.661	22889
845.798	22752
845.934	22771
846.07	22854
846.206	22733
846.342	22965
846.478	22793
846.614	22626
846.75	22367
846.886	22443
847.022	22535
847.158	22599
847.294	22542
847.429	22584
847.565	22508
847.701	22645
847.837	22200
847.972	22211
848.108	22428
848.244	22280
848.379	22185
848.515	22166
848.65	22143
848.786	22055
848.921	21987
849.057	22272
849.192	22246
849.328	22101
849.463	22147
849.598	22021
849.734	21991
849.869	21884
850.004	21819
850.14	21869
850.275	21892
850.41	21781
850.545	21660
850.68	21949
850.815	21797
850.95	21949
851.085	22059
851.22	21918
851.355	21854
851.49	21804
851.625	21819
851.76	21850
851.895	21739
852.03	21793
852.165	21880
852.299	21835
852.434	21945
852.569	21762
852.703	21842
852.838	21915
852.973	21926
853.107	21941
853.242	21709
853.376	21823
853.511	21618
853.645	21675
853.78	21850
853.914	21793
854.048	21606
854.183	21557
854.317	21660
854.451	21831
854.585	21618
854.72	21599
854.854	21907
854.988	21641
855.122	21633
855.256	21576
855.39	21633
855.524	21690
855.658	21652
855.792	21751
855.926	21724
856.06	21667
856.194	21736
856.327	21641
856.461	21648
856.595	21606
856.729	21564
856.862	21747
856.996	21701
857.13	21587
857.263	21660
857.397	21770
857.53	21610
857.664	21583
857.797	21793
857.931	21648
858.064	21720
858.197	21812
858.331	21583
858.464	21667
858.597	21553
858.731	21583
858.864	21663
858.997	21542
859.13	21545
859.263	21637
859.396	21698
859.529	21625
859.662	21713
859.795	21667
859.928	21629
860.061	21884
860.194	21915
860.327	21770
860.46	21701
860.592	21838
860.725	21823
860.858	21720
860.99	21728
861.123	21576
861.256	21519
861.388	21682
861.521	22166
861.653	21557
861.786	21511
861.918	21439
862.05	21648
862.183	21637
862.315	21625
862.447	21648
862.58	21595
862.712	21374
862.844	21393
862.976	21526
863.108	21408
863.24	21899
863.372	21382
863.504	21382
863.636	21439
863.768	21462
863.9	21458
864.032	21336
864.164	21252
864.296	21401
864.428	21473
864.559	21393
864.691	21496
864.823	21291
864.954	21389
865.086	21256
865.217	21355
865.349	21161
865.48	21260
865.612	21237
865.743	21351
865.875	21275
866.006	21241
866.137	21195
866.269	21298
866.4	21207
866.531	21306
866.662	21131
866.793	21089
866.924	21279
867.055	21226
867.186	21241
867.317	21093
867.448	21211
867.579	21138
867.71	21108
867.841	21093
867.972	21222
868.103	21237
868.233	21173
868.364	21218
868.495	21241
868.625	21351
868.756	21576
868.886	21378
869.017	21401
869.147	21496
869.278	21641
869.408	21405
869.539	21447
869.669	21439
869.799	21641
869.929	21515
870.06	21610
870.19	21781
870.32	21686
870.45	21724
870.58	21800
870.71	21926
870.84	21964
870.97	21785
871.1	21956
871.23	21964
871.36	22131
871.489	21949
871.619	22074
871.749	22036
871.879	22021
872.008	22147
872.138	22040
872.267	22013
872.397	21884
872.526	21869
872.656	21842
872.785	21831
872.915	21968
873.044	22116
873.173	22032
873.303	22158
873.432	22249
873.561	22120
873.69	22090
873.819	21960
873.948	22090
874.077	22006
874.206	21983
874.335	22044
874.464	22166
874.593	22280
874.722	22253
874.851	22249
874.979	22261
875.108	22306
875.237	22234
875.365	22162
875.494	22207
875.623	22367
875.751	22253
875.88	22325
876.008	22417
876.136	22455
876.265	22679
876.393	22755
876.521	22889
876.65	22866
876.778	22713
876.906	22626
877.034	22561
877.162	22527
877.29	22668
877.418	22668
877.546	22527
877.674	22637
877.802	22573
877.93	22577
878.058	22516
878.185	22588
878.313	22588
878.441	22546
878.568	22451
878.696	22554
878.824	22599
878.951	22683
879.079	22816
879.206	22930
879.333	22755
879.461	22748
879.588	22752
879.715	22809
879.842	22862
879.97	22755
880.097	22470
880.224	22341
880.351	22356
880.478	22417
880.605	22329
880.732	22504
880.859	22538
880.986	22466
881.112	22405
881.239	22329
881.366	22116
881.493	22139
881.619	21979
881.746	22070
881.872	22025
881.999	22059
882.125	21960
882.252	22063
882.378	21888
882.505	22032
882.631	21785
882.757	21797
882.883	21800
883.01	21694
883.136	21717
883.262	21583
883.388	21538
883.514	21622
883.64	21762
883.766	21462
883.892	21519
884.018	21450
884.143	21690
884.269	21800
884.395	21420
884.52	21260
884.646	21428
884.772	21348
884.897	21150
885.023	21321
885.148	21405
885.274	21614
885.399	21466
885.524	21401
885.65	21454
885.775	21363
885.9	21230
886.025	21496
886.15	21275
886.275	21386
886.4	21252
886.525	21226
886.65	21188
886.775	21268
886.9	21466
887.025	21420
887.149	21351
887.274	21222
887.399	21131
887.523	21142
887.648	20998
887.773	20868
887.897	21135
888.021	21043
888.146	20948
888.27	21237
888.395	21150
888.519	21218
888.643	21100
888.767	21039
888.891	21070
889.015	20971
889.139	20925
889.263	20845
889.387	21043
889.511	21020
889.635	20971
889.759	20952
889.883	20914
890.006	20967
890.13	20944
890.254	20838
890.377	20845
890.501	20640
890.624	20522
890.748	20636
890.871	20476
890.995	20530
891.118	20431
891.241	20473
891.364	20514
891.488	20575
891.611	20400
891.734	20495
891.857	20587
891.98	20469
892.103	20499
892.226	20427
892.349	20412
892.471	20298
892.594	20332
892.717	20393
892.839	20320
892.962	20343
893.085	20400
893.207	20461
893.33	20324
893.452	20347
893.575	20480
893.697	20400
893.819	20526
893.941	20514
894.064	20533
894.186	20275
894.308	20278
894.43	20442
894.552	20412
894.674	20438
894.796	20210
894.918	20362
895.04	20233
895.161	20423
895.283	20419
895.405	20412
895.526	20317
895.648	20301
895.769	20374
895.891	20461
896.012	20518
896.134	20423
896.255	20423
896.376	20320
896.498	20438
896.619	20396
896.74	20221
896.861	20511
896.982	20644
897.103	20655
897.224	20598
897.345	20530
897.466	20602
897.587	20446
897.708	20796
897.828	20640
897.949	20556
898.07	20457
898.19	20560
898.311	20670
898.431	20404
898.552	20579
898.672	20594
898.792	20667
898.913	20556
899.033	20495
899.153	20294
899.273	20168
899.393	20396
899.513	20210
899.633	20301
899.753	20518
899.873	20218
899.993	20412
900.113	20298
900.232	20412
900.352	20183
900.472	20210
900.591	20077
900.711	20168
900.83	19978
900.95	20119
901.069	20145
901.189	20027
901.308	19852
901.427	19746
901.546	19685
901.665	19704
901.784	19666
901.904	19476
902.023	19529
902.141	19179
902.26	19221
902.379	19365
902.498	19221
902.617	19206
902.735	19289
902.854	19202
902.973	19057
903.091	18913
903.21	18939
903.328	18821
903.446	18749
903.565	18738
903.683	18555
903.801	18616
903.919	18627
904.038	18673
904.156	18433
904.274	18429
904.392	18502
904.51	18357
904.627	18441
904.745	18494
904.863	18456
904.981	18289
905.098	18140
905.216	18091
905.334	18174
905.451	18125
905.569	18064
905.686	18129
905.803	18197
905.921	17813
906.038	18068
906.155	17885
906.272	17741
906.389	17764
906.506	17638
906.623	17657
906.74	17642
906.857	17512
906.974	17520
907.091	17642
907.208	17764
907.324	17676
907.441	17471
907.557	17406
907.674	17204
907.79	17246
907.907	17231
908.023	17395
908.139	17379
908.256	17337
908.372	17337
908.488	17193
908.604	17105
908.72	17071
908.836	17018
908.952	17033
909.068	17166
909.184	17071
909.3	17060
909.415	17132
909.531	17113
909.647	16729
909.762	16763
909.878	16809
909.993	16790
910.108	16759
910.224	16843
910.339	16748
910.454	16561
910.57	16588
910.685	16451
910.8	16839
910.915	16759
911.03	16641
911.145	16379
911.259	16379
911.374	16306
911.489	16238
911.604	16230
911.718	16112
911.833	16204
911.947	15983
912.062	15895
912.176	16181
912.291	16147
912.405	16135
912.519	16234
912.633	16314
912.748	16169
912.862	16101
912.976	15911
913.09	15854
913.204	15865
913.318	15956
913.431	15994
913.545	16036
913.659	16097
913.772	15797
913.886	15698
914	15694
914.113	15755
914.226	15690
914.34	15701
914.453	15641
914.566	15789
914.68	15538
914.793	15637
914.906	15450
915.019	15317
915.132	15283
915.245	15279
915.358	15218
915.47	15397
915.583	15382
915.696	15313
915.809	15386
915.921	15466
916.034	15279
916.146	15218
916.259	15142
916.371	15245
916.483	15237
916.595	15169
916.708	15173
916.82	15077
916.932	15188
917.044	15135
917.156	15138
917.268	14975
917.38	15039
917.491	14891
917.603	14929
917.715	14986
917.826	15024
917.938	14994
918.049	14739
918.161	14883
918.272	15108
918.384	15051
918.495	14834
918.606	14762
918.717	14636
918.828	14746
918.939	14807
919.05	14564
919.161	14640
919.272	14495
919.383	14560
919.494	14735
919.604	14921
919.715	14716
919.826	14648
919.936	14670
920.047	14743
920.157	14746
920.267	14929
920.378	14739
920.488	14750
920.598	14807
920.708	14982
920.818	14750
920.928	14792
921.038	15024
921.148	14906
921.258	14610
921.368	14514
921.477	14495
921.587	14446
921.697	14275
921.806	14552
921.916	14286
922.025	14145
922.134	14058
922.244	14020
922.353	14149
922.462	13925
922.571	13822
922.68	13833
922.789	13639
922.898	13651
923.007	13658
923.116	13681
923.224	13712
923.333	13746
923.442	13499
923.55	13499
923.659	13559
923.767	13655
923.876	13487
923.984	13449
924.092	13324
924.201	13590
924.309	13453
924.417	13419
924.525	13301
924.633	13369
924.741	14320
924.849	13187
924.956	13221
925.064	13164
925.172	13000
925.279	13126
925.387	13202
925.494	13057
925.602	13259
925.709	13240
925.816	12947
925.924	13069
926.031	13050
926.138	13095
926.245	13137
926.352	12909
926.459	13088
926.566	13114
926.673	13053
926.779	12840
926.886	12958
926.993	12707
927.099	12650
927.206	12620
927.312	12563
927.419	12688
927.525	12563
927.631	12707
927.737	12544
927.843	12486
927.95	12391
928.056	12467
928.162	12494
928.267	12471
928.373	13171
928.479	12563
928.585	12296
928.69	12407
928.796	12509
928.901	12380
929.007	12171
929.112	12338
929.218	12357
929.323	12273
929.428	12186
929.533	12361
929.638	12133
929.743	12201
929.848	12277
929.953	12167
930.058	12011
930.163	11908
930.267	11821
930.372	12038
930.477	11893
930.581	12171
930.685	11874
930.79	11805
930.894	11790
930.998	11752
931.103	11885
931.207	11467
931.311	11497
931.415	11376
931.519	11140
931.623	11166
