Data from test_V78500241_2544.txt Node
Date: Fri Mar 25 15:59:25 CST 2022
User: usil
Spectrometer: V785-0024
Trigger mode: 0
Integration Time (sec): 4.000000E-1
Scans to average: 1
Nonlinearity correction enabled: false
Boxcar width: 0
Storing dark spectrum: false
XAxis mode: Wavelengths
Number of Pixels in Spectrum: 1024
>>>>>Begin Spectral Data<<<<<
801.071	28630
801.214	28497
801.356	28341
801.499	28371
801.641	28310
801.783	28242
801.926	28276
802.068	28173
802.211	28200
802.353	28147
802.496	28044
802.638	27975
802.78	28002
802.923	27964
803.065	27899
803.208	27850
803.35	27953
803.492	28230
803.635	28147
803.777	28105
803.919	28226
804.061	28535
804.204	28329
804.346	28112
804.488	28109
804.63	28139
804.773	28162
804.915	28158
805.057	28447
805.199	28234
805.341	28257
805.483	28249
805.626	28390
805.768	28303
805.91	28360
806.052	28500
806.194	28215
806.336	28557
806.478	28234
806.62	28310
806.762	28637
806.904	28675
807.046	28873
807.188	28736
807.33	28759
807.472	28946
807.614	28672
807.756	28721
807.898	28675
808.04	28656
808.182	28618
808.324	28557
808.465	28809
808.607	28869
808.749	28915
808.891	28999
809.033	29117
809.174	29159
809.316	28930
809.458	29086
809.6	28953
809.741	29124
809.883	29197
810.025	29372
810.166	29288
810.308	29345
810.45	29273
810.591	29170
810.733	29006
810.875	28934
811.016	28934
811.158	28843
811.299	29128
811.441	29189
811.582	29231
811.724	29147
811.865	29079
812.007	29022
812.148	29105
812.29	29140
812.431	29189
812.573	29231
812.714	29573
812.855	29501
812.997	29570
813.138	29695
813.279	29764
813.421	29482
813.562	29501
813.703	29288
813.845	29185
813.986	28896
814.127	28748
814.268	28748
814.41	28717
814.551	28664
814.692	28892
814.833	28698
814.974	28721
815.115	28801
815.256	28538
815.397	28599
815.539	28694
815.68	28489
815.821	28382
815.962	28588
816.103	28504
816.244	28497
816.385	28337
816.526	28314
816.666	28162
816.807	27899
816.948	28006
817.089	28226
817.23	28150
817.371	28006
817.512	27964
817.653	28032
817.793	27975
817.934	27930
818.075	28154
818.216	27945
818.356	27827
818.497	27922
818.638	27656
818.778	27895
818.919	27797
819.06	27762
819.2	27850
819.341	28116
819.481	27998
819.622	28166
819.762	28337
819.903	28242
820.043	28272
820.184	28219
820.324	28226
820.465	28188
820.605	28128
820.746	28215
820.886	28021
821.026	28291
821.167	28219
821.307	28200
821.447	28166
821.588	27918
821.728	27960
821.868	27671
822.008	27610
822.149	27599
822.289	27450
822.429	27283
822.569	27260
822.709	27245
822.849	27020
822.99	27020
823.13	26994
823.27	27024
823.41	26705
823.55	26792
823.69	26899
823.83	26796
823.97	26861
824.11	26682
824.25	26670
824.389	26689
824.529	26693
824.669	26663
824.809	26819
824.949	26830
825.089	26746
825.228	26807
825.368	26568
825.508	26473
825.648	26617
825.787	26667
825.927	26590
826.067	26644
826.206	26655
826.346	26545
826.485	26575
826.625	26739
826.765	26758
826.904	26568
827.044	26309
827.183	26450
827.323	26278
827.462	26446
827.601	26309
827.741	26431
827.88	26309
828.02	26206
828.159	26389
828.298	26370
828.437	26412
828.577	26244
828.716	26476
828.855	26111
828.994	26092
829.134	25940
829.273	26020
829.412	25776
829.551	25906
829.69	26050
829.829	26088
829.968	26122
830.107	26043
830.246	25993
830.385	25906
830.524	25814
830.663	25784
830.802	25761
830.941	25499
831.08	25594
831.219	25548
831.357	25666
831.496	25841
831.635	25563
831.774	25476
831.913	25343
832.051	25324
832.19	25354
832.329	25438
832.467	25259
832.606	25327
832.744	25156
832.883	25168
833.022	25187
833.16	25270
833.299	25266
833.437	25274
833.576	25285
833.714	25343
833.852	25415
833.991	25293
834.129	25430
834.267	25304
834.406	25324
834.544	25422
834.682	25327
834.821	25282
834.959	25381
835.097	25278
835.235	25343
835.373	25377
835.511	25232
835.65	25190
835.788	25137
835.926	25114
836.064	24920
836.202	25019
836.34	25034
836.478	25350
836.615	25110
836.753	24992
836.891	25122
837.029	25122
837.167	25023
837.305	24977
837.443	24981
837.58	24962
837.718	25091
837.856	25019
837.993	24909
838.131	24958
838.269	24856
838.406	24901
838.544	24776
838.681	24585
838.819	24456
838.956	24559
839.094	24350
839.231	24456
839.369	24684
839.506	24840
839.643	24502
839.781	24475
839.918	24441
840.055	24353
840.193	24410
840.33	24334
840.467	24460
840.604	24418
840.742	24589
840.879	24247
841.016	24296
841.153	24194
841.29	24403
841.427	24357
841.564	24437
841.701	24330
841.838	24357
841.975	24292
842.112	24163
842.249	24167
842.385	24121
842.522	24327
842.659	24125
842.796	24083
842.933	24106
843.069	24015
843.206	24003
843.343	24152
843.479	24205
843.616	24129
843.752	23920
843.889	23954
844.025	24060
844.162	23942
844.298	23939
844.435	23855
844.571	23802
844.708	24003
844.844	24022
844.98	23904
845.117	24038
845.253	23748
845.389	23794
845.525	23760
845.661	23604
845.798	23524
845.934	23600
846.07	23547
846.206	23600
846.342	23653
846.478	23630
846.614	23349
846.75	23372
846.886	23349
847.022	23402
847.158	23318
847.294	23402
847.429	23410
847.565	23311
847.701	23539
847.837	23006
847.972	22862
848.108	23025
848.244	23124
848.379	22885
848.515	22885
848.65	22946
848.786	22904
848.921	22900
849.057	22908
849.192	23060
849.328	22900
849.463	22923
849.598	22744
849.734	22801
849.869	22596
850.004	22710
850.14	22687
850.275	22615
850.41	22588
850.545	22588
850.68	22592
850.815	22744
850.95	22584
851.085	22763
851.22	22725
851.355	22706
851.49	22729
851.625	22580
851.76	22626
851.895	22592
852.03	22542
852.165	22656
852.299	22664
852.434	22908
852.569	22615
852.703	22668
852.838	22706
852.973	22820
853.107	22824
853.242	22637
853.376	22622
853.511	22405
853.645	22527
853.78	22561
853.914	22561
854.048	22504
854.183	22363
854.317	22478
854.451	22607
854.585	22531
854.72	22402
854.854	22424
854.988	22413
855.122	22462
855.256	22405
855.39	22436
855.524	22516
855.658	22557
855.792	22500
855.926	22527
856.06	22516
856.194	22626
856.327	22508
856.461	22577
856.595	22500
856.729	22329
856.862	22569
856.996	22470
857.13	22565
857.263	22573
857.397	22596
857.53	22398
857.664	22489
857.797	22447
857.931	22653
858.064	22493
858.197	22504
858.331	22504
858.464	22417
858.597	22424
858.731	22596
858.864	22493
858.997	22417
859.13	22599
859.263	22535
859.396	22546
859.529	22462
859.662	22344
859.795	22459
859.928	22599
860.061	22580
860.194	22664
860.327	22622
860.46	22440
860.592	22573
860.725	22615
860.858	22508
860.99	22451
861.123	22474
861.256	22459
861.388	22459
861.521	23071
861.653	22185
861.786	22375
861.918	22329
862.05	22348
862.183	22443
862.315	22344
862.447	22561
862.58	22379
862.712	22181
862.844	22169
862.976	22303
863.108	22211
863.24	22660
863.372	22010
863.504	22234
863.636	22166
863.768	22166
863.9	22200
864.032	22078
864.164	22139
864.296	22207
864.428	22371
864.559	22219
864.691	22329
864.823	22257
864.954	22116
865.086	22204
865.217	22124
865.349	21979
865.48	22086
865.612	22090
865.743	22261
865.875	22036
866.006	22021
866.137	22105
866.269	22017
866.4	22147
866.531	21930
866.662	21972
866.793	21880
866.924	22112
867.055	21964
867.186	22070
867.317	21884
867.448	21941
867.579	21884
867.71	21895
867.841	21892
867.972	21895
868.103	21994
868.233	22044
868.364	21945
868.495	22010
868.625	22265
868.756	22268
868.886	22211
869.017	22242
869.147	22322
869.278	22462
869.408	22299
869.539	22124
869.669	22318
869.799	22356
869.929	22382
870.06	22333
870.19	22527
870.32	22512
870.45	22626
870.58	22588
870.71	22649
870.84	22603
870.97	22713
871.1	22653
871.23	22721
871.36	22805
871.489	22759
871.619	22847
871.749	22866
871.879	22869
872.008	22991
872.138	22790
872.267	22915
872.397	22801
872.526	22702
872.656	22577
872.785	22607
872.915	22816
873.044	23010
873.173	22904
873.303	22938
873.432	22889
873.561	22892
873.69	22892
873.819	22919
873.948	23003
874.077	22934
874.206	22793
874.335	22915
874.464	23022
874.593	23033
874.722	23006
874.851	23098
874.979	23048
875.108	23037
875.237	22942
875.365	23025
875.494	22934
875.623	23189
875.751	23022
875.88	23025
876.008	23193
876.136	23227
876.265	23509
876.393	23699
876.521	23463
876.65	23535
876.778	23383
876.906	23505
877.034	23436
877.162	23330
877.29	23433
877.418	23478
877.546	23512
877.674	23387
877.802	23353
877.93	23341
878.058	23311
878.185	23315
878.313	23368
878.441	23497
878.568	23353
878.696	23254
878.824	23516
878.951	23459
879.079	23570
879.206	23634
879.333	23562
879.461	23402
879.588	23467
879.715	23589
879.842	23726
879.97	23467
880.097	23258
880.224	23242
880.351	23242
880.478	23265
880.605	23181
880.732	23235
880.859	23402
880.986	23296
881.112	23159
881.239	23037
881.366	22923
881.493	22835
881.619	22767
881.746	22831
881.872	22877
881.999	22771
882.125	22653
882.252	22774
882.378	22831
882.505	22843
882.631	22584
882.757	22538
882.883	22535
883.01	22535
883.136	22417
883.262	22352
883.388	22219
883.514	22481
883.64	22481
883.766	22386
883.892	22234
884.018	22322
884.143	22314
884.269	22428
884.395	22143
884.52	22150
884.646	22063
884.772	21972
884.897	21972
885.023	22116
885.148	22188
885.274	22314
885.399	22128
885.524	22032
885.65	22112
885.775	22059
885.9	22063
886.025	22185
886.15	22280
886.275	22055
886.4	21930
886.525	22169
886.65	22086
886.775	21956
886.9	22230
887.025	22314
887.149	22086
887.274	21922
887.399	21850
887.523	21884
887.648	21732
887.773	21800
887.897	22063
888.021	22063
888.146	21861
888.27	21865
888.395	22059
888.519	21979
888.643	21888
888.767	21941
888.891	21755
889.015	21762
889.139	21789
889.263	21648
889.387	21736
889.511	21873
889.635	21778
889.759	21557
889.883	21705
890.006	21618
890.13	21606
890.254	21504
890.377	21618
890.501	21538
890.624	21325
890.748	21431
890.871	21351
890.995	21165
891.118	21173
891.241	21218
891.364	21173
891.488	21408
891.611	21268
891.734	21135
891.857	21123
891.98	21176
892.103	21184
892.226	21119
892.349	21146
892.471	20967
892.594	21100
892.717	21074
892.839	21020
892.962	21112
893.085	21085
893.207	21135
893.33	21062
893.452	20944
893.575	21123
893.697	21127
893.819	21272
893.941	21214
894.064	21085
894.186	21066
894.308	21024
894.43	21142
894.552	21233
894.674	21157
894.796	20933
894.918	21039
895.04	21104
895.161	21157
895.283	21116
895.405	21127
895.526	20982
895.648	21108
895.769	21055
895.891	21176
896.012	21119
896.134	21039
896.255	21024
896.376	21032
896.498	21081
896.619	21222
896.74	21066
896.861	21108
896.982	21408
897.103	21450
897.224	21351
897.345	21336
897.466	21188
897.587	21325
897.708	21435
897.828	21230
897.949	21157
898.07	21074
898.19	21180
898.311	21302
898.431	21135
898.552	21211
898.672	21340
898.792	21370
898.913	21233
899.033	21245
899.153	21085
899.273	20952
899.393	20899
899.513	20902
899.633	20998
899.753	20948
899.873	20925
899.993	20929
900.113	20948
900.232	20956
900.352	20948
900.472	20769
900.591	20667
900.711	20861
900.83	20682
900.95	20781
901.069	20807
901.189	20682
901.308	20473
901.427	20317
901.546	20404
901.665	20271
901.784	20351
901.904	20244
902.023	20134
902.141	19883
902.26	19898
902.379	19974
902.498	19871
902.617	19788
902.735	19788
902.854	19731
902.973	19658
903.091	19578
903.21	19548
903.328	19430
903.446	19434
903.565	19289
903.683	19316
903.801	19266
903.919	19129
904.038	19339
904.156	19046
904.274	19069
904.392	19171
904.51	19019
904.627	19027
904.745	19221
904.863	19065
904.981	18776
905.098	18692
905.216	18703
905.334	18753
905.451	18741
905.569	18741
905.686	18726
905.803	18627
905.921	18563
906.038	18635
906.155	18551
906.272	18445
906.389	18429
906.506	18270
906.623	18395
906.74	18281
906.857	18304
906.974	18209
907.091	18239
907.208	18357
907.324	18262
907.441	18155
907.557	17958
907.674	17904
907.79	17939
907.907	17954
908.023	17954
908.139	17980
908.256	17851
908.372	17866
908.488	17779
908.604	17760
908.72	17642
908.836	17596
908.952	17501
909.068	17642
909.184	17779
909.3	17676
909.415	17722
909.531	17630
909.647	17425
909.762	17376
909.878	17242
909.993	17330
910.108	17231
910.224	17315
910.339	17299
910.454	17231
910.57	17174
910.685	17162
910.8	17417
910.915	17288
911.03	17109
911.145	17014
911.259	16866
911.374	16995
911.489	16866
911.604	16755
911.718	16641
911.833	16668
911.947	16546
912.062	16504
912.176	16698
912.291	16713
912.405	16717
912.519	16885
912.633	16847
912.748	16744
912.862	16599
912.976	16478
913.09	16455
913.204	16485
913.318	16409
913.431	16527
913.545	16470
913.659	16645
913.772	16443
913.886	16344
914	16226
914.113	16371
914.226	16329
914.34	16421
914.453	16188
914.566	16291
914.68	16166
914.793	16116
914.906	15865
915.019	15789
915.132	15835
915.245	15857
915.358	15930
915.47	15846
915.583	15857
915.696	15983
915.809	15972
915.921	15998
916.034	15804
916.146	15720
916.259	15762
916.371	15869
916.483	15728
916.595	15743
916.708	15644
916.82	15679
916.932	15686
917.044	15568
917.156	15625
917.268	15530
917.38	15526
917.491	15454
917.603	15408
917.715	15507
917.826	15572
917.938	15405
918.049	15306
918.161	15416
918.272	15519
918.384	15564
918.495	15306
918.606	15241
918.717	15127
918.828	15275
918.939	15222
919.05	15093
919.161	15100
919.272	14990
919.383	15074
919.494	15252
919.604	15462
919.715	15199
919.826	15093
919.936	14986
920.047	15279
920.157	15161
920.267	15325
920.378	15165
920.488	15081
920.598	15416
920.708	15439
920.818	15279
920.928	15370
921.038	15549
921.148	15492
921.258	15142
921.368	14971
921.477	15005
921.587	14899
921.697	14746
921.806	14910
921.916	14804
922.025	14686
922.134	14484
922.244	14537
922.353	14552
922.462	14377
922.571	14351
922.68	14149
922.789	14187
922.898	14176
923.007	14123
923.116	14161
923.224	14119
923.333	14035
923.442	14020
923.55	14050
923.659	14046
923.767	14039
923.876	13898
923.984	13982
924.092	13940
924.201	13887
924.309	13932
924.417	13871
924.525	13852
924.633	13799
924.741	14686
924.849	13662
924.956	13780
925.064	13590
925.172	13460
925.279	13518
925.387	13605
925.494	13643
925.602	13685
925.709	13620
925.816	13441
925.924	13556
926.031	13628
926.138	13491
926.245	13468
926.352	13400
926.459	13590
926.566	13483
926.673	13373
926.779	13396
926.886	13236
926.993	13091
927.099	13122
927.206	13053
927.312	13091
927.419	13118
927.525	13038
927.631	13031
927.737	12985
927.843	12977
927.95	12749
928.056	12909
928.162	12977
928.267	12996
928.373	13575
928.479	13072
928.585	12745
928.69	12920
928.796	12825
928.901	12798
929.007	12642
929.112	12829
929.218	12665
929.323	12597
929.428	12658
929.533	12673
929.638	12635
929.743	12555
929.848	12623
929.953	12559
930.058	12464
930.163	12270
930.267	12327
930.372	12506
930.477	12216
930.581	12483
930.685	12266
930.79	12273
930.894	12338
930.998	12140
931.103	12273
931.207	11950
931.311	11843
931.415	11722
931.519	11600
931.623	11558
