Data from test_V78500241_1444.txt Node
Date: Fri Mar 25 15:51:48 CST 2022
User: usil
Spectrometer: V785-0024
Trigger mode: 0
Integration Time (sec): 4.000000E-1
Scans to average: 1
Nonlinearity correction enabled: false
Boxcar width: 0
Storing dark spectrum: false
XAxis mode: Wavelengths
Number of Pixels in Spectrum: 1024
>>>>>Begin Spectral Data<<<<<
801.071	28215
801.214	28207
801.356	28078
801.499	27884
801.641	27736
801.783	27762
801.926	27812
802.068	27884
802.211	27762
802.353	27595
802.496	27492
802.638	27416
802.78	27382
802.923	27351
803.065	27329
803.208	27363
803.35	27397
803.492	27542
803.635	27580
803.777	27526
803.919	27781
804.061	27880
804.204	27759
804.346	27618
804.488	27488
804.63	27679
804.773	27427
804.915	27739
805.057	27816
805.199	27534
805.341	27713
805.483	27793
805.626	27778
805.768	27717
805.91	27789
806.052	27861
806.194	27739
806.336	27892
806.478	27899
806.62	27842
806.762	27892
806.904	27994
807.046	28249
807.188	28139
807.33	28344
807.472	28413
807.614	28185
807.756	28295
807.898	28196
808.04	28090
808.182	28044
808.324	28097
808.465	28131
808.607	28318
808.749	28497
808.891	28577
809.033	28736
809.174	28470
809.316	28405
809.458	28455
809.6	28546
809.741	28569
809.883	28611
810.025	28812
810.166	28672
810.308	28831
810.45	28793
810.591	28683
810.733	28512
810.875	28485
811.016	28405
811.158	28341
811.299	28588
811.441	28679
811.582	28702
811.724	28569
811.865	28599
812.007	28660
812.148	28440
812.29	28504
812.431	28634
812.573	28733
812.714	28965
812.855	28976
812.997	29064
813.138	29242
813.279	29227
813.421	29098
813.562	28976
813.703	28729
813.845	28733
813.986	28466
814.127	28261
814.268	28242
814.41	28188
814.551	28257
814.692	28223
814.833	28029
814.974	28116
815.115	28211
815.256	28055
815.397	28116
815.539	27979
815.68	27903
815.821	27865
815.962	27895
816.103	27911
816.244	27785
816.385	27675
816.526	27770
816.666	27485
816.807	27420
816.948	27530
817.089	27515
817.23	27458
817.371	27389
817.512	27599
817.653	27500
817.793	27412
817.934	27492
818.075	27435
818.216	27412
818.356	27424
818.497	27397
818.638	27157
818.778	27249
818.919	27203
819.06	27256
819.2	27424
819.341	27325
819.481	27523
819.622	27656
819.762	27759
819.903	27812
820.043	27686
820.184	27595
820.324	27526
820.465	27770
820.605	27542
820.746	27492
820.886	27500
821.026	27580
821.167	27633
821.307	27549
821.447	27485
821.588	27408
821.728	27085
821.868	27055
822.008	26910
822.149	26994
822.289	26944
822.429	26754
822.569	26689
822.709	26499
822.849	26453
822.99	26400
823.13	26625
823.27	26355
823.41	26351
823.55	26134
823.69	26290
823.83	26214
823.97	26142
824.11	26096
824.25	26183
824.389	26005
824.529	26115
824.669	26134
824.809	26244
824.949	26252
825.089	26172
825.228	26202
825.368	25871
825.508	25753
825.648	25925
825.787	26008
825.927	26081
826.067	25883
826.206	26012
826.346	25978
826.485	25917
826.625	25970
826.765	26012
826.904	25925
827.044	25689
827.183	25883
827.323	25632
827.462	25727
827.601	25651
827.741	25594
827.88	25693
828.02	25514
828.159	25666
828.298	25727
828.437	25662
828.577	25605
828.716	25738
828.855	25788
828.994	25304
829.134	25346
829.273	25521
829.412	25278
829.551	25354
829.69	25350
829.829	25369
829.968	25449
830.107	25411
830.246	25381
830.385	25308
830.524	25331
830.663	25259
830.802	24996
830.941	24966
831.08	24981
831.219	24920
831.357	24970
831.496	25179
831.635	24966
831.774	24932
831.913	24989
832.051	24802
832.19	24719
832.329	24696
832.467	24696
832.606	24654
832.744	24544
832.883	24608
833.022	24631
833.16	24639
833.299	24753
833.437	24764
833.576	24795
833.714	24833
833.852	24707
833.991	24783
834.129	24738
834.267	24661
834.406	24730
834.544	24764
834.682	24654
834.821	24715
834.959	24829
835.097	24711
835.235	24612
835.373	24787
835.511	24665
835.65	24612
835.788	24620
835.926	24384
836.064	24239
836.202	24414
836.34	24582
836.478	24593
836.615	24414
836.753	24422
836.891	24498
837.029	24650
837.167	24433
837.305	24422
837.443	24296
837.58	24410
837.718	24437
837.856	24437
837.993	24300
838.131	24251
838.269	24190
838.406	24243
838.544	24133
838.681	24041
838.819	24026
838.956	23821
839.094	23859
839.231	23973
839.369	23931
839.506	24277
839.643	24129
839.781	23809
839.918	23813
840.055	23847
840.193	23821
840.33	23756
840.467	23775
840.604	23836
840.742	23946
840.879	23691
841.016	23764
841.153	23638
841.29	23977
841.427	23863
841.564	23760
841.701	23821
841.838	23649
841.975	23589
842.112	23707
842.249	23577
842.385	23661
842.522	23733
842.659	23611
842.796	23421
842.933	23543
843.069	23505
843.206	23360
843.343	23596
843.479	23459
843.616	23509
843.752	23303
843.889	23303
844.025	23471
844.162	23246
844.298	23273
844.435	23280
844.571	23273
844.708	23337
844.844	23421
844.98	23406
845.117	23383
845.253	23250
845.389	23178
845.525	23231
845.661	23204
845.798	23014
845.934	23060
846.07	23041
846.206	22946
846.342	23162
846.478	22984
846.614	22721
846.75	22641
846.886	22641
847.022	22801
847.158	22828
847.294	22725
847.429	22778
847.565	22736
847.701	22976
847.837	22432
847.972	22485
848.108	22641
848.244	22527
848.379	22356
848.515	22348
848.65	22337
848.786	22371
848.921	22360
849.057	22417
849.192	22337
849.328	22474
849.463	22242
849.598	22318
849.734	22181
849.869	22124
850.004	22135
850.14	22173
850.275	22101
850.41	22044
850.545	21983
850.68	21964
850.815	22093
850.95	22162
851.085	22166
851.22	22162
851.355	22192
851.49	22059
851.625	22090
851.76	22029
851.895	21964
852.03	21956
852.165	22082
852.299	22169
852.434	22150
852.569	22070
852.703	22040
852.838	22124
852.973	22249
853.107	22181
853.242	22010
853.376	22036
853.511	21736
853.645	21903
853.78	22036
853.914	21941
854.048	21778
854.183	21998
854.317	22078
854.451	22029
854.585	21972
854.72	21968
854.854	21876
854.988	21907
855.122	21953
855.256	21679
855.39	21926
855.524	21911
855.658	21850
855.792	21915
855.926	21915
856.06	21960
856.194	21888
856.327	21922
856.461	21854
856.595	21793
856.729	21941
856.862	21876
856.996	21831
857.13	21941
857.263	21968
857.397	22029
857.53	21926
857.664	21968
857.797	21987
857.931	21911
858.064	21949
858.197	22010
858.331	21903
858.464	21759
858.597	21941
858.731	21850
858.864	21895
858.997	21819
859.13	21945
859.263	21876
859.396	21861
859.529	21884
859.662	21972
859.795	21823
859.928	21918
860.061	22029
860.194	21979
860.327	22021
860.46	21945
860.592	22109
860.725	21972
860.858	22059
860.99	21903
861.123	21778
861.256	21953
861.388	21998
861.521	22565
861.653	21747
861.786	21637
861.918	21747
862.05	21831
862.183	21865
862.315	21895
862.447	21953
862.58	21778
862.712	21652
862.844	21572
862.976	21614
863.108	21701
863.24	21835
863.372	21618
863.504	21785
863.636	21682
863.768	21587
863.9	21599
864.032	21511
864.164	21614
864.296	21606
864.428	21698
864.559	21644
864.691	21587
864.823	21603
864.954	21553
865.086	21694
865.217	21542
865.349	21523
865.48	21599
865.612	21542
865.743	21656
865.875	21542
866.006	21397
866.137	21572
866.269	21481
866.4	21580
866.531	21549
866.662	21496
866.793	21523
866.924	21469
867.055	21481
867.186	21488
867.317	21507
867.448	21447
867.579	21473
867.71	21420
867.841	21329
867.972	21485
868.103	21363
868.233	21572
868.364	21500
868.495	21564
868.625	21736
868.756	21827
868.886	21580
869.017	21652
869.147	21774
869.278	21797
869.408	21823
869.539	21603
869.669	21797
869.799	21747
869.929	21842
870.06	21819
870.19	22063
870.32	22059
870.45	21991
870.58	22120
870.71	22257
870.84	22287
870.97	22150
871.1	22181
871.23	22341
871.36	22284
871.489	22287
871.619	22204
871.749	22325
871.879	22306
872.008	22344
872.138	22291
872.267	22306
872.397	22261
872.526	22219
872.656	22078
872.785	22101
872.915	22322
873.044	22478
873.173	22371
873.303	22360
873.432	22268
873.561	22485
873.69	22398
873.819	22344
873.948	22398
874.077	22417
874.206	22344
874.335	22398
874.464	22440
874.593	22698
874.722	22508
874.851	22584
874.979	22470
875.108	22622
875.237	22421
875.365	22348
875.494	22489
875.623	22721
875.751	22542
875.88	22561
876.008	22607
876.136	22683
876.265	23010
876.393	23132
876.521	23143
876.65	23025
876.778	22953
876.906	22797
877.034	22900
877.162	22946
877.29	22812
877.418	22911
877.546	22938
877.674	22911
877.802	23003
877.93	22831
878.058	22854
878.185	22839
878.313	22843
878.441	22869
878.568	22634
878.696	22797
878.824	22934
878.951	23086
879.079	23181
879.206	23197
879.333	23151
879.461	22946
879.588	23029
879.715	23033
879.842	23208
879.97	23086
880.097	22683
880.224	22733
880.351	22790
880.478	22660
880.605	22767
880.732	22653
880.859	22885
880.986	22691
881.112	22725
881.239	22538
881.366	22577
881.493	22398
881.619	22379
881.746	22432
881.872	22360
881.999	22295
882.125	22131
882.252	22291
882.378	22253
882.505	22443
882.631	22162
882.757	22070
882.883	22139
883.01	22025
883.136	21968
883.262	21781
883.388	21827
883.514	21975
883.64	22013
883.766	21846
883.892	21736
884.018	21762
884.143	21907
884.269	22048
884.395	21675
884.52	21553
884.646	21545
884.772	21622
884.897	21549
885.023	21709
885.148	21728
885.274	21785
885.399	21606
885.524	21564
885.65	21625
885.775	21599
885.9	21572
886.025	21705
886.15	21644
886.275	21618
886.4	21599
886.525	21648
886.65	21504
886.775	21488
886.9	21663
887.025	21918
887.149	21568
887.274	21488
887.399	21405
887.523	21454
887.648	21340
887.773	21245
887.897	21466
888.021	21370
888.146	21340
888.27	21599
888.395	21549
888.519	21435
888.643	21279
888.767	21500
888.891	21199
889.015	21100
889.139	21161
889.263	21154
889.387	21382
889.511	21359
889.635	21317
889.759	21112
889.883	21051
890.006	21222
890.13	21245
890.254	21169
890.377	21066
890.501	20986
890.624	20785
890.748	20941
890.871	20842
890.995	20792
891.118	20834
891.241	20648
891.364	20777
891.488	20845
891.611	20769
891.734	20724
891.857	20762
891.98	20754
892.103	20792
892.226	20777
892.349	20613
892.471	20579
892.594	20739
892.717	20636
892.839	20579
892.962	20640
893.085	20697
893.207	20762
893.33	20689
893.452	20583
893.575	20670
893.697	20575
893.819	20754
893.941	20849
894.064	20796
894.186	20556
894.308	20499
894.43	20697
894.552	20781
894.674	20693
894.796	20549
894.918	20473
895.04	20530
895.161	20705
895.283	20583
895.405	20530
895.526	20590
895.648	20667
895.769	20609
895.891	20739
896.012	20644
896.134	20655
896.255	20560
896.376	20575
896.498	20625
896.619	20644
896.74	20579
896.861	20621
896.982	20902
897.103	20944
897.224	20864
897.345	20785
897.466	20765
897.587	20830
897.708	21005
897.828	20921
897.949	20746
898.07	20602
898.19	20754
898.311	20895
898.431	20773
898.552	20876
898.672	20876
898.792	20880
898.913	20769
899.033	20667
899.153	20541
899.273	20575
899.393	20541
899.513	20602
899.633	20514
899.753	20644
899.873	20518
899.993	20644
900.113	20552
900.232	20587
900.352	20488
900.472	20438
900.591	20305
900.711	20301
900.83	20210
900.95	20328
901.069	20351
901.189	20313
901.308	19978
901.427	19822
901.546	19852
901.665	19921
901.784	19936
901.904	19727
902.023	19689
902.141	19514
902.26	19362
902.379	19533
902.498	19278
902.617	19316
902.735	19472
902.854	19384
902.973	19426
903.091	19160
903.21	19076
903.328	19091
903.446	18894
903.565	18776
903.683	18935
903.801	18616
903.919	18859
904.038	18757
904.156	18673
904.274	18745
904.392	18658
904.51	18669
904.627	18623
904.745	18776
904.863	18726
904.981	18475
905.098	18323
905.216	18388
905.334	18369
905.451	18258
905.569	18266
905.686	18410
905.803	18289
905.921	18060
906.038	18125
906.155	18091
906.272	17961
906.389	18007
906.506	17863
906.623	17790
906.74	17836
906.857	17832
906.974	17802
907.091	17973
907.208	17939
907.324	17889
907.441	17687
907.557	17627
907.674	17615
907.79	17459
907.907	17459
908.023	17649
908.139	17589
908.256	17532
908.372	17520
908.488	17501
908.604	17261
908.72	17288
908.836	17372
908.952	17223
909.068	17288
909.184	17349
909.3	17261
909.415	17288
909.531	17334
909.647	17079
909.762	17060
909.878	16980
909.993	16972
910.108	16900
910.224	16946
910.339	16885
910.454	16896
910.57	16736
910.685	16691
910.8	17075
910.915	16835
911.03	16744
911.145	16550
911.259	16523
911.374	16531
911.489	16546
911.604	16379
911.718	16234
911.833	16276
911.947	16223
912.062	16207
912.176	16303
912.291	16325
912.405	16291
912.519	16459
912.633	16493
912.748	16272
912.862	16272
912.976	16150
913.09	16063
913.204	16097
913.318	16116
913.431	16051
913.545	16181
913.659	16150
913.772	16048
913.886	15975
914	15876
914.113	15979
914.226	16036
914.34	15918
914.453	15785
914.566	15823
914.68	15785
914.793	15831
914.906	15561
915.019	15576
915.132	15428
915.245	15504
915.358	15538
915.47	15572
915.583	15530
915.696	15507
915.809	15660
915.921	15564
916.034	15496
916.146	15401
916.259	15454
916.371	15595
916.483	15416
916.595	15389
916.708	15306
916.82	15302
916.932	15317
917.044	15291
917.156	15287
917.268	15180
917.38	15245
917.491	15081
917.603	15074
917.715	15146
917.826	15184
917.938	14990
918.049	14952
918.161	15116
918.272	15207
918.384	15264
918.495	15066
918.606	14971
918.717	14811
918.828	14807
918.939	15009
919.05	14781
919.161	14842
919.272	14667
919.383	14716
919.494	14925
919.604	15100
919.715	14941
919.826	14701
919.936	14830
920.047	14925
920.157	14876
920.267	15039
920.378	14826
920.488	14697
920.598	15066
920.708	15112
920.818	15058
920.928	14929
921.038	15024
921.148	15074
921.258	14712
921.368	14629
921.477	14530
921.587	14594
921.697	14408
921.806	14568
921.916	14400
922.025	14362
922.134	14259
922.244	14164
922.353	14195
922.462	14024
922.571	13997
922.68	13887
922.789	13871
922.898	13822
923.007	13845
923.116	13799
923.224	13784
923.333	13871
923.442	13761
923.55	13624
923.659	13696
923.767	13757
923.876	13704
923.984	13681
924.092	13632
924.201	13624
924.309	13597
924.417	13514
924.525	13468
924.633	13628
924.741	14347
924.849	13324
924.956	13396
925.064	13308
925.172	13179
925.279	13232
925.387	13274
925.494	13282
925.602	13324
925.709	13308
925.816	13110
925.924	13202
926.031	13171
926.138	13194
926.245	13255
926.352	13122
926.459	13236
926.566	13206
926.673	13034
926.779	13015
926.886	12962
926.993	12871
927.099	12757
927.206	12783
927.312	12753
927.419	12829
927.525	12757
927.631	12821
927.737	12764
927.843	12658
927.95	12570
928.056	12642
928.162	12616
928.267	12669
928.373	13266
928.479	12696
928.585	12452
928.69	12536
928.796	12620
928.901	12475
929.007	12342
929.112	12521
929.218	12410
929.323	12391
929.428	12342
929.533	12429
929.638	12285
929.743	12273
929.848	12273
929.953	12182
930.058	12163
930.163	12133
930.267	11996
930.372	12197
930.477	11969
930.581	12228
930.685	11916
930.79	11847
930.894	11942
930.998	11866
931.103	11977
931.207	11596
931.311	11577
931.415	11395
931.519	11318
931.623	11315
