Data from test_V78500241_2762.txt Node
Date: Fri Mar 25 16:00:56 CST 2022
User: usil
Spectrometer: V785-0024
Trigger mode: 0
Integration Time (sec): 4.000000E-1
Scans to average: 1
Nonlinearity correction enabled: false
Boxcar width: 0
Storing dark spectrum: false
XAxis mode: Wavelengths
Number of Pixels in Spectrum: 1024
>>>>>Begin Spectral Data<<<<<
801.071	28759
801.214	28782
801.356	28637
801.499	28459
801.641	28352
801.783	28398
801.926	28390
802.068	28386
802.211	28474
802.353	28291
802.496	28044
802.638	28059
802.78	28090
802.923	28131
803.065	28162
803.208	28021
803.35	28177
803.492	28173
803.635	28436
803.777	28196
803.919	28352
804.061	28626
804.204	28451
804.346	28287
804.488	28162
804.63	28356
804.773	28188
804.915	28436
805.057	28394
805.199	28246
805.341	28405
805.483	28462
805.626	28493
805.768	28390
805.91	28516
806.052	28535
806.194	28470
806.336	28618
806.478	28561
806.62	28542
806.762	28679
806.904	28835
807.046	29136
807.188	28881
807.33	28984
807.472	29094
807.614	29014
807.756	28854
807.898	28843
808.04	28763
808.182	28793
808.324	28767
808.465	28850
808.607	29025
808.749	29311
808.891	29353
809.033	29273
809.174	29360
809.316	29208
809.458	29200
809.6	29147
809.741	29315
809.883	29467
810.025	29417
810.166	29497
810.308	29452
810.45	29490
810.591	29490
810.733	29433
810.875	29162
811.016	29193
811.158	29060
811.299	29497
811.441	29482
811.582	29478
811.724	29349
811.865	29044
812.007	29178
812.148	29303
812.29	29227
812.431	29353
812.573	29478
812.714	29543
812.855	29771
812.997	29916
813.138	29950
813.279	29851
813.421	29752
813.562	29687
813.703	29547
813.845	29433
813.986	29208
814.127	28965
814.268	29003
814.41	28908
814.551	28831
814.692	29025
814.833	28744
814.974	28881
815.115	28869
815.256	28733
815.397	28793
815.539	28809
815.68	28744
815.821	28554
815.962	28706
816.103	28717
816.244	28546
816.385	28489
816.526	28413
816.666	28192
816.807	28268
816.948	28295
817.089	28310
817.23	28215
817.371	28188
817.512	28204
817.653	28200
817.793	28097
817.934	28314
818.075	28223
818.216	28299
818.356	28226
818.497	28128
818.638	28044
818.778	28048
818.919	28109
819.06	28204
819.2	28082
819.341	28188
819.481	28280
819.622	28379
819.762	28668
819.903	28504
820.043	28440
820.184	28424
820.324	28417
820.465	28428
820.605	28360
820.746	28318
820.886	28276
821.026	28230
821.167	28360
821.307	28356
821.447	28173
821.588	28268
821.728	27983
821.868	27983
822.008	27835
822.149	27698
822.289	27705
822.429	27405
822.569	27386
822.709	27443
822.849	27306
822.99	27291
823.13	27317
823.27	27165
823.41	27077
823.55	26937
823.69	27062
823.83	27005
823.97	27009
824.11	26777
824.25	26876
824.389	26845
824.529	26948
824.669	26971
824.809	26895
824.949	26940
825.089	26982
825.228	26861
825.368	26750
825.508	26716
825.648	26838
825.787	26868
825.927	26868
826.067	26746
826.206	26689
826.346	26872
826.485	26663
826.625	26708
826.765	26876
826.904	26864
827.044	26606
827.183	26526
827.323	26473
827.462	26495
827.601	26427
827.741	26499
827.88	26484
828.02	26362
828.159	26537
828.298	26522
828.437	26545
828.577	26339
828.716	26667
828.855	26317
828.994	26187
829.134	26256
829.273	26343
829.412	26210
829.551	26145
829.69	26240
829.829	26263
829.968	26358
830.107	26275
830.246	26214
830.385	26168
830.524	26027
830.663	25993
830.802	25982
830.941	25784
831.08	25734
831.219	25776
831.357	25909
831.496	26058
831.635	25772
831.774	25582
831.913	25674
832.051	25597
832.19	25571
832.329	25658
832.467	25491
832.606	25384
832.744	25396
832.883	25506
833.022	25270
833.16	25460
833.299	25544
833.437	25441
833.576	25571
833.714	25502
833.852	25647
833.991	25419
834.129	25628
834.267	25632
834.406	25674
834.544	25479
834.682	25578
834.821	25514
834.959	25761
835.097	25620
835.235	25624
835.373	25533
835.511	25548
835.65	25301
835.788	25476
835.926	25217
836.064	25209
836.202	25251
836.34	25537
836.478	25419
836.615	25282
836.753	25301
836.891	25453
837.029	25320
837.167	25293
837.305	25289
837.443	25209
837.58	25236
837.718	25110
837.856	25266
837.993	25023
838.131	25095
838.269	25088
838.406	25213
838.544	24878
838.681	24772
838.819	24722
838.956	24563
839.094	24589
839.231	24715
839.369	24833
839.506	25084
839.643	24871
839.781	24753
839.918	24544
840.055	24604
840.193	24559
840.33	24589
840.467	24646
840.604	24642
840.742	24814
840.879	24445
841.016	24540
841.153	24410
841.29	24692
841.427	24536
841.564	24547
841.701	24441
841.838	24490
841.975	24460
842.112	24544
842.249	24388
842.385	24407
842.522	24502
842.659	24300
842.796	24384
842.933	24243
843.069	24357
843.206	24239
843.343	24365
843.479	24209
843.616	24338
843.752	24171
843.889	24106
844.025	24228
844.162	23980
844.298	24140
844.435	24045
844.571	23969
844.708	24095
844.844	24213
844.98	24205
845.117	24163
845.253	23984
845.389	23973
845.525	24045
845.661	23935
845.798	23707
845.934	23923
846.07	23684
846.206	23775
846.342	23870
846.478	23809
846.614	23611
846.75	23410
846.886	23421
847.022	23615
847.158	23608
847.294	23512
847.429	23627
847.565	23524
847.701	23726
847.837	23261
847.972	23277
848.108	23341
848.244	23387
848.379	23037
848.515	23170
848.65	23124
848.786	22999
848.921	23128
849.057	23299
849.192	23242
849.328	23044
849.463	23052
849.598	23128
849.734	23132
849.869	23079
850.004	23006
850.14	22869
850.275	22873
850.41	22729
850.545	22782
850.68	22767
850.815	23067
850.95	22892
851.085	23124
851.22	22896
851.355	22949
851.49	22961
851.625	22771
851.76	22816
851.895	22725
852.03	22812
852.165	22915
852.299	22930
852.434	22961
852.569	22911
852.703	22934
852.838	22965
852.973	23121
853.107	22938
853.242	22850
853.376	22801
853.511	22577
853.645	22725
853.78	22786
853.914	22637
854.048	22634
854.183	22790
854.317	22820
854.451	22946
854.585	22748
854.72	22679
854.854	22839
854.988	22736
855.122	22653
855.256	22622
855.39	22698
855.524	22733
855.658	22858
855.792	22641
855.926	22801
856.06	22786
856.194	22786
856.327	22519
856.461	22580
856.595	22698
856.729	22691
856.862	22778
856.996	22793
857.13	22877
857.263	22831
857.397	22862
857.53	22786
857.664	22767
857.797	22649
857.931	22881
858.064	22748
858.197	22877
858.331	22713
858.464	22668
858.597	22653
858.731	22729
858.864	22691
858.997	22767
859.13	22824
859.263	22759
859.396	22717
859.529	22653
859.662	22713
859.795	22557
859.928	22786
860.061	22877
860.194	22938
860.327	22805
860.46	22793
860.592	22858
860.725	22957
860.858	22847
860.99	22710
861.123	22637
861.256	22683
861.388	22752
861.521	23391
861.653	22664
861.786	22535
861.918	22565
862.05	22630
862.183	22786
862.315	22774
862.447	22721
862.58	22538
862.712	22367
862.844	22375
862.976	22584
863.108	22466
863.24	22961
863.372	22462
863.504	22493
863.636	22497
863.768	22478
863.9	22440
864.032	22314
864.164	22413
864.296	22386
864.428	22584
864.559	22451
864.691	22424
864.823	22508
864.954	22462
865.086	22424
865.217	22417
865.349	22181
865.48	22306
865.612	22371
865.743	22405
865.875	22287
866.006	22249
866.137	22405
866.269	22223
866.4	22188
866.531	22280
866.662	22333
866.793	22226
866.924	22295
867.055	22234
867.186	22253
867.317	22238
867.448	22158
867.579	22238
867.71	22177
867.841	22135
867.972	22242
868.103	22211
868.233	22268
868.364	22249
868.495	22310
868.625	22409
868.756	22660
868.886	22341
869.017	22451
869.147	22679
869.278	22645
869.408	22481
869.539	22516
869.669	22653
869.799	22375
869.929	22744
870.06	22550
870.19	22721
870.32	22885
870.45	22866
870.58	22873
870.71	23044
870.84	22987
870.97	22847
871.1	22942
871.23	23079
871.36	23044
871.489	22908
871.619	23075
871.749	23109
871.879	23208
872.008	23090
872.138	23083
872.267	23006
872.397	22896
872.526	22904
872.656	23025
872.785	22953
872.915	23159
873.044	23239
873.173	23064
873.303	23086
873.432	23052
873.561	23178
873.69	23124
873.819	23159
873.948	23105
874.077	23083
874.206	23086
874.335	23079
874.464	23204
874.593	23330
874.722	23265
874.851	23406
874.979	23288
875.108	23379
875.237	23334
875.365	23178
875.494	23280
875.623	23535
875.751	23364
875.88	23292
876.008	23433
876.136	23490
876.265	23695
876.393	23802
876.521	23737
876.65	23767
876.778	23657
876.906	23737
877.034	23539
877.162	23543
877.29	23745
877.418	23657
877.546	23714
877.674	23680
877.802	23699
877.93	23600
878.058	23611
878.185	23516
878.313	23638
878.441	23714
878.568	23425
878.696	23630
878.824	23608
878.951	23638
879.079	23824
879.206	23882
879.333	23805
879.461	23657
879.588	23752
879.715	23783
879.842	23832
879.97	23634
880.097	23512
880.224	23436
880.351	23463
880.478	23364
880.605	23402
880.732	23520
880.859	23741
880.986	23524
881.112	23512
881.239	23288
881.366	23022
881.493	23250
881.619	23064
881.746	22946
881.872	23014
881.999	22991
882.125	23025
882.252	23056
882.378	23071
882.505	23025
882.631	22790
882.757	22752
882.883	22828
883.01	22797
883.136	22611
883.262	22588
883.388	22554
883.514	22733
883.64	22702
883.766	22554
883.892	22466
884.018	22474
884.143	22691
884.269	22786
884.395	22363
884.52	22192
884.646	22398
884.772	22276
884.897	22207
885.023	22333
885.148	22390
885.274	22440
885.399	22459
885.524	22363
885.65	22257
885.775	22238
885.9	22310
886.025	22333
886.15	22390
886.275	22398
886.4	22257
886.525	22128
886.65	22192
886.775	22166
886.9	22333
887.025	22546
887.149	22341
887.274	22238
887.399	22093
887.523	22131
887.648	22032
887.773	22139
887.897	22204
888.021	22246
888.146	22082
888.27	22166
888.395	22188
888.519	22105
888.643	21918
888.767	22090
888.891	21979
889.015	21876
889.139	21880
889.263	21861
889.387	21892
889.511	22097
889.635	22040
889.759	21865
889.883	21949
890.006	21781
890.13	21873
890.254	21793
890.377	21876
890.501	21603
890.624	21622
890.748	21591
890.871	21428
890.995	21329
891.118	21317
891.241	21428
891.364	21538
891.488	21591
891.611	21321
891.734	21302
891.857	21355
891.98	21397
892.103	21443
892.226	21416
892.349	21264
892.471	21203
892.594	21283
892.717	21332
892.839	21298
892.962	21291
893.085	21378
893.207	21256
893.33	21233
893.452	21222
893.575	21420
893.697	21218
893.819	21408
893.941	21504
894.064	21386
894.186	21291
894.308	21237
894.43	21344
894.552	21367
894.674	21325
894.796	21237
894.918	21287
895.04	21233
895.161	21351
895.283	21382
895.405	21214
895.526	21416
895.648	21214
895.769	21302
895.891	21241
896.012	21336
896.134	21344
896.255	21355
896.376	21237
896.498	21203
896.619	21275
896.74	21287
896.861	21359
896.982	21568
897.103	21690
897.224	21473
897.345	21492
897.466	21408
897.587	21431
897.708	21663
897.828	21534
897.949	21367
898.07	21332
898.19	21363
898.311	21405
898.431	21424
898.552	21370
898.672	21450
898.792	21610
898.913	21454
899.033	21329
899.153	21268
899.273	21142
899.393	21127
899.513	21260
899.633	21226
899.753	21298
899.873	21096
899.993	21256
900.113	21256
900.232	21150
900.352	21135
900.472	20982
900.591	21024
900.711	20941
900.83	20948
900.95	20941
901.069	20918
901.189	20834
901.308	20712
901.427	20545
901.546	20568
901.665	20469
901.784	20442
901.904	20423
902.023	20305
902.141	20126
902.26	20046
902.379	20210
902.498	19932
902.617	20031
902.735	20027
902.854	19974
902.973	19871
903.091	19704
903.21	19571
903.328	19753
903.446	19742
903.565	19464
903.683	19445
903.801	19263
903.919	19548
904.038	19354
904.156	19259
904.274	19304
904.392	19343
904.51	19194
904.627	19297
904.745	19263
904.863	19293
904.981	19050
905.098	18935
905.216	18962
905.334	18943
905.451	18924
905.569	18951
905.686	18932
905.803	18863
905.921	18681
906.038	18760
906.155	18703
906.272	18631
906.389	18582
906.506	18418
906.623	18410
906.74	18380
906.857	18384
906.974	18334
907.091	18555
907.208	18593
907.324	18467
907.441	18281
907.557	18159
907.674	18125
907.79	18129
907.907	18171
908.023	18163
908.139	18167
908.256	18148
908.372	17961
908.488	17980
908.604	17904
908.72	17798
908.836	17783
908.952	17775
909.068	17771
909.184	17931
909.3	17786
909.415	17916
909.531	17813
909.647	17505
909.762	17543
909.878	17566
909.993	17493
910.108	17471
910.224	17539
910.339	17585
910.454	17383
910.57	17337
910.685	17360
910.8	17608
910.915	17490
911.03	17364
911.145	17124
911.259	17128
911.374	17181
911.489	16976
911.604	17003
911.718	16885
911.833	16835
911.947	16847
912.062	16645
912.176	16782
912.291	16923
912.405	16930
912.519	16976
912.633	17060
912.748	16892
912.862	16873
912.976	16630
913.09	16630
913.204	16607
913.318	16733
913.431	16759
913.545	16759
913.659	16774
913.772	16531
913.886	16459
914	16466
914.113	16516
914.226	16592
914.34	16428
914.453	16363
914.566	16451
914.68	16280
914.793	16257
914.906	16116
915.019	16032
915.132	15998
915.245	16048
915.358	16109
915.47	16120
915.583	16143
915.696	16010
915.809	16105
915.921	16143
916.034	15998
916.146	15873
916.259	15892
916.371	15983
916.483	15987
916.595	15854
916.708	15945
916.82	15854
916.932	15759
917.044	15797
917.156	15835
917.268	15690
917.38	15713
917.491	15633
917.603	15599
917.715	15652
917.826	15698
917.938	15614
918.049	15553
918.161	15564
918.272	15728
918.384	15720
918.495	15526
918.606	15458
918.717	15363
918.828	15405
918.939	15355
919.05	15294
919.161	15317
919.272	15203
919.383	15287
919.494	15363
919.604	15591
919.715	15306
919.826	15306
919.936	15401
920.047	15412
920.157	15348
920.267	15477
920.378	15397
920.488	15233
920.598	15454
920.708	15599
920.818	15408
920.928	15431
921.038	15557
921.148	15534
921.258	15294
921.368	15256
921.477	15089
921.587	15032
921.697	15020
921.806	15081
921.916	14864
922.025	14731
922.134	14743
922.244	14594
922.353	14724
922.462	14571
922.571	14484
922.68	14370
922.789	14290
922.898	14336
923.007	14298
923.116	14317
923.224	14240
923.333	14282
923.442	14081
923.55	14149
923.659	14058
923.767	14168
923.876	14073
923.984	14214
924.092	14031
924.201	14043
924.309	14027
924.417	13978
924.525	13970
924.633	14050
924.741	14918
924.849	13715
924.956	13898
925.064	13784
925.172	13647
925.279	13647
925.387	13719
925.494	13719
925.602	13830
925.709	13704
925.816	13616
925.924	13544
926.031	13715
926.138	13624
926.245	13616
926.352	13544
926.459	13681
926.566	13594
926.673	13537
926.779	13403
926.886	13373
926.993	13278
927.099	13183
927.206	13107
927.312	13053
927.419	13274
927.525	13236
927.631	13190
927.737	13149
927.843	13084
927.95	12951
928.056	13031
928.162	13004
928.267	13053
928.373	13620
928.479	13072
928.585	12867
928.69	12977
928.796	13053
928.901	12810
929.007	12738
929.112	12970
929.218	12829
929.323	12844
929.428	12707
929.533	12840
929.638	12662
929.743	12711
929.848	12673
929.953	12719
930.058	12544
930.163	12372
930.267	12422
930.372	12429
930.477	12353
930.581	12544
930.685	12502
930.79	12300
930.894	12209
930.998	12292
931.103	12350
931.207	11996
931.311	11863
931.415	11912
931.519	11710
931.623	11653
