Data from test_V78500241_1274.txt Node
Date: Fri Mar 25 15:50:37 CST 2022
User: usil
Spectrometer: V785-0024
Trigger mode: 0
Integration Time (sec): 4.000000E-1
Scans to average: 1
Nonlinearity correction enabled: false
Boxcar width: 0
Storing dark spectrum: false
XAxis mode: Wavelengths
Number of Pixels in Spectrum: 1024
>>>>>Begin Spectral Data<<<<<
801.071	28885
801.214	28812
801.356	28603
801.499	28729
801.641	28489
801.783	28398
801.926	28424
802.068	28462
802.211	28417
802.353	28265
802.496	28135
802.638	28109
802.78	28109
802.923	28116
803.065	27937
803.208	28101
803.35	28234
803.492	28211
803.635	28455
803.777	28303
803.919	28306
804.061	28656
804.204	28455
804.346	28291
804.488	28162
804.63	28310
804.773	28192
804.915	28421
805.057	28451
805.199	28409
805.341	28356
805.483	28615
805.626	28474
805.768	28478
805.91	28557
806.052	28531
806.194	28569
806.336	28622
806.478	28637
806.62	28656
806.762	28725
806.904	28896
807.046	29044
807.188	28976
807.33	28968
807.472	28961
807.614	28968
807.756	28858
807.898	29022
808.04	28733
808.182	28930
808.324	28896
808.465	28934
808.607	29147
808.749	29235
808.891	29303
809.033	29383
809.174	29364
809.316	29189
809.458	29124
809.6	29197
809.741	29364
809.883	29570
810.025	29497
810.166	29581
810.308	29486
810.45	29452
810.591	29501
810.733	29364
810.875	29261
811.016	29162
811.158	29117
811.299	29326
811.441	29417
811.582	29414
811.724	29375
811.865	29292
812.007	29269
812.148	29261
812.29	29178
812.431	29501
812.573	29493
812.714	29722
812.855	29764
812.997	29893
813.138	30102
813.279	29897
813.421	29821
813.562	29729
813.703	29668
813.845	29524
813.986	29212
814.127	29094
814.268	29060
814.41	28984
814.551	29048
814.692	29079
814.833	28946
814.974	29086
815.115	28946
815.256	28702
815.397	28816
815.539	28904
815.68	28637
815.821	28687
815.962	28885
816.103	28763
816.244	28637
816.385	28653
816.526	28596
816.666	28337
816.807	28207
816.948	28417
817.089	28451
817.23	28398
817.371	28291
817.512	28242
817.653	28238
817.793	28200
817.934	28219
818.075	28352
818.216	28242
818.356	28443
818.497	28181
818.638	28032
818.778	27964
818.919	28120
819.06	28196
819.2	28181
819.341	28215
819.481	28261
819.622	28466
819.762	28744
819.903	28398
820.043	28489
820.184	28554
820.324	28474
820.465	28443
820.605	28493
820.746	28447
820.886	28421
821.026	28512
821.167	28280
821.307	28371
821.447	28455
821.588	28249
821.728	28242
821.868	27953
822.008	27770
822.149	27762
822.289	27903
822.429	27534
822.569	27542
822.709	27485
822.849	27355
822.99	27363
823.13	27154
823.27	27272
823.41	27062
823.55	26918
823.69	27256
823.83	27211
823.97	27001
824.11	26956
824.25	26910
824.389	26887
824.529	26979
824.669	26849
824.809	26963
824.949	26986
825.089	27024
825.228	27058
825.368	26735
825.508	26921
825.648	26891
825.787	26876
825.927	26788
826.067	26754
826.206	26769
826.346	26876
826.485	26967
826.625	26845
826.765	26796
826.904	26834
827.044	26617
827.183	26556
827.323	26511
827.462	26708
827.601	26473
827.741	26617
827.88	26594
828.02	26362
828.159	26484
828.298	26537
828.437	26568
828.577	26415
828.716	26701
828.855	26351
828.994	26374
829.134	26336
829.273	26145
829.412	26218
829.551	26115
829.69	26256
829.829	26252
829.968	26313
830.107	26313
830.246	26153
830.385	26237
830.524	26218
830.663	26035
830.802	25974
830.941	26020
831.08	25712
831.219	25978
831.357	25871
831.496	26153
831.635	25780
831.774	25746
831.913	25837
832.051	25700
832.19	25586
832.329	25563
832.467	25331
832.606	25594
832.744	25377
832.883	25552
833.022	25445
833.16	25540
833.299	25628
833.437	25624
833.576	25658
833.714	25537
833.852	25601
833.991	25674
834.129	25567
834.267	25677
834.406	25594
834.544	25609
834.682	25609
834.821	25544
834.959	25734
835.097	25457
835.235	25525
835.373	25506
835.511	25544
835.65	25441
835.788	25304
835.926	25266
836.064	25312
836.202	25259
836.34	25270
836.478	25422
836.615	25373
836.753	25308
836.891	25514
837.029	25415
837.167	25308
837.305	25339
837.443	25297
837.58	25206
837.718	25358
837.856	25168
837.993	25069
838.131	25152
838.269	25114
838.406	25103
838.544	25053
838.681	24798
838.819	24840
838.956	24627
839.094	24669
839.231	24909
839.369	24966
839.506	25053
839.643	24848
839.781	24711
839.918	24551
840.055	24719
840.193	24711
840.33	24532
840.467	24627
840.604	24673
840.742	24905
840.879	24505
841.016	24486
841.153	24486
841.29	24703
841.427	24536
841.564	24623
841.701	24585
841.838	24604
841.975	24445
842.112	24650
842.249	24380
842.385	24311
842.522	24536
842.659	24441
842.796	24224
842.933	24410
843.069	24270
843.206	24281
843.343	24376
843.479	24346
843.616	24209
843.752	24197
843.889	24159
844.025	24235
844.162	24053
844.298	24228
844.435	24079
844.571	23980
844.708	24057
844.844	24315
844.98	24239
845.117	24178
845.253	24235
845.389	24045
845.525	24022
845.661	23923
845.798	24030
845.934	23851
846.07	23908
846.206	23855
846.342	23954
846.478	23748
846.614	23524
846.75	23501
846.886	23497
847.022	23630
847.158	23630
847.294	23490
847.429	23493
847.565	23497
847.701	23794
847.837	23193
847.972	23242
848.108	23406
848.244	23292
848.379	23162
848.515	23174
848.65	23200
848.786	23086
848.921	23246
849.057	23208
849.192	23212
849.328	23178
849.463	23124
849.598	23162
849.734	23098
849.869	22987
850.004	22866
850.14	23052
850.275	22858
850.41	22710
850.545	22854
850.68	22835
850.815	22862
850.95	22889
851.085	22957
851.22	23044
851.355	22927
851.49	22835
851.625	23006
851.76	22889
851.895	22778
852.03	22786
852.165	22877
852.299	22896
852.434	23006
852.569	22953
852.703	22934
852.838	23090
852.973	22980
853.107	23044
853.242	22847
853.376	22793
853.511	22736
853.645	22653
853.78	22835
853.914	22809
854.048	22664
854.183	22660
854.317	22767
854.451	22892
854.585	22801
854.72	22687
854.854	22782
854.988	22649
855.122	22774
855.256	22649
855.39	22736
855.524	22809
855.658	22683
855.792	22702
855.926	22782
856.06	22873
856.194	22767
856.327	22710
856.461	22691
856.595	22675
856.729	22611
856.862	22809
856.996	22717
857.13	22733
857.263	22824
857.397	22786
857.53	22683
857.664	22797
857.797	22710
857.931	22820
858.064	22896
858.197	22850
858.331	22759
858.464	22634
858.597	22691
858.731	22634
858.864	22702
858.997	22740
859.13	22759
859.263	22790
859.396	22809
859.529	22615
859.662	22702
859.795	22588
859.928	22706
860.061	22881
860.194	22862
860.327	22729
860.46	22805
860.592	22748
860.725	22866
860.858	22725
860.99	22755
861.123	22672
861.256	22641
861.388	22573
861.521	23254
861.653	22569
861.786	22557
861.918	22615
862.05	22630
862.183	22611
862.315	22618
862.447	22618
862.58	22725
862.712	22337
862.844	22382
862.976	22474
863.108	22500
863.24	22763
863.372	22337
863.504	22371
863.636	22352
863.768	22447
863.9	22375
864.032	22322
864.164	22261
864.296	22314
864.428	22493
864.559	22405
864.691	22485
864.823	22402
864.954	22474
865.086	22485
865.217	22238
865.349	22280
865.48	22287
865.612	22177
865.743	22325
865.875	22226
866.006	22242
866.137	22230
866.269	22242
866.4	22238
866.531	22181
866.662	22265
866.793	22067
866.924	22192
867.055	22287
867.186	22325
867.317	22131
867.448	22124
867.579	22196
867.71	22128
867.841	22097
867.972	22207
868.103	22173
868.233	22166
868.364	22143
868.495	22375
868.625	22314
868.756	22462
868.886	22447
869.017	22557
869.147	22622
869.278	22626
869.408	22516
869.539	22630
869.669	22622
869.799	22489
869.929	22577
870.06	22653
870.19	22752
870.32	22691
870.45	22812
870.58	22919
870.71	22984
870.84	22919
870.97	22850
871.1	22835
871.23	22953
871.36	22976
871.489	22873
871.619	22885
871.749	23075
871.879	23094
872.008	23197
872.138	23041
872.267	23121
872.397	23003
872.526	22839
872.656	22854
872.785	22816
872.915	23029
873.044	23098
873.173	23170
873.303	23155
873.432	23064
873.561	22984
873.69	23132
873.819	23048
873.948	23189
874.077	23064
874.206	23113
874.335	22995
874.464	23143
874.593	23178
874.722	23197
874.851	23284
874.979	23337
875.108	23273
875.237	23280
875.365	23136
875.494	23208
875.623	23261
875.751	23193
875.88	23273
876.008	23395
876.136	23414
876.265	23726
876.393	23840
876.521	23551
876.65	23703
876.778	23710
876.906	23459
877.034	23551
877.162	23520
877.29	23562
877.418	23646
877.546	23661
877.674	23627
877.802	23570
877.93	23608
878.058	23512
878.185	23414
878.313	23619
878.441	23592
878.568	23341
878.696	23455
878.824	23581
878.951	23646
879.079	23779
879.206	23912
879.333	23771
879.461	23642
879.588	23714
879.715	23752
879.842	23790
879.97	23783
880.097	23455
880.224	23395
880.351	23455
880.478	23417
880.605	23372
880.732	23478
880.859	23539
880.986	23440
881.112	23497
881.239	23341
881.366	23231
881.493	23094
881.619	23037
881.746	23151
881.872	23037
881.999	22930
882.125	22896
882.252	22949
882.378	22927
882.505	23052
882.631	22778
882.757	22706
882.883	22672
883.01	22672
883.136	22767
883.262	22557
883.388	22519
883.514	22622
883.64	22725
883.766	22675
883.892	22402
884.018	22462
884.143	22603
884.269	22561
884.395	22352
884.52	22226
884.646	22390
884.772	22204
884.897	22109
885.023	22375
885.148	22466
885.274	22455
885.399	22379
885.524	22356
885.65	22333
885.775	22284
885.9	22234
886.025	22360
886.15	22379
886.275	22200
886.4	22272
886.525	22211
886.65	22265
886.775	22192
886.9	22360
887.025	22481
887.149	22280
887.274	21987
887.399	22048
887.523	22040
887.648	21983
887.773	21949
887.897	22147
888.021	22078
888.146	22013
888.27	22029
888.395	22082
888.519	22070
888.643	21983
888.767	22051
888.891	21941
889.015	21945
889.139	21869
889.263	21895
889.387	21956
889.511	21979
889.635	22040
889.759	21850
889.883	21701
890.006	21876
890.13	21903
890.254	21759
890.377	21781
890.501	21492
890.624	21382
890.748	21542
890.871	21530
890.995	21310
891.118	21313
891.241	21294
891.364	21268
891.488	21473
891.611	21389
891.734	21443
891.857	21466
891.98	21275
892.103	21443
892.226	21310
892.349	21241
892.471	21119
892.594	21252
892.717	21416
892.839	21207
892.962	21351
893.085	21359
893.207	21264
893.33	21096
893.452	21154
893.575	21245
893.697	21188
893.819	21344
893.941	21431
894.064	21481
894.186	21237
894.308	21180
894.43	21260
894.552	21393
894.674	21310
894.796	21024
894.918	21195
895.04	21180
895.161	21294
895.283	21237
895.405	21226
895.526	21241
895.648	21245
895.769	21272
895.891	21218
896.012	21294
896.134	21313
896.255	21207
896.376	21192
896.498	21348
896.619	21325
896.74	21176
896.861	21382
896.982	21367
897.103	21701
897.224	21439
897.345	21420
897.466	21416
897.587	21374
897.708	21614
897.828	21458
897.949	21363
898.07	21317
898.19	21424
898.311	21564
898.431	21370
898.552	21549
898.672	21492
898.792	21568
898.913	21317
899.033	21321
899.153	21119
899.273	21043
899.393	21180
899.513	21199
899.633	21264
899.753	21180
899.873	21116
899.993	21214
900.113	21077
900.232	21135
900.352	21093
900.472	20960
900.591	20845
900.711	20971
900.83	20899
900.95	20960
901.069	20902
901.189	20864
901.308	20648
901.427	20374
901.546	20571
901.665	20434
901.784	20389
901.904	20507
902.023	20164
902.141	20130
902.26	19997
902.379	20027
902.498	20153
902.617	19963
902.735	20027
902.854	20092
902.973	19894
903.091	19708
903.21	19651
903.328	19590
903.446	19453
903.565	19441
903.683	19499
903.801	19263
903.919	19445
904.038	19491
904.156	19251
904.274	19285
904.392	19160
904.51	19114
904.627	19042
904.745	19236
904.863	19206
904.981	19023
905.098	18901
905.216	18920
905.334	18882
905.451	18886
905.569	18730
905.686	18863
905.803	18840
905.921	18563
906.038	18719
906.155	18677
906.272	18464
906.389	18536
906.506	18414
906.623	18441
906.74	18391
906.857	18258
906.974	18372
907.091	18338
907.208	18528
907.324	18502
907.441	18361
907.557	18171
907.674	18091
907.79	17977
907.907	18053
908.023	18045
908.139	18125
908.256	17939
908.372	18022
908.488	17885
908.604	17748
908.72	17756
908.836	17813
908.952	17748
909.068	17840
909.184	17931
909.3	17779
909.415	17973
909.531	17722
909.647	17589
909.762	17501
909.878	17558
909.993	17573
910.108	17414
910.224	17410
910.339	17516
910.454	17395
910.57	17349
910.685	17246
910.8	17570
910.915	17383
911.03	17239
911.145	17159
911.259	17048
911.374	17090
911.489	17033
911.604	16953
911.718	16774
911.833	16892
911.947	16820
912.062	16698
912.176	16744
912.291	16816
912.405	16904
912.519	16991
912.633	17018
912.748	16828
912.862	16831
912.976	16649
913.09	16428
913.204	16653
913.318	16554
913.431	16660
913.545	16713
913.659	16736
913.772	16558
913.886	16409
914	16284
914.113	16622
914.226	16535
914.34	16500
914.453	16318
914.566	16504
914.68	16314
914.793	16295
914.906	16124
915.019	16120
915.132	16002
915.245	15994
915.358	16017
915.47	15983
915.583	15937
915.696	15857
915.809	16082
915.921	16109
916.034	15968
916.146	15835
916.259	15892
916.371	15975
916.483	15964
916.595	15842
916.708	15869
916.82	15778
916.932	15743
917.044	15759
917.156	15698
917.268	15641
917.38	15698
917.491	15625
917.603	15675
917.715	15663
917.826	15671
917.938	15580
918.049	15382
918.161	15587
918.272	15644
918.384	15682
918.495	15663
918.606	15214
918.717	15351
918.828	15393
918.939	15317
919.05	15252
919.161	15367
919.272	15165
919.383	15211
919.494	15382
919.604	15526
919.715	15363
919.826	15302
919.936	15146
920.047	15298
920.157	15344
920.267	15595
920.378	15370
920.488	15321
920.598	15462
920.708	15553
920.818	15477
920.928	15447
921.038	15629
921.148	15606
921.258	15226
921.368	15180
921.477	14994
921.587	14963
921.697	14876
921.806	15047
921.916	14910
922.025	14720
922.134	14697
922.244	14625
922.353	14682
922.462	14533
922.571	14461
922.68	14294
922.789	14332
922.898	14244
923.007	14221
923.116	14282
923.224	14339
923.333	14275
923.442	14126
923.55	14100
923.659	14081
923.767	14267
923.876	14145
923.984	14180
924.092	14031
924.201	14020
924.309	14020
924.417	14046
924.525	13978
924.633	13909
924.741	14864
924.849	13723
924.956	13887
925.064	13685
925.172	13616
925.279	13582
925.387	13651
925.494	13628
925.602	13742
925.709	13704
925.816	13487
925.924	13590
926.031	13628
926.138	13643
926.245	13632
926.352	13556
926.459	13700
926.566	13693
926.673	13571
926.779	13320
926.886	13381
926.993	13198
927.099	13282
927.206	13160
927.312	13179
927.419	13282
927.525	13171
927.631	13240
927.737	13019
927.843	13027
927.95	12973
928.056	12958
928.162	13114
928.267	13107
928.373	13696
928.479	13091
928.585	12814
928.69	12897
928.796	12924
928.901	12798
929.007	12760
929.112	12840
929.218	12817
929.323	12738
929.428	12703
929.533	12928
929.638	12696
929.743	12677
929.848	12711
929.953	12627
930.058	12502
930.163	12410
930.267	12350
930.372	12483
930.477	12327
930.581	12536
930.685	12384
930.79	12224
930.894	12369
930.998	12228
931.103	12338
931.207	11969
931.311	11946
931.415	11790
931.519	11589
931.623	11585
