Data from test_V78500241_432.txt Node
Date: Fri Mar 25 15:44:47 CST 2022
User: usil
Spectrometer: V785-0024
Trigger mode: 0
Integration Time (sec): 4.000000E-1
Scans to average: 1
Nonlinearity correction enabled: false
Boxcar width: 0
Storing dark spectrum: false
XAxis mode: Wavelengths
Number of Pixels in Spectrum: 1024
>>>>>Begin Spectral Data<<<<<
801.071	27899
801.214	27789
801.356	27743
801.499	27557
801.641	27504
801.783	27378
801.926	27530
802.068	27374
802.211	27226
802.353	27192
802.496	27009
802.638	27108
802.78	26979
802.923	27009
803.065	26998
803.208	26948
803.35	27036
803.492	27051
803.635	27154
803.777	27180
803.919	27001
804.061	27325
804.204	27245
804.346	27161
804.488	27036
804.63	27135
804.773	27020
804.915	27055
805.057	27233
805.199	27093
805.341	27401
805.483	27161
805.626	27203
805.768	27104
805.91	27112
806.052	27336
806.194	27066
806.336	27382
806.478	27424
806.62	27252
806.762	27355
806.904	27603
807.046	27720
807.188	27591
807.33	27656
807.472	27625
807.614	27625
807.756	27469
807.898	27424
808.04	27321
808.182	27450
808.324	27431
808.465	27355
808.607	27545
808.749	27835
808.891	27873
809.033	27968
809.174	27968
809.316	27926
809.458	27895
809.6	27751
809.741	27945
809.883	27975
810.025	28166
810.166	28063
810.308	28158
810.45	28173
810.591	28040
810.733	27994
810.875	27766
811.016	27641
811.158	27652
811.299	27964
811.441	28055
811.582	27983
811.724	27816
811.865	27561
812.007	27728
812.148	27652
812.29	27816
812.431	27884
812.573	28150
812.714	28181
812.855	28234
812.997	28481
813.138	28432
813.279	28546
813.421	28363
813.562	28188
813.703	28139
813.845	27926
813.986	27739
814.127	27610
814.268	27408
814.41	27416
814.551	27302
814.692	27477
814.833	27367
814.974	27427
815.115	27382
815.256	27348
815.397	27150
815.539	27279
815.68	27241
815.821	27108
815.962	27195
816.103	27226
816.244	27100
816.385	26914
816.526	26929
816.666	26788
816.807	26667
816.948	26625
817.089	26811
817.23	26792
817.371	26651
817.512	26602
817.653	26724
817.793	26663
817.934	26636
818.075	26625
818.216	26617
818.356	26667
818.497	26366
818.638	26275
818.778	26290
818.919	26298
819.06	26358
819.2	26514
819.341	26621
819.481	26495
819.622	26648
819.762	26864
819.903	26895
820.043	26667
820.184	26678
820.324	26743
820.465	26781
820.605	26804
820.746	26606
820.886	26412
821.026	26727
821.167	26609
821.307	26663
821.447	26499
821.588	26408
821.728	26431
821.868	26183
822.008	26153
822.149	26081
822.289	26046
822.429	25757
822.569	25807
822.709	25719
822.849	25556
822.99	25419
823.13	25487
823.27	25407
823.41	25358
823.55	25221
823.69	25438
823.83	25320
823.97	25289
824.11	24958
824.25	25061
824.389	25080
824.529	25171
824.669	25076
824.809	25103
824.949	25133
825.089	25194
825.228	25190
825.368	25004
825.508	24867
825.648	25019
825.787	25004
825.927	25084
826.067	24859
826.206	24913
826.346	24970
826.485	24954
826.625	25038
826.765	25129
826.904	25053
827.044	24623
827.183	24673
827.323	24544
827.462	24639
827.601	24760
827.741	24502
827.88	24631
828.02	24574
828.159	24574
828.298	24616
828.437	24582
828.577	24566
828.716	24738
828.855	24547
828.994	24323
829.134	24330
829.273	24384
829.412	24273
829.551	24224
829.69	24114
829.829	24407
829.968	24380
830.107	24251
830.246	24239
830.385	24182
830.524	24254
830.663	23965
830.802	24041
830.941	23901
831.08	23748
831.219	23912
831.357	23920
831.496	23961
831.635	23843
831.774	23764
831.913	23684
832.051	23668
832.19	23680
832.329	23619
832.467	23554
832.606	23547
832.744	23482
832.883	23634
833.022	23512
833.16	23520
833.299	23581
833.437	23592
833.576	23649
833.714	23608
833.852	23642
833.991	23604
834.129	23775
834.267	23592
834.406	23615
834.544	23608
834.682	23562
834.821	23615
834.959	23752
835.097	23577
835.235	23581
835.373	23543
835.511	23570
835.65	23341
835.788	23433
835.926	23102
836.064	23197
836.202	23143
836.34	23398
836.478	23421
836.615	23341
836.753	23410
836.891	23531
837.029	23467
837.167	23299
837.305	23250
837.443	23212
837.58	23326
837.718	23410
837.856	23261
837.993	23181
838.131	23071
838.269	23064
838.406	23128
838.544	23140
838.681	22911
838.819	22862
838.956	22683
839.094	22656
839.231	22729
839.369	22854
839.506	23117
839.643	22930
839.781	22713
839.918	22588
840.055	22687
840.193	22569
840.33	22561
840.467	22702
840.604	22538
840.742	22957
840.879	22504
841.016	22603
841.153	22417
841.29	22679
841.427	22542
841.564	22535
841.701	22607
841.838	22470
841.975	22519
842.112	22504
842.249	22287
842.385	22318
842.522	22428
842.659	22333
842.796	22215
842.933	22276
843.069	22276
843.206	22181
843.343	22398
843.479	22356
843.616	22272
843.752	22078
843.889	22234
844.025	22196
844.162	22078
844.298	22154
844.435	22021
844.571	21930
844.708	22181
844.844	22162
844.98	22150
845.117	22124
845.253	22082
845.389	21903
845.525	22010
845.661	21972
845.798	21915
845.934	21857
846.07	21831
846.206	21854
846.342	21907
846.478	21816
846.614	21637
846.75	21420
846.886	21477
847.022	21660
847.158	21583
847.294	21572
847.429	21526
847.565	21686
847.701	21717
847.837	21294
847.972	21211
848.108	21382
848.244	21272
848.379	21180
848.515	21157
848.65	21093
848.786	21077
848.921	21161
849.057	21207
849.192	21180
849.328	21165
849.463	21074
849.598	20929
849.734	20994
849.869	21062
850.004	20952
850.14	20830
850.275	20887
850.41	20902
850.545	20842
850.68	20815
850.815	20918
850.95	20804
851.085	21013
851.22	21024
851.355	20872
851.49	20872
851.625	20857
851.76	20823
851.895	20792
852.03	20739
852.165	20895
852.299	20979
852.434	20826
852.569	20796
852.703	20727
852.838	20956
852.973	20921
853.107	20990
853.242	20777
853.376	20667
853.511	20648
853.645	20648
853.78	20754
853.914	20667
854.048	20632
854.183	20560
854.317	20693
854.451	20807
854.585	20708
854.72	20507
854.854	20785
854.988	20556
855.122	20587
855.256	20526
855.39	20781
855.524	20693
855.658	20678
855.792	20746
855.926	20731
856.06	20682
856.194	20773
856.327	20644
856.461	20613
856.595	20705
856.729	20598
856.862	20731
856.996	20640
857.13	20773
857.263	20735
857.397	20804
857.53	20533
857.664	20792
857.797	20727
857.931	20716
858.064	20716
858.197	20792
858.331	20648
858.464	20594
858.597	20457
858.731	20686
858.864	20674
858.997	20598
859.13	20598
859.263	20678
859.396	20708
859.529	20575
859.662	20526
859.795	20461
859.928	20632
860.061	20857
860.194	20746
860.327	20682
860.46	20705
860.592	20773
860.725	20857
860.858	20796
860.99	20731
861.123	20530
861.256	20484
861.388	20765
861.521	21157
861.653	20469
861.786	20438
861.918	20568
862.05	20533
862.183	20632
862.315	20674
862.447	20708
862.58	20503
862.712	20339
862.844	20377
862.976	20454
863.108	20427
863.24	20819
863.372	20305
863.504	20298
863.636	20358
863.768	20434
863.9	20313
864.032	20221
864.164	20347
864.296	20381
864.428	20389
864.559	20320
864.691	20282
864.823	20434
864.954	20389
865.086	20343
865.217	20324
865.349	20180
865.48	20347
865.612	20153
865.743	20332
865.875	20282
866.006	20142
866.137	20214
866.269	20244
866.4	20214
866.531	20138
866.662	20149
866.793	20046
866.924	20214
867.055	20191
867.186	20206
867.317	20168
867.448	20073
867.579	20134
867.71	20122
867.841	20046
867.972	20103
868.103	20233
868.233	20161
868.364	20214
868.495	20240
868.625	20450
868.756	20499
868.886	20355
869.017	20374
869.147	20533
869.278	20568
869.408	20480
869.539	20412
869.669	20583
869.799	20484
869.929	20533
870.06	20427
870.19	20785
870.32	20632
870.45	20659
870.58	20781
870.71	20956
870.84	20937
870.97	20845
871.1	20708
871.23	20883
871.36	21032
871.489	20887
871.619	20823
871.749	20971
871.879	20982
872.008	21096
872.138	21104
872.267	21009
872.397	20910
872.526	20849
872.656	20956
872.785	20918
872.915	21017
873.044	21127
873.173	21032
873.303	21104
873.432	21089
873.561	21135
873.69	21009
873.819	21085
873.948	21207
874.077	21089
874.206	21062
874.335	21013
874.464	21104
874.593	21260
874.722	21222
874.851	21287
874.979	21241
875.108	21485
875.237	21218
875.365	21062
875.494	21291
875.623	21287
875.751	21260
875.88	21188
876.008	21332
876.136	21389
876.265	21808
876.393	21713
876.521	21743
876.65	21774
876.778	21755
876.906	21705
877.034	21572
877.162	21629
877.29	21466
877.418	21652
877.546	21656
877.674	21675
877.802	21557
877.93	21614
878.058	21720
878.185	21458
878.313	21618
878.441	21679
878.568	21507
878.696	21511
878.824	21606
878.951	21724
879.079	21907
879.206	21903
879.333	21915
879.461	21618
879.588	21808
879.715	21842
879.842	21907
879.97	21720
880.097	21515
880.224	21481
880.351	21572
880.478	21485
880.605	21500
880.732	21439
880.859	21736
880.986	21504
881.112	21382
881.239	21287
881.366	21173
881.493	21142
881.619	21066
881.746	20967
881.872	21070
881.999	21058
882.125	20963
882.252	21154
882.378	21028
882.505	21173
882.631	20990
882.757	20807
882.883	20788
883.01	20773
883.136	20579
883.262	20522
883.388	20537
883.514	20830
883.64	20750
883.766	20670
883.892	20503
884.018	20568
884.143	20769
884.269	20895
884.395	20533
884.52	20495
884.646	20488
884.772	20317
884.897	20385
885.023	20332
885.148	20362
885.274	20545
885.399	20533
885.524	20408
885.65	20381
885.775	20442
885.9	20336
886.025	20571
886.15	20492
886.275	20404
886.4	20286
886.525	20385
886.65	20305
886.775	20465
886.9	20427
887.025	20632
887.149	20229
887.274	20183
887.399	20130
887.523	20084
887.648	20161
887.773	20138
887.897	20161
888.021	20218
888.146	20073
888.27	20202
888.395	20252
888.519	20240
888.643	20195
888.767	20199
888.891	20142
889.015	19989
889.139	20020
889.263	19898
889.387	20172
889.511	20122
889.635	20210
889.759	19928
889.883	19955
890.006	19978
890.13	20050
890.254	19917
890.377	19890
890.501	19837
890.624	19731
890.748	19715
890.871	19704
890.995	19556
891.118	19506
891.241	19559
891.364	19548
891.488	19655
891.611	19506
891.734	19464
891.857	19571
891.98	19552
892.103	19620
892.226	19552
892.349	19601
892.471	19407
892.594	19559
892.717	19441
892.839	19411
892.962	19396
893.085	19548
893.207	19480
893.33	19400
893.452	19362
893.575	19502
893.697	19460
893.819	19483
893.941	19586
894.064	19449
894.186	19388
894.308	19392
894.43	19510
894.552	19632
894.674	19582
894.796	19510
894.918	19552
895.04	19449
895.161	19521
895.283	19396
895.405	19381
895.526	19540
895.648	19537
895.769	19491
895.891	19537
896.012	19567
896.134	19567
896.255	19495
896.376	19632
896.498	19578
896.619	19468
896.74	19495
896.861	19506
896.982	19765
897.103	19970
897.224	19845
897.345	19780
897.466	19708
897.587	19727
897.708	19883
897.828	19788
897.949	19666
898.07	19453
898.19	19769
898.311	19765
898.431	19685
898.552	19731
898.672	19803
898.792	19769
898.913	19708
899.033	19567
899.153	19613
899.273	19377
899.393	19529
899.513	19514
899.633	19499
899.753	19506
899.873	19339
899.993	19457
900.113	19445
900.232	19464
900.352	19327
900.472	19308
900.591	19247
900.711	19312
900.83	19293
900.95	19320
901.069	19377
901.189	19190
901.308	19023
901.427	18928
901.546	18886
901.665	19061
901.784	18878
901.904	18722
902.023	18528
902.141	18525
902.26	18342
902.379	18464
902.498	18391
902.617	18395
902.735	18365
902.854	18376
902.973	18334
903.091	18072
903.21	18057
903.328	18041
903.446	17958
903.565	17893
903.683	17870
903.801	17798
903.919	17703
904.038	17786
904.156	17623
904.274	17790
904.392	17703
904.51	17551
904.627	17585
904.745	17733
904.863	17627
904.981	17410
905.098	17326
905.216	17356
905.334	17227
905.451	17315
905.569	17288
905.686	17239
905.803	17280
905.921	17079
906.038	17273
906.155	17113
906.272	16923
906.389	16980
906.506	16744
906.623	16858
906.74	16736
906.857	16733
906.974	16786
907.091	16976
907.208	16991
907.324	16820
907.441	16755
907.557	16531
907.674	16584
907.79	16466
907.907	16523
908.023	16497
908.139	16573
908.256	16481
908.372	16424
908.488	16428
908.604	16257
908.72	16207
908.836	16169
908.952	16185
909.068	16242
909.184	16303
909.3	16268
909.415	16226
909.531	16265
909.647	15998
909.762	15888
909.878	15983
909.993	16013
910.108	15895
910.224	15835
910.339	15968
910.454	15922
910.57	15797
910.685	15701
910.8	16055
910.915	15869
911.03	15842
911.145	15599
911.259	15526
911.374	15496
911.489	15492
911.604	15435
911.718	15344
911.833	15268
911.947	15214
912.062	15192
912.176	15378
912.291	15329
912.405	15348
912.519	15462
912.633	15477
912.748	15329
912.862	15302
912.976	15199
913.09	14998
913.204	15043
913.318	15047
913.431	15237
913.545	15100
913.659	15222
913.772	15074
913.886	14910
914	14944
914.113	15005
914.226	14975
914.34	15058
914.453	14781
914.566	14990
914.68	14819
914.793	14731
914.906	14670
915.019	14518
915.132	14533
915.245	14594
915.358	14743
915.47	14590
915.583	14511
915.696	14602
915.809	14640
915.921	14663
916.034	14450
916.146	14431
916.259	14419
916.371	14606
916.483	14457
916.595	14427
916.708	14332
916.82	14431
916.932	14324
917.044	14290
917.156	14267
917.268	14229
917.38	14248
917.491	14252
917.603	14233
917.715	14294
917.826	14275
917.938	14130
918.049	14039
918.161	14248
918.272	14355
918.384	14229
918.495	14062
918.606	14115
918.717	13959
918.828	14039
918.939	14084
919.05	13856
919.161	13944
919.272	13788
919.383	13837
919.494	13932
919.604	14180
919.715	13989
919.826	13997
919.936	13982
920.047	14024
920.157	13993
920.267	14161
920.378	13928
920.488	14020
920.598	14111
920.708	14317
920.818	14081
920.928	14073
921.038	14180
921.148	14225
921.258	13913
921.368	13693
921.477	13734
921.587	13674
921.697	13559
921.806	13712
921.916	13609
922.025	13327
922.134	13472
922.244	13304
922.353	13331
922.462	13339
922.571	13179
922.68	13069
922.789	12939
922.898	12981
923.007	13004
923.116	13015
923.224	12985
923.333	12989
923.442	12863
923.55	12806
923.659	12878
923.767	12787
923.876	12749
923.984	12798
924.092	12776
924.201	12711
924.309	12681
924.417	12840
924.525	12665
924.633	12654
924.741	13499
924.849	12525
924.956	12654
925.064	12528
925.172	12426
925.279	12441
925.387	12490
925.494	12471
925.602	12574
925.709	12566
925.816	12334
925.924	12486
926.031	12422
926.138	12369
926.245	12350
926.352	12228
926.459	12414
926.566	12441
926.673	12407
926.779	12209
926.886	12178
926.993	12057
927.099	12003
927.206	12038
927.312	11984
927.419	12102
927.525	12060
927.631	12079
927.737	11927
927.843	11889
927.95	11752
928.056	11843
928.162	11885
928.267	11931
928.373	12566
928.479	11992
928.585	11691
928.69	11851
928.796	11859
928.901	11733
929.007	11543
929.112	11722
929.218	11657
929.323	11627
929.428	11615
929.533	11729
929.638	11577
929.743	11554
929.848	11608
929.953	11474
930.058	11398
930.163	11231
930.267	11356
930.372	11524
930.477	11261
930.581	11444
930.685	11360
930.79	11303
930.894	11299
930.998	11124
931.103	11284
931.207	11006
931.311	10889
931.415	10759
931.519	10558
931.623	10660
