Data from test_V78500241_3314.txt Node
Date: Fri Mar 25 16:04:45 CST 2022
User: usil
Spectrometer: V785-0024
Trigger mode: 0
Integration Time (sec): 4.000000E-1
Scans to average: 1
Nonlinearity correction enabled: false
Boxcar width: 0
Storing dark spectrum: false
XAxis mode: Wavelengths
Number of Pixels in Spectrum: 1024
>>>>>Begin Spectral Data<<<<<
801.071	28725
801.214	28653
801.356	28417
801.499	28432
801.641	28325
801.783	28246
801.926	28516
802.068	28356
802.211	28337
802.353	28291
802.496	28109
802.638	28002
802.78	27979
802.923	27949
803.065	27861
803.208	27972
803.35	28082
803.492	28154
803.635	28257
803.777	28139
803.919	28489
804.061	28615
804.204	28204
804.346	28185
804.488	28242
804.63	28287
804.773	28265
804.915	28348
805.057	28500
805.199	28341
805.341	28382
805.483	28500
805.626	28325
805.768	28253
805.91	28493
806.052	28512
806.194	28379
806.336	28512
806.478	28390
806.62	28337
806.762	28653
806.904	28790
807.046	28930
807.188	28782
807.33	28778
807.472	28904
807.614	28904
807.756	28805
807.898	28877
808.04	28771
808.182	28649
808.324	28782
808.465	28812
808.607	28972
808.749	29223
808.891	29246
809.033	29254
809.174	29174
809.316	29231
809.458	29200
809.6	29064
809.741	29140
809.883	29311
810.025	29592
810.166	29581
810.308	29425
810.45	29474
810.591	29284
810.733	29239
810.875	29193
811.016	29102
811.158	29136
811.299	29231
811.441	29398
811.582	29391
811.724	29159
811.865	29231
812.007	29208
812.148	29174
812.29	29284
812.431	29414
812.573	29455
812.714	29535
812.855	29665
812.997	29745
813.138	29961
813.279	29855
813.421	29604
813.562	29649
813.703	29604
813.845	29395
813.986	29037
814.127	29048
814.268	29029
814.41	28828
814.551	28915
814.692	28927
814.833	28706
814.974	28786
815.115	29006
815.256	28668
815.397	28877
815.539	28634
815.68	28710
815.821	28626
815.962	28580
816.103	28637
816.244	28557
816.385	28577
816.526	28360
816.666	28375
816.807	28249
816.948	28363
817.089	28367
817.23	28105
817.371	28162
817.512	28078
817.653	28082
817.793	28185
817.934	28143
818.075	28322
818.216	28272
818.356	28051
818.497	28055
818.638	28063
818.778	28013
818.919	27987
819.06	28051
819.2	28177
819.341	28128
819.481	28150
819.622	28546
819.762	28550
819.903	28538
820.043	28398
820.184	28261
820.324	28120
820.465	28500
820.605	28246
820.746	28284
820.886	28230
821.026	28284
821.167	28329
821.307	28443
821.447	28344
821.588	28200
821.728	27911
821.868	27804
822.008	27739
822.149	27679
822.289	27690
822.429	27317
822.569	27382
822.709	27397
822.849	27188
822.99	27233
823.13	27150
823.27	27154
823.41	27017
823.55	26819
823.69	27116
823.83	27108
823.97	26967
824.11	26823
824.25	26872
824.389	26937
824.529	26998
824.669	26895
824.809	26861
824.949	26948
825.089	26800
825.228	27028
825.368	26629
825.508	26712
825.648	26743
825.787	26777
825.927	26796
826.067	26579
826.206	26724
826.346	26845
826.485	26963
826.625	26663
826.765	26781
826.904	26826
827.044	26579
827.183	26644
827.323	26381
827.462	26533
827.601	26568
827.741	26412
827.88	26431
828.02	26400
828.159	26393
828.298	26343
828.437	26617
828.577	26374
828.716	26480
828.855	26377
828.994	26202
829.134	26020
829.273	26157
829.412	26111
829.551	26233
829.69	26183
829.829	25997
829.968	26161
830.107	26275
830.246	26229
830.385	26046
830.524	25913
830.663	25928
830.802	25887
830.941	25769
831.08	25731
831.219	25997
831.357	25795
831.496	25963
831.635	25871
831.774	25795
831.913	25731
832.051	25537
832.19	25643
832.329	25597
832.467	25403
832.606	25362
832.744	25263
832.883	25407
833.022	25384
833.16	25335
833.299	25422
833.437	25392
833.576	25472
833.714	25419
833.852	25506
833.991	25514
834.129	25601
834.267	25563
834.406	25392
834.544	25518
834.682	25540
834.821	25510
834.959	25700
835.097	25457
835.235	25419
835.373	25476
835.511	25491
835.65	25346
835.788	25274
835.926	25327
836.064	25129
836.202	25122
836.34	25091
836.478	25331
836.615	25278
836.753	25293
836.891	25312
837.029	25324
837.167	25183
837.305	25247
837.443	25270
837.58	25137
837.718	25110
837.856	25164
837.993	25072
838.131	25168
838.269	24981
838.406	24966
838.544	24890
838.681	24814
838.819	24684
838.956	24601
839.094	24608
839.231	24620
839.369	24703
839.506	24996
839.643	24928
839.781	24798
839.918	24650
840.055	24559
840.193	24585
840.33	24574
840.467	24547
840.604	24525
840.742	24722
840.879	24433
841.016	24323
841.153	24319
841.29	24627
841.427	24509
841.564	24627
841.701	24433
841.838	24327
841.975	24330
842.112	24391
842.249	24399
842.385	24323
842.522	24410
842.659	24270
842.796	24232
842.933	24308
843.069	24277
843.206	24186
843.343	24327
843.479	24311
843.616	24289
843.752	24011
843.889	24068
844.025	24155
844.162	24095
844.298	24102
844.435	24136
844.571	24049
844.708	24015
844.844	24136
844.98	24079
845.117	24125
845.253	23920
845.389	23897
845.525	24003
845.661	23809
845.798	23748
845.934	23840
846.07	23832
846.206	23828
846.342	23855
846.478	23668
846.614	23524
846.75	23531
846.886	23410
847.022	23520
847.158	23630
847.294	23459
847.429	23547
847.565	23482
847.701	23729
847.837	23086
847.972	23044
848.108	23379
848.244	23273
848.379	23166
848.515	22991
848.65	23079
848.786	23083
848.921	23143
849.057	23242
849.192	23151
849.328	23151
849.463	22995
849.598	22999
849.734	23003
849.869	22911
850.004	22934
850.14	22885
850.275	22946
850.41	22687
850.545	22831
850.68	22725
850.815	22984
850.95	22767
851.085	22911
851.22	22995
851.355	22828
851.49	22752
851.625	22767
851.76	22786
851.895	22877
852.03	22740
852.165	22790
852.299	22885
852.434	22904
852.569	22908
852.703	22805
852.838	22942
852.973	22892
853.107	22904
853.242	22793
853.376	22763
853.511	22675
853.645	22538
853.78	22767
853.914	22679
854.048	22569
854.183	22569
854.317	22733
854.451	22854
854.585	22622
854.72	22698
854.854	22721
854.988	22630
855.122	22645
855.256	22527
855.39	22664
855.524	22668
855.658	22752
855.792	22713
855.926	22778
856.06	22755
856.194	22843
856.327	22584
856.461	22733
856.595	22641
856.729	22736
856.862	22771
856.996	22767
857.13	22759
857.263	22755
857.397	22736
857.53	22656
857.664	22664
857.797	22748
857.931	22812
858.064	22649
858.197	22736
858.331	22432
858.464	22580
858.597	22550
858.731	22634
858.864	22626
858.997	22580
859.13	22748
859.263	22565
859.396	22694
859.529	22645
859.662	22493
859.795	22584
859.928	22649
860.061	22767
860.194	22824
860.327	22649
860.46	22687
860.592	22786
860.725	22881
860.858	22767
860.99	22641
861.123	22645
861.256	22584
861.388	22615
861.521	23353
861.653	22462
861.786	22462
861.918	22462
862.05	22500
862.183	22611
862.315	22588
862.447	22702
862.58	22664
862.712	22367
862.844	22238
862.976	22542
863.108	22386
863.24	22805
863.372	22405
863.504	22310
863.636	22303
863.768	22512
863.9	22284
864.032	22299
864.164	22303
864.296	22333
864.428	22405
864.559	22447
864.691	22451
864.823	22356
864.954	22284
865.086	22348
865.217	22219
865.349	22029
865.48	22249
865.612	22310
865.743	22363
865.875	22234
866.006	22177
866.137	22314
866.269	22230
866.4	22124
866.531	22143
866.662	22131
866.793	22265
866.924	22253
867.055	22310
867.186	22181
867.317	22230
867.448	22059
867.579	22101
867.71	22010
867.841	22082
867.972	22181
868.103	22139
868.233	22238
868.364	22257
868.495	22185
868.625	22375
868.756	22523
868.886	22192
869.017	22234
869.147	22512
869.278	22440
869.408	22421
869.539	22306
869.669	22535
869.799	22512
869.929	22542
870.06	22440
870.19	22786
870.32	22691
870.45	22691
870.58	22850
870.71	22965
870.84	23010
870.97	22767
871.1	22694
871.23	23014
871.36	22987
871.489	22938
871.619	23041
871.749	22999
871.879	23067
872.008	23102
872.138	22934
872.267	23151
872.397	22843
872.526	22755
872.656	22946
872.785	22843
872.915	22980
873.044	23064
873.173	23060
873.303	23124
873.432	22984
873.561	23242
873.69	23052
873.819	23079
873.948	22995
874.077	23102
874.206	22847
874.335	23010
874.464	23178
874.593	23216
874.722	23170
874.851	23174
874.979	23334
875.108	23220
875.237	23140
875.365	23132
875.494	23269
875.623	23242
875.751	23162
875.88	23208
876.008	23368
876.136	23452
876.265	23718
876.393	23851
876.521	23741
876.65	23707
876.778	23604
876.906	23668
877.034	23444
877.162	23573
877.29	23596
877.418	23554
877.546	23600
877.674	23543
877.802	23615
877.93	23623
878.058	23448
878.185	23345
878.313	23486
878.441	23558
878.568	23379
878.696	23345
878.824	23627
878.951	23668
879.079	23805
879.206	23889
879.333	23748
879.461	23646
879.588	23646
879.715	23707
879.842	23866
879.97	23611
880.097	23318
880.224	23455
880.351	23387
880.478	23402
880.605	23334
880.732	23402
880.859	23573
880.986	23398
881.112	23467
881.239	23376
881.366	23079
881.493	23010
881.619	23083
881.746	22953
881.872	22854
881.999	22984
882.125	22980
882.252	22942
882.378	22839
882.505	23083
882.631	22809
882.757	22752
882.883	22793
883.01	22713
883.136	22588
883.262	22546
883.388	22535
883.514	22561
883.64	22702
883.766	22596
883.892	22409
884.018	22428
884.143	22691
884.269	22656
884.395	22413
884.52	22207
884.646	22223
884.772	22272
884.897	22166
885.023	22261
885.148	22348
885.274	22402
885.399	22284
885.524	22291
885.65	22284
885.775	22280
885.9	22238
886.025	22246
886.15	22291
886.275	22185
886.4	22173
886.525	22230
886.65	22253
886.775	22044
886.9	22291
887.025	22436
887.149	22207
887.274	22116
887.399	21979
887.523	22048
887.648	22002
887.773	21960
887.897	22017
888.021	21968
888.146	21922
888.27	22078
888.395	22010
888.519	21994
888.643	22021
888.767	22029
888.891	22029
889.015	21778
889.139	21808
889.263	21827
889.387	22002
889.511	21972
889.635	21979
889.759	21759
889.883	21720
890.006	21861
890.13	21857
890.254	21720
890.377	21762
890.501	21549
890.624	21587
890.748	21564
890.871	21428
890.995	21344
891.118	21310
891.241	21370
891.364	21401
891.488	21488
891.611	21412
891.734	21283
891.857	21374
891.98	21283
892.103	21340
892.226	21306
892.349	21260
892.471	21131
892.594	21336
892.717	21313
892.839	21256
892.962	21241
893.085	21344
893.207	21195
893.33	21032
893.452	21264
893.575	21268
893.697	21138
893.819	21397
893.941	21382
894.064	21386
894.186	21188
894.308	21157
894.43	21252
894.552	21382
894.674	21272
894.796	20986
894.918	21199
895.04	21233
895.161	21310
895.283	21233
895.405	21085
895.526	21192
895.648	21230
895.769	21188
895.891	21233
896.012	21306
896.134	21329
896.255	21195
896.376	21108
896.498	21226
896.619	21165
896.74	21241
896.861	21188
896.982	21580
897.103	21572
897.224	21450
897.345	21393
897.466	21405
897.587	21420
897.708	21641
897.828	21488
897.949	21443
898.07	21260
898.19	21378
898.311	21454
898.431	21359
898.552	21488
898.672	21500
898.792	21488
898.913	21443
899.033	21310
899.153	21222
899.273	21142
899.393	21138
899.513	21104
899.633	21150
899.753	21112
899.873	20975
899.993	21222
900.113	21032
900.232	21116
900.352	21135
900.472	20979
900.591	20773
900.711	20826
900.83	20876
900.95	20998
901.069	20937
901.189	20758
901.308	20469
901.427	20336
901.546	20625
901.665	20454
901.784	20476
901.904	20336
902.023	20362
902.141	19986
902.26	20039
902.379	20180
902.498	20058
902.617	19913
902.735	19913
902.854	20005
902.973	19860
903.091	19571
903.21	19696
903.328	19563
903.446	19540
903.565	19441
903.683	19403
903.801	19422
903.919	19388
904.038	19354
904.156	19259
904.274	19324
904.392	19187
904.51	19031
904.627	19156
904.745	19240
904.863	19247
904.981	18996
905.098	18837
905.216	18798
905.334	18837
905.451	18909
905.569	18749
905.686	18844
905.803	18783
905.921	18570
906.038	18639
906.155	18681
906.272	18532
906.389	18578
906.506	18372
906.623	18369
906.74	18437
906.857	18258
906.974	18235
907.091	18479
907.208	18452
907.324	18403
907.441	18205
907.557	18106
907.674	18163
907.79	17958
907.907	18053
908.023	18136
908.139	17988
908.256	18098
908.372	17942
908.488	17988
908.604	17912
908.72	17840
908.836	17832
908.952	17752
909.068	17843
909.184	17874
909.3	17775
909.415	17885
909.531	17718
909.647	17528
909.762	17467
909.878	17512
909.993	17482
910.108	17482
910.224	17551
910.339	17258
910.454	17296
910.57	17307
910.685	17204
910.8	17516
910.915	17417
911.03	17292
911.145	17029
911.259	17105
911.374	17143
911.489	16991
911.604	16908
911.718	16835
911.833	16805
911.947	16824
912.062	16649
912.176	16790
912.291	16847
912.405	16755
912.519	17014
912.633	16976
912.748	16885
912.862	16763
912.976	16694
913.09	16569
913.204	16523
913.318	16637
913.431	16740
913.545	16713
913.659	16786
913.772	16622
913.886	16382
914	16405
914.113	16440
914.226	16546
914.34	16558
914.453	16287
914.566	16352
914.68	16257
914.793	16356
914.906	16135
915.019	15876
915.132	15911
915.245	15918
915.358	16090
915.47	15998
915.583	15987
915.696	16025
915.809	16112
915.921	16101
916.034	15915
916.146	15907
916.259	15835
916.371	15895
916.483	15994
916.595	15713
916.708	15774
916.82	15808
916.932	15728
917.044	15720
917.156	15622
917.268	15564
917.38	15648
917.491	15561
917.603	15599
917.715	15568
917.826	15599
917.938	15538
918.049	15519
918.161	15519
918.272	15686
918.384	15705
918.495	15542
918.606	15401
918.717	15321
918.828	15344
918.939	15325
919.05	15192
919.161	15272
919.272	15211
919.383	15127
919.494	15401
919.604	15435
919.715	15367
919.826	15195
919.936	15233
920.047	15287
920.157	15237
920.267	15447
920.378	15344
920.488	15256
920.598	15496
920.708	15641
920.818	15469
920.928	15496
921.038	15549
921.148	15610
921.258	15222
921.368	15108
921.477	15081
921.587	15047
921.697	14944
921.806	14982
921.916	14819
922.025	14731
922.134	14632
922.244	14617
922.353	14644
922.462	14408
922.571	14423
922.68	14404
922.789	14286
922.898	14377
923.007	14164
923.116	14225
923.224	14267
923.333	14225
923.442	14092
923.55	14092
923.659	14164
923.767	14077
923.876	14062
923.984	14081
924.092	13989
924.201	13974
924.309	13925
924.417	13932
924.525	14005
924.633	13791
924.741	14788
924.849	13632
924.956	13814
925.064	13734
925.172	13578
925.279	13472
925.387	13670
925.494	13731
925.602	13765
925.709	13681
925.816	13548
925.924	13571
926.031	13689
926.138	13567
926.245	13643
926.352	13438
926.459	13502
926.566	13594
926.673	13449
926.779	13396
926.886	13358
926.993	13266
927.099	13217
927.206	13141
927.312	13179
927.419	13274
927.525	13126
927.631	13179
927.737	13072
927.843	13072
927.95	12916
928.056	12947
928.162	13023
928.267	13126
928.373	13723
928.479	13103
928.585	12787
928.69	12958
928.796	12913
928.901	12814
929.007	12696
929.112	12859
929.218	12852
929.323	12795
929.428	12665
929.533	12848
929.638	12703
929.743	12612
929.848	12791
929.953	12665
930.058	12620
930.163	12426
930.267	12369
930.372	12498
930.477	12342
930.581	12582
930.685	12448
930.79	12270
930.894	12308
930.998	12266
931.103	12342
931.207	11999
931.311	11999
931.415	11817
931.519	11653
931.623	11558
