Data from test_V78500241_1472.txt Node
Date: Fri Mar 25 15:51:59 CST 2022
User: usil
Spectrometer: V785-0024
Trigger mode: 0
Integration Time (sec): 4.000000E-1
Scans to average: 1
Nonlinearity correction enabled: false
Boxcar width: 0
Storing dark spectrum: false
XAxis mode: Wavelengths
Number of Pixels in Spectrum: 1024
>>>>>Begin Spectral Data<<<<<
801.071	27051
801.214	27070
801.356	26842
801.499	26746
801.641	26765
801.783	26632
801.926	26648
802.068	26636
802.211	26545
802.353	26522
802.496	26317
802.638	26320
802.78	26305
802.923	26362
803.065	26168
803.208	26240
803.35	26252
803.492	26267
803.635	26408
803.777	26362
803.919	26412
804.061	26739
804.204	26488
804.346	26381
804.488	26336
804.63	26358
804.773	26324
804.915	26450
805.057	26499
805.199	26503
805.341	26465
805.483	26434
805.626	26560
805.768	26408
805.91	26511
806.052	26609
806.194	26351
806.336	26579
806.478	26446
806.62	26465
806.762	26575
806.904	26826
807.046	27013
807.188	26986
807.33	26979
807.472	27043
807.614	26689
807.756	26815
807.898	26785
808.04	26735
808.182	26705
808.324	26811
808.465	26929
808.607	26994
808.749	27116
808.891	27123
809.033	27363
809.174	27157
809.316	27176
809.458	27074
809.6	27188
809.741	27154
809.883	27237
810.025	27553
810.166	27336
810.308	27583
810.45	27416
810.591	27279
810.733	27249
810.875	27135
811.016	26921
811.158	26902
811.299	27112
811.441	27146
811.582	27157
811.724	27043
811.865	26960
812.007	27085
812.148	27062
812.29	27138
812.431	27214
812.573	27222
812.714	27412
812.855	27648
812.997	27644
813.138	27728
813.279	27778
813.421	27515
813.562	27488
813.703	27291
813.845	27195
813.986	26861
814.127	26872
814.268	26876
814.41	26716
814.551	26769
814.692	26842
814.833	26708
814.974	26579
815.115	26785
815.256	26629
815.397	26549
815.539	26689
815.68	26632
815.821	26427
815.962	26636
816.103	26465
816.244	26381
816.385	26377
816.526	26317
816.666	26149
816.807	26001
816.948	26001
817.089	25986
817.23	26020
817.371	25959
817.512	26054
817.653	25906
817.793	26054
817.934	25986
818.075	26065
818.216	25997
818.356	25871
818.497	25811
818.638	25689
818.778	25761
818.919	25674
819.06	25674
819.2	25822
819.341	25993
819.481	25909
819.622	26168
819.762	26400
819.903	26347
820.043	26233
820.184	25925
820.324	26043
820.465	26187
820.605	26092
820.746	26046
820.886	25932
821.026	26084
821.167	26115
821.307	26275
821.447	26138
821.588	25818
821.728	25628
821.868	25738
822.008	25468
822.149	25537
822.289	25453
822.429	25190
822.569	25141
822.709	25118
822.849	24977
822.99	25069
823.13	25015
823.27	24700
823.41	24764
823.55	24669
823.69	24875
823.83	24875
823.97	24821
824.11	24540
824.25	24563
824.389	24513
824.529	24696
824.669	24639
824.809	24700
824.949	24719
825.089	24639
825.228	24635
825.368	24452
825.508	24525
825.648	24429
825.787	24410
825.927	24517
826.067	24456
826.206	24475
826.346	24475
826.485	24426
826.625	24418
826.765	24555
826.904	24479
827.044	24285
827.183	24205
827.323	24167
827.462	24110
827.601	24136
827.741	24213
827.88	24323
828.02	24140
828.159	24117
828.298	24163
828.437	24098
828.577	24148
828.716	24235
828.855	23912
828.994	23783
829.134	23870
829.273	23912
829.412	23809
829.551	23665
829.69	23912
829.829	23912
829.968	23931
830.107	23954
830.246	23866
830.385	23691
830.524	23687
830.663	23646
830.802	23459
830.941	23433
831.08	23459
831.219	23524
831.357	23516
831.496	23710
831.635	23490
831.774	23353
831.913	23288
832.051	23178
832.19	23250
832.329	23246
832.467	23143
832.606	23136
832.744	23052
832.883	23208
833.022	23025
833.16	23147
833.299	23159
833.437	23056
833.576	23246
833.714	23159
833.852	23254
833.991	23132
834.129	23250
834.267	23212
834.406	23193
834.544	23197
834.682	23208
834.821	23128
834.959	23376
835.097	23102
835.235	23242
835.373	23044
835.511	23090
835.65	23029
835.788	23121
835.926	22900
836.064	22900
836.202	22915
836.34	23086
836.478	23166
836.615	23067
836.753	22984
836.891	23121
837.029	23060
837.167	22949
837.305	22911
837.443	22896
837.58	22793
837.718	22953
837.856	22904
837.993	22809
838.131	22953
838.269	22694
838.406	22786
838.544	22702
838.681	22413
838.819	22504
838.956	22322
839.094	22303
839.231	22432
839.369	22550
839.506	22839
839.643	22634
839.781	22322
839.918	22234
840.055	22230
840.193	22375
840.33	22265
840.467	22295
840.604	22246
840.742	22508
840.879	22211
841.016	22348
841.153	22181
841.29	22405
841.427	22177
841.564	22226
841.701	22188
841.838	22154
841.975	22082
842.112	22078
842.249	22109
842.385	21998
842.522	22185
842.659	22002
842.796	21953
842.933	21987
843.069	21968
843.206	21960
843.343	22010
843.479	21960
843.616	22116
843.752	21781
843.889	21797
844.025	21960
844.162	21713
844.298	21979
844.435	21808
844.571	21766
844.708	21945
844.844	21903
844.98	21857
845.117	21816
845.253	21717
845.389	21701
845.525	21679
845.661	21583
845.798	21511
845.934	21530
846.07	21507
846.206	21545
846.342	21504
846.478	21511
846.614	21325
846.75	21310
846.886	21344
847.022	21382
847.158	21211
847.294	21283
847.429	21332
847.565	21367
847.701	21443
847.837	21009
847.972	21051
848.108	21195
848.244	21077
848.379	20918
848.515	21039
848.65	20739
848.786	20857
848.921	20705
849.057	21005
849.192	20895
849.328	20906
849.463	20872
849.598	20807
849.734	20777
849.869	20716
850.004	20632
850.14	20598
850.275	20556
850.41	20549
850.545	20526
850.68	20617
850.815	20552
850.95	20571
851.085	20849
851.22	20724
851.355	20648
851.49	20667
851.625	20632
851.76	20629
851.895	20545
852.03	20568
852.165	20632
852.299	20568
852.434	20731
852.569	20651
852.703	20621
852.838	20636
852.973	20804
853.107	20727
853.242	20568
853.376	20450
853.511	20355
853.645	20537
853.78	20549
853.914	20427
854.048	20480
854.183	20339
854.317	20552
854.451	20682
854.585	20438
854.72	20492
854.854	20579
854.988	20393
855.122	20469
855.256	20252
855.39	20484
855.524	20461
855.658	20541
855.792	20602
855.926	20537
856.06	20617
856.194	20651
856.327	20476
856.461	20317
856.595	20431
856.729	20389
856.862	20640
856.996	20454
857.13	20560
857.263	20575
857.397	20465
857.53	20389
857.664	20579
857.797	20507
857.931	20644
858.064	20351
858.197	20640
858.331	20427
858.464	20507
858.597	20298
858.731	20294
858.864	20385
858.997	20434
859.13	20518
859.263	20465
859.396	20613
859.529	20408
859.662	20442
859.795	20476
859.928	20594
860.061	20617
860.194	20632
860.327	20533
860.46	20587
860.592	20579
860.725	20689
860.858	20541
860.99	20450
861.123	20438
861.256	20533
861.388	20362
861.521	21260
861.653	20298
861.786	20324
861.918	20374
862.05	20423
862.183	20370
862.315	20317
862.447	20503
862.58	20431
862.712	20191
862.844	20183
862.976	20351
863.108	20202
863.24	20644
863.372	20138
863.504	20168
863.636	20126
863.768	20088
863.9	20180
864.032	20062
864.164	20119
864.296	20180
864.428	20313
864.559	20221
864.691	20313
864.823	20286
864.954	20149
865.086	20126
865.217	20218
865.349	20115
865.48	20157
865.612	20161
865.743	20142
865.875	20111
866.006	20153
866.137	20073
866.269	20092
866.4	20096
866.531	19944
866.662	19986
866.793	20027
866.924	20031
867.055	19986
867.186	20027
867.317	20008
867.448	19955
867.579	20027
867.71	19997
867.841	19928
867.972	20084
868.103	20111
868.233	20001
868.364	20035
868.495	20020
868.625	20278
868.756	20503
868.886	20092
869.017	20244
869.147	20355
869.278	20389
869.408	20191
869.539	20237
869.669	20427
869.799	20229
869.929	20358
870.06	20343
870.19	20575
870.32	20583
870.45	20579
870.58	20724
870.71	20921
870.84	20613
870.97	20708
871.1	20674
871.23	20845
871.36	20902
871.489	20750
871.619	20861
871.749	20834
871.879	20880
872.008	20952
872.138	20861
872.267	20956
872.397	20735
872.526	20693
872.656	20762
872.785	20765
872.915	20918
873.044	20906
873.173	20933
873.303	21077
873.432	21036
873.561	21028
873.69	20781
873.819	20937
873.948	20994
874.077	20960
874.206	20910
874.335	21020
874.464	21062
874.593	21138
874.722	21093
874.851	21039
874.979	21096
875.108	21287
875.237	21112
875.365	21096
875.494	21009
875.623	21283
875.751	21070
875.88	21192
876.008	21348
876.136	21359
876.265	21610
876.393	21523
876.521	21530
876.65	21538
876.778	21641
876.906	21359
877.034	21408
877.162	21374
877.29	21496
877.418	21507
877.546	21462
877.674	21496
877.802	21435
877.93	21431
878.058	21435
878.185	21469
878.313	21424
878.441	21401
878.568	21313
878.696	21504
878.824	21481
878.951	21542
879.079	21606
879.206	21732
879.333	21690
879.461	21542
879.588	21629
879.715	21599
879.842	21774
879.97	21606
880.097	21378
880.224	21325
880.351	21378
880.478	21329
880.605	21226
880.732	21416
880.859	21644
880.986	21298
881.112	21268
881.239	21272
881.366	21058
881.493	20963
881.619	20861
881.746	21020
881.872	21043
881.999	20804
882.125	20762
882.252	20933
882.378	20994
882.505	20963
882.631	20868
882.757	20705
882.883	20788
883.01	20598
883.136	20575
883.262	20533
883.388	20514
883.514	20594
883.64	20564
883.766	20537
883.892	20396
884.018	20446
884.143	20640
884.269	20655
884.395	20377
884.52	20195
884.646	20233
884.772	20138
884.897	20168
885.023	20320
885.148	20381
885.274	20336
885.399	20377
885.524	20233
885.65	20328
885.775	20240
885.9	20206
886.025	20358
886.15	20256
886.275	20065
886.4	20126
886.525	20157
886.65	20187
886.775	20122
886.9	20385
887.025	20427
887.149	20172
887.274	20134
887.399	20043
887.523	20126
887.648	19955
887.773	19894
887.897	20122
888.021	20077
888.146	20012
888.27	20130
888.395	20218
888.519	20100
888.643	20081
888.767	20031
888.891	19963
889.015	19868
889.139	19921
889.263	19845
889.387	19989
889.511	20043
889.635	19932
889.759	19765
889.883	19822
890.006	19791
890.13	20016
890.254	19693
890.377	19761
890.501	19575
890.624	19525
890.748	19704
890.871	19514
890.995	19377
891.118	19335
891.241	19430
891.364	19434
891.488	19620
891.611	19472
891.734	19403
891.857	19537
891.98	19502
892.103	19506
892.226	19449
892.349	19480
892.471	19209
892.594	19407
892.717	19480
892.839	19312
892.962	19384
893.085	19407
893.207	19419
893.33	19274
893.452	19335
893.575	19308
893.697	19194
893.819	19502
893.941	19506
894.064	19434
894.186	19278
894.308	19194
894.43	19308
894.552	19491
894.674	19483
894.796	19206
894.918	19411
895.04	19476
895.161	19495
895.283	19339
895.405	19362
895.526	19346
895.648	19282
895.769	19457
895.891	19422
896.012	19491
896.134	19445
896.255	19388
896.376	19377
896.498	19362
896.619	19434
896.74	19415
896.861	19449
896.982	19693
897.103	19807
897.224	19715
897.345	19613
897.466	19499
897.587	19696
897.708	19799
897.828	19746
897.949	19476
898.07	19407
898.19	19499
898.311	19723
898.431	19571
898.552	19788
898.672	19670
898.792	19635
898.913	19662
899.033	19537
899.153	19384
899.273	19384
899.393	19407
899.513	19502
899.633	19411
899.753	19438
899.873	19312
899.993	19430
900.113	19301
900.232	19422
900.352	19308
900.472	19072
900.591	19228
900.711	19240
900.83	19141
900.95	19198
901.069	19350
901.189	19034
901.308	18863
901.427	18840
901.546	18806
901.665	18749
901.784	18810
901.904	18730
902.023	18452
902.141	18327
902.26	18235
902.379	18395
902.498	18407
902.617	18342
902.735	18426
902.854	18338
902.973	18159
903.091	17965
903.21	17984
903.328	18068
903.446	17874
903.565	17832
903.683	17904
903.801	17570
903.919	17722
904.038	17687
904.156	17630
904.274	17566
904.392	17558
904.51	17505
904.627	17516
904.745	17642
904.863	17581
904.981	17246
905.098	17151
905.216	17265
905.334	17200
905.451	17189
905.569	17166
905.686	17387
905.803	17265
905.921	17018
906.038	17083
906.155	17113
906.272	16961
906.389	16934
906.506	16641
906.623	16763
906.74	16668
906.857	16691
906.974	16660
907.091	16755
907.208	16843
907.324	16717
907.441	16675
907.557	16466
907.674	16421
907.79	16352
907.907	16436
908.023	16497
908.139	16504
908.256	16379
908.372	16318
908.488	16394
908.604	16280
908.72	16196
908.836	16211
908.952	16215
909.068	16204
909.184	16284
909.3	16177
909.415	16238
909.531	16173
909.647	15842
909.762	15949
909.878	15873
909.993	16002
910.108	15861
910.224	15739
910.339	15953
910.454	15816
910.57	15675
910.685	15660
910.8	16067
910.915	15850
911.03	15781
911.145	15614
911.259	15511
911.374	15542
911.489	15507
911.604	15378
911.718	15374
911.833	15355
911.947	15207
912.062	15077
912.176	15241
912.291	15298
912.405	15283
912.519	15443
912.633	15397
912.748	15355
912.862	15268
912.976	15074
913.09	14925
913.204	15074
913.318	15032
913.431	15169
913.545	15150
913.659	15214
913.772	14998
913.886	14948
914	14948
914.113	14937
914.226	15104
914.34	14899
914.453	14857
914.566	14971
914.68	14727
914.793	14750
914.906	14571
915.019	14583
915.132	14473
915.245	14579
915.358	14530
915.47	14526
915.583	14533
915.696	14488
915.809	14590
915.921	14621
916.034	14450
916.146	14484
916.259	14415
916.371	14560
916.483	14423
916.595	14351
916.708	14438
916.82	14423
916.932	14252
917.044	14237
917.156	14328
917.268	14191
917.38	14225
917.491	14221
917.603	14237
917.715	14286
917.826	14294
917.938	14123
918.049	13967
918.161	14119
918.272	14229
918.384	14298
918.495	14126
918.606	13982
918.717	13860
918.828	13978
918.939	14027
919.05	13849
919.161	13898
919.272	13826
919.383	13765
919.494	14039
919.604	14180
919.715	13947
919.826	13902
919.936	13913
920.047	14020
920.157	14020
920.267	14119
920.378	13921
920.488	13913
920.598	14115
920.708	14278
920.818	14092
920.928	14111
921.038	14187
921.148	14119
921.258	13909
921.368	13799
921.477	13715
921.587	13674
921.697	13590
921.806	13708
921.916	13491
922.025	13453
922.134	13396
922.244	13335
922.353	13384
922.462	13206
922.571	13126
922.68	13080
922.789	12985
922.898	13038
923.007	13019
923.116	13004
923.224	12916
923.333	12981
923.442	12875
923.55	12833
923.659	12970
923.767	12856
923.876	12863
923.984	12852
924.092	12764
924.201	12757
924.309	12795
924.417	12829
924.525	12639
924.633	12738
924.741	13556
924.849	12414
924.956	12715
925.064	12395
925.172	12422
925.279	12418
925.387	12464
925.494	12448
925.602	12547
925.709	12544
925.816	12361
925.924	12399
926.031	12353
926.138	12395
926.245	12410
926.352	12258
926.459	12448
926.566	12437
926.673	12346
926.779	12220
926.886	12213
926.993	12022
927.099	12045
927.206	11977
927.312	11954
927.419	12087
927.525	12015
927.631	12068
927.737	11988
927.843	11828
927.95	11748
928.056	11832
928.162	11866
928.267	11980
928.373	12574
928.479	11992
928.585	11733
928.69	11737
928.796	11851
928.901	11703
929.007	11592
929.112	11661
929.218	11691
929.323	11566
929.428	11539
929.533	11748
929.638	11535
929.743	11554
929.848	11676
929.953	11672
930.058	11486
930.163	11269
930.267	11330
930.372	11379
930.477	11280
930.581	11474
930.685	11288
930.79	11193
930.894	11254
930.998	11189
931.103	11250
931.207	11014
931.311	10866
931.415	10763
931.519	10622
931.623	10569
