Data from test_V78500241_963.txt Node
Date: Fri Mar 25 15:48:28 CST 2022
User: usil
Spectrometer: V785-0024
Trigger mode: 0
Integration Time (sec): 4.000000E-1
Scans to average: 1
Nonlinearity correction enabled: false
Boxcar width: 0
Storing dark spectrum: false
XAxis mode: Wavelengths
Number of Pixels in Spectrum: 1024
>>>>>Begin Spectral Data<<<<<
801.071	28596
801.214	28443
801.356	28310
801.499	28287
801.641	28200
801.783	28188
801.926	28150
802.068	28257
802.211	28124
802.353	28116
802.496	27876
802.638	27991
802.78	27884
802.923	27625
803.065	27800
803.208	27861
803.35	27876
803.492	27922
803.635	28025
803.777	27945
803.919	28059
804.061	28242
804.204	28120
804.346	27975
804.488	27964
804.63	28082
804.773	28040
804.915	27987
805.057	28162
805.199	28017
805.341	28185
805.483	28246
805.626	28287
805.768	28200
805.91	28078
806.052	28318
806.194	28139
806.336	28295
806.478	28261
806.62	28299
806.762	28447
806.904	28447
807.046	28565
807.188	28702
807.33	28778
807.472	28805
807.614	28519
807.756	28748
807.898	28542
808.04	28649
808.182	28535
808.324	28607
808.465	28626
808.607	28850
808.749	28968
808.891	28957
809.033	29044
809.174	28953
809.316	29003
809.458	28809
809.6	28854
809.741	29079
809.883	29174
810.025	29197
810.166	29246
810.308	29341
810.45	29132
810.591	29197
810.733	28987
810.875	28923
811.016	28847
811.158	28755
811.299	28987
811.441	29105
811.582	29132
811.724	28995
811.865	28953
812.007	28976
812.148	28919
812.29	29151
812.431	29037
812.573	29220
812.714	29452
812.855	29375
812.997	29493
813.138	29718
813.279	29634
813.421	29482
813.562	29512
813.703	29231
813.845	29334
813.986	28942
814.127	28763
814.268	28641
814.41	28603
814.551	28740
814.692	28759
814.833	28546
814.974	28752
815.115	28683
815.256	28500
815.397	28367
815.539	28417
815.68	28470
815.821	28379
815.962	28504
816.103	28470
816.244	28314
816.385	28322
816.526	28299
816.666	28143
816.807	27964
816.948	28097
817.089	27991
817.23	28055
817.371	27975
817.512	28025
817.653	27934
817.793	28025
817.934	27941
818.075	28105
818.216	27983
818.356	27922
818.497	27956
818.638	27736
818.778	27698
818.919	27622
819.06	27789
819.2	27850
819.341	27987
819.481	27869
819.622	28055
819.762	28207
819.903	28257
820.043	28219
820.184	28059
820.324	28032
820.465	28265
820.605	27979
820.746	28006
820.886	27956
821.026	28032
821.167	28078
821.307	28131
821.447	28013
821.588	27861
821.728	27827
821.868	27614
822.008	27477
822.149	27412
822.289	27477
822.429	27146
822.569	27195
822.709	27116
822.849	26979
822.99	27058
823.13	26944
823.27	26876
823.41	26937
823.55	26667
823.69	26971
823.83	26800
823.97	26735
824.11	26571
824.25	26602
824.389	26568
824.529	26640
824.669	26670
824.809	26735
824.949	26568
825.089	26823
825.228	26716
825.368	26453
825.508	26408
825.648	26541
825.787	26575
825.927	26473
826.067	26370
826.206	26511
826.346	26343
826.485	26499
826.625	26503
826.765	26636
826.904	26571
827.044	26149
827.183	26164
827.323	26191
827.462	26355
827.601	26206
827.741	26286
827.88	26332
828.02	26180
828.159	26210
828.298	26195
828.437	26355
828.577	26119
828.716	26389
828.855	26100
828.994	25890
829.134	25879
829.273	25947
829.412	25826
829.551	25757
829.69	25868
829.829	25887
829.968	25947
830.107	25974
830.246	25932
830.385	25875
830.524	25807
830.663	25788
830.802	25647
830.941	25521
831.08	25483
831.219	25651
831.357	25548
831.496	25731
831.635	25483
831.774	25487
831.913	25373
832.051	25282
832.19	25301
832.329	25381
832.467	25346
832.606	25183
832.744	25107
832.883	25209
833.022	25008
833.16	25145
833.299	25255
833.437	25175
833.576	25198
833.714	25259
833.852	25274
833.991	25225
834.129	25259
834.267	25228
834.406	25331
834.544	25190
834.682	25232
834.821	25270
834.959	25411
835.097	25088
835.235	25255
835.373	25110
835.511	25244
835.65	25099
835.788	25133
835.926	24871
836.064	24837
836.202	24947
836.34	25080
836.478	25148
836.615	25099
836.753	25023
836.891	25228
837.029	25099
837.167	25095
837.305	24882
837.443	24932
837.58	24897
837.718	25023
837.856	24996
837.993	24795
838.131	24943
838.269	24692
838.406	24840
838.544	24681
838.681	24513
838.819	24475
838.956	24289
839.094	24388
839.231	24372
839.369	24513
839.506	24768
839.643	24623
839.781	24289
839.918	24289
840.055	24327
840.193	24353
840.33	24273
840.467	24353
840.604	24395
840.742	24604
840.879	24015
841.016	24174
841.153	24148
841.29	24372
841.427	24224
841.564	24289
841.701	24243
841.838	24171
841.975	24232
842.112	24209
842.249	23999
842.385	23942
842.522	24232
842.659	24114
842.796	24011
842.933	24064
843.069	23965
843.206	23912
843.343	23988
843.479	24015
843.616	23893
843.752	23779
843.889	23840
844.025	23821
844.162	23779
844.298	23859
844.435	23718
844.571	23745
844.708	23783
844.844	23942
844.98	23931
845.117	23882
845.253	23665
845.389	23710
845.525	23684
845.661	23630
845.798	23490
845.934	23535
846.07	23490
846.206	23653
846.342	23573
846.478	23512
846.614	23189
846.75	23280
846.886	23109
847.022	23269
847.158	23208
847.294	23102
847.429	23185
847.565	23143
847.701	23459
847.837	23041
847.972	22900
848.108	23052
848.244	23010
848.379	22778
848.515	22915
848.65	22930
848.786	22854
848.921	22782
849.057	22812
849.192	22866
849.328	22812
849.463	22835
849.598	22877
849.734	22691
849.869	22683
850.004	22580
850.14	22649
850.275	22634
850.41	22508
850.545	22436
850.68	22557
850.815	22641
850.95	22634
851.085	22755
851.22	22679
851.355	22710
851.49	22527
851.625	22592
851.76	22645
851.895	22485
852.03	22516
852.165	22504
852.299	22672
852.434	22584
852.569	22637
852.703	22516
852.838	22630
852.973	22748
853.107	22733
853.242	22573
853.376	22314
853.511	22150
853.645	22344
853.78	22523
853.914	22443
854.048	22238
854.183	22348
854.317	22462
854.451	22702
854.585	22352
854.72	22360
854.854	22333
854.988	22382
855.122	22409
855.256	22287
855.39	22497
855.524	22519
855.658	22291
855.792	22462
855.926	22314
856.06	22508
856.194	22344
856.327	22325
856.461	22375
856.595	22314
856.729	22386
856.862	22523
856.996	22462
857.13	22466
857.263	22523
857.397	22630
857.53	22485
857.664	22474
857.797	22398
857.931	22478
858.064	22497
858.197	22637
858.331	22272
858.464	22306
858.597	22253
858.731	22402
858.864	22428
858.997	22268
859.13	22409
859.263	22493
859.396	22421
859.529	22363
859.662	22432
859.795	22310
859.928	22303
860.061	22615
860.194	22519
860.327	22413
860.46	22508
860.592	22531
860.725	22474
860.858	22527
860.99	22386
861.123	22341
861.256	22398
861.388	22352
861.521	23006
861.653	22299
861.786	22166
861.918	22135
862.05	22265
862.183	22257
862.315	22382
862.447	22333
862.58	22280
862.712	22059
862.844	22207
862.976	22257
863.108	22150
863.24	22360
863.372	22101
863.504	22051
863.636	22181
863.768	22105
863.9	22162
864.032	22010
864.164	21987
864.296	22021
864.428	22196
864.559	22147
864.691	22116
864.823	22010
864.954	22074
865.086	22036
865.217	22044
865.349	21812
865.48	21903
865.612	21983
865.743	22143
865.875	22074
866.006	21937
866.137	22021
866.269	21956
866.4	22086
866.531	21945
866.662	21884
866.793	21975
866.924	22101
867.055	21888
867.186	21972
867.317	21854
867.448	21797
867.579	21960
867.71	21816
867.841	21842
867.972	21720
868.103	21854
868.233	21949
868.364	21991
868.495	22013
868.625	22067
868.756	22196
868.886	22150
869.017	22166
869.147	22223
869.278	22284
869.408	22200
869.539	22303
869.669	22185
869.799	22093
869.929	22325
870.06	22230
870.19	22481
870.32	22417
870.45	22409
870.58	22428
870.71	22599
870.84	22584
870.97	22573
871.1	22592
871.23	22767
871.36	22618
871.489	22599
871.619	22733
871.749	22691
871.879	22763
872.008	22839
872.138	22634
872.267	22664
872.397	22592
872.526	22523
872.656	22569
872.785	22569
872.915	22797
873.044	22824
873.173	22869
873.303	22725
873.432	22782
873.561	22797
873.69	22778
873.819	22717
873.948	22831
874.077	22752
874.206	22694
874.335	22862
874.464	22835
874.593	22915
874.722	22889
874.851	23037
874.979	23064
875.108	23033
875.237	22946
875.365	22869
875.494	22957
875.623	22995
875.751	22881
875.88	22942
876.008	23079
876.136	23132
876.265	23345
876.393	23505
876.521	23368
876.65	23402
876.778	23372
876.906	23254
877.034	23204
877.162	23433
877.29	23220
877.418	23372
877.546	23296
877.674	23261
877.802	23360
877.93	23231
878.058	23322
878.185	23254
878.313	23277
878.441	23212
878.568	23155
878.696	23197
878.824	23303
878.951	23383
879.079	23440
879.206	23547
879.333	23501
879.461	23417
879.588	23345
879.715	23566
879.842	23573
879.97	23353
880.097	23155
880.224	23056
880.351	23052
880.478	23250
880.605	23052
880.732	23147
880.859	23250
880.986	23010
881.112	23079
881.239	22938
881.366	22869
881.493	22828
881.619	22656
881.746	22694
881.872	22797
881.999	22668
882.125	22649
882.252	22736
882.378	22577
882.505	22717
882.631	22607
882.757	22265
882.883	22519
883.01	22379
883.136	22291
883.262	22226
883.388	22112
883.514	22291
883.64	22367
883.766	22223
883.892	22025
884.018	22135
884.143	22306
884.269	22287
884.395	21930
884.52	21983
884.646	22006
884.772	21960
884.897	21838
885.023	22051
885.148	22131
885.274	22078
885.399	22116
885.524	21930
885.65	22006
885.775	21964
885.9	21991
886.025	22173
886.15	22021
886.275	22006
886.4	21975
886.525	21949
886.65	21968
886.775	21915
886.9	22105
887.025	22219
887.149	21975
887.274	21720
887.399	21876
887.523	21717
887.648	21561
887.773	21667
887.897	21785
888.021	21812
888.146	21698
888.27	21880
888.395	21793
888.519	21770
888.643	21690
888.767	21751
888.891	21534
889.015	21633
889.139	21515
889.263	21538
889.387	21675
889.511	21717
889.635	21747
889.759	21469
889.883	21583
890.006	21572
890.13	21542
890.254	21447
890.377	21534
890.501	21214
890.624	21268
890.748	21279
890.871	21024
890.995	21058
891.118	21112
891.241	21184
891.364	21142
891.488	21161
891.611	21055
891.734	21195
891.857	21249
891.98	21135
892.103	21184
892.226	21043
892.349	20906
892.471	20845
892.594	21119
892.717	21055
892.839	20921
892.962	21062
893.085	21081
893.207	20986
893.33	20929
893.452	20902
893.575	21119
893.697	20925
893.819	21184
893.941	21116
894.064	21161
894.186	20967
894.308	20819
894.43	21055
894.552	21142
894.674	21074
894.796	20960
894.918	20956
895.04	20982
895.161	20933
895.283	21020
895.405	20902
895.526	20910
895.648	20899
895.769	21017
895.891	21032
896.012	21039
896.134	21009
896.255	20952
896.376	20868
896.498	21028
896.619	21085
896.74	21066
896.861	20880
896.982	21344
897.103	21287
897.224	21150
897.345	21131
897.466	21077
897.587	21161
897.708	21351
897.828	21146
897.949	21157
898.07	21001
898.19	21184
898.311	21249
898.431	21062
898.552	21165
898.672	21222
898.792	21443
898.913	21169
899.033	20994
899.153	20937
899.273	20834
899.393	20891
899.513	20895
899.633	20944
899.753	20906
899.873	20811
899.993	20857
900.113	20868
900.232	21013
900.352	20921
900.472	20773
900.591	20549
900.711	20777
900.83	20640
900.95	20678
901.069	20788
901.189	20598
901.308	20305
901.427	20237
901.546	20366
901.665	20229
901.784	20317
901.904	20161
902.023	20005
902.141	19757
902.26	19925
902.379	19913
902.498	19894
902.617	19814
902.735	19784
902.854	19852
902.973	19552
903.091	19445
903.21	19350
903.328	19350
903.446	19228
903.565	19160
903.683	19099
903.801	19148
903.919	19080
904.038	19168
904.156	18966
904.274	19084
904.392	18958
904.51	18943
904.627	18981
904.745	18954
904.863	18996
904.981	18817
905.098	18620
905.216	18673
905.334	18635
905.451	18642
905.569	18547
905.686	18661
905.803	18490
905.921	18471
906.038	18513
906.155	18494
906.272	18403
906.389	18304
906.506	18209
906.623	18140
906.74	18110
906.857	18114
906.974	18076
907.091	18220
907.208	18220
907.324	18121
907.441	18011
907.557	17813
907.674	17920
907.79	17855
907.907	17832
908.023	17870
908.139	17847
908.256	17764
908.372	17786
908.488	17748
908.604	17600
908.72	17539
908.836	17581
908.952	17573
909.068	17558
909.184	17665
909.3	17668
909.415	17520
909.531	17505
909.647	17250
909.762	17193
909.878	17261
909.993	17364
910.108	17322
910.224	17212
910.339	17307
910.454	17216
910.57	17132
910.685	16976
910.8	17273
910.915	17349
911.03	17151
911.145	16835
911.259	16965
911.374	16771
911.489	16733
911.604	16721
911.718	16584
911.833	16493
911.947	16519
912.062	16504
912.176	16668
912.291	16664
912.405	16641
912.519	16759
912.633	16736
912.748	16607
912.862	16611
912.976	16436
913.09	16325
913.204	16421
913.318	16405
913.431	16588
913.545	16436
913.659	16519
913.772	16348
913.886	16253
914	16166
914.113	16242
914.226	16341
914.34	16226
914.453	16029
914.566	16230
914.68	16116
914.793	15979
914.906	15857
915.019	15812
915.132	15724
915.245	15800
915.358	15812
915.47	15857
915.583	15762
915.696	15918
915.809	15873
915.921	15854
916.034	15743
916.146	15656
916.259	15599
916.371	15789
916.483	15686
916.595	15625
916.708	15690
916.82	15682
916.932	15542
917.044	15633
917.156	15553
917.268	15401
917.38	15538
917.491	15447
917.603	15458
917.715	15485
917.826	15545
917.938	15386
918.049	15222
918.161	15408
918.272	15488
918.384	15511
918.495	15313
918.606	15184
918.717	15112
918.828	15169
918.939	15230
919.05	15081
919.161	15089
919.272	14914
919.383	15009
919.494	15142
919.604	15275
919.715	15123
919.826	15017
919.936	15077
920.047	15058
920.157	15070
920.267	15218
920.378	15066
920.488	15138
920.598	15252
920.708	15408
920.818	15218
920.928	15252
921.038	15348
921.148	15336
921.258	15112
921.368	14982
921.477	14861
921.587	14876
921.697	14693
921.806	14883
921.916	14648
922.025	14571
922.134	14454
922.244	14366
922.353	14495
922.462	14233
922.571	14275
922.68	14100
922.789	14008
922.898	14081
923.007	14073
923.116	14077
923.224	14088
923.333	14016
923.442	13951
923.55	13849
923.659	13883
923.767	13932
923.876	13890
923.984	13917
924.092	13757
924.201	13887
924.309	13852
924.417	13765
924.525	13742
924.633	13765
924.741	14640
924.849	13605
924.956	13616
925.064	13575
925.172	13411
925.279	13533
925.387	13483
925.494	13384
925.602	13681
925.709	13514
925.816	13312
925.924	13377
926.031	13605
926.138	13449
926.245	13434
926.352	13369
926.459	13487
926.566	13441
926.673	13331
926.779	13190
926.886	13145
926.993	13053
927.099	13103
927.206	13019
927.312	12932
927.419	13012
927.525	13027
927.631	13004
927.737	13053
927.843	12817
927.95	12810
928.056	12829
928.162	12932
928.267	12905
928.373	13438
928.479	12875
928.585	12692
928.69	12821
928.796	12795
928.901	12639
929.007	12551
929.112	12585
929.218	12646
929.323	12623
929.428	12578
929.533	12757
929.638	12365
929.743	12536
929.848	12525
929.953	12566
930.058	12395
930.163	12247
930.267	12197
930.372	12308
930.477	12258
930.581	12304
930.685	12235
930.79	12091
930.894	12133
930.998	12064
931.103	12216
931.207	11946
931.311	11828
931.415	11627
931.519	11509
931.623	11402
