Data from test_V78500241_2012.txt Node
Date: Fri Mar 25 15:55:44 CST 2022
User: usil
Spectrometer: V785-0024
Trigger mode: 0
Integration Time (sec): 4.000000E-1
Scans to average: 1
Nonlinearity correction enabled: false
Boxcar width: 0
Storing dark spectrum: false
XAxis mode: Wavelengths
Number of Pixels in Spectrum: 1024
>>>>>Begin Spectral Data<<<<<
801.071	28398
801.214	28371
801.356	28169
801.499	28116
801.641	27972
801.783	27831
801.926	28070
802.068	28006
802.211	27816
802.353	27911
802.496	27660
802.638	27561
802.78	27591
802.923	27538
803.065	27511
803.208	27473
803.35	27580
803.492	27827
803.635	27793
803.777	27755
803.919	27854
804.061	28116
804.204	27941
804.346	27793
804.488	27671
804.63	27880
804.773	27888
804.915	27918
805.057	28166
805.199	27914
805.341	27975
805.483	28154
805.626	28070
805.768	27956
805.91	28078
806.052	27945
806.194	28036
806.336	28261
806.478	28059
806.62	27998
806.762	28207
806.904	28329
807.046	28493
807.188	28519
807.33	28538
807.472	28565
807.614	28459
807.756	28462
807.898	28257
808.04	28363
808.182	28341
808.324	28371
808.465	28436
808.607	28599
808.749	28691
808.891	28866
809.033	28847
809.174	28786
809.316	28721
809.458	28679
809.6	28611
809.741	28805
809.883	28778
810.025	29033
810.166	28999
810.308	29014
810.45	29067
810.591	28816
810.733	28771
810.875	28694
811.016	28660
811.158	28626
811.299	28972
811.441	28885
811.582	28900
811.724	28691
811.865	28664
812.007	28729
812.148	28664
812.29	28771
812.431	28995
812.573	29006
812.714	29132
812.855	29330
812.997	29185
813.138	29528
813.279	29372
813.421	29246
813.562	29193
813.703	28930
813.845	28877
813.986	28702
814.127	28577
814.268	28489
814.41	28379
814.551	28379
814.692	28470
814.833	28325
814.974	28344
815.115	28535
815.256	28261
815.397	28443
815.539	28299
815.68	28253
815.821	28268
815.962	28265
816.103	28147
816.244	28059
816.385	27994
816.526	27880
816.666	27907
816.807	27770
816.948	27816
817.089	27861
817.23	27701
817.371	27762
817.512	27717
817.653	27648
817.793	27660
817.934	27819
818.075	27656
818.216	27743
818.356	27530
818.497	27511
818.638	27485
818.778	27561
818.919	27507
819.06	27629
819.2	27671
819.341	27656
819.481	27538
819.622	27934
819.762	28181
819.903	27983
820.043	27869
820.184	27892
820.324	27751
820.465	28017
820.605	27797
820.746	27808
820.886	27679
821.026	27667
821.167	27808
821.307	27774
821.447	27774
821.588	27648
821.728	27576
821.868	27496
822.008	27306
822.149	27161
822.289	27214
822.429	26819
822.569	26906
822.709	26792
822.849	26868
822.99	26800
823.13	26564
823.27	26686
823.41	26480
823.55	26419
823.69	26670
823.83	26461
823.97	26556
824.11	26324
824.25	26294
824.389	26396
824.529	26431
824.669	26370
824.809	26465
824.949	26503
825.089	26476
825.228	26385
825.368	26084
825.508	26206
825.648	26237
825.787	26332
825.927	26267
826.067	26153
826.206	26134
826.346	26233
826.485	26358
826.625	26126
826.765	26355
826.904	26240
827.044	26119
827.183	25982
827.323	25944
827.462	26039
827.601	26039
827.741	25906
827.88	25871
828.02	25791
828.159	25993
828.298	25928
828.437	25894
828.577	25826
828.716	25932
828.855	25852
828.994	25788
829.134	25769
829.273	25818
829.412	25613
829.551	25556
829.69	25533
829.829	25708
829.968	25674
830.107	25734
830.246	25613
830.385	25586
830.524	25544
830.663	25445
830.802	25225
830.941	25183
831.08	25289
831.219	25369
831.357	25259
831.496	25559
831.635	25308
831.774	25061
831.913	25137
832.051	24966
832.19	24977
832.329	25004
832.467	24928
832.606	24932
832.744	24916
832.883	24897
833.022	24738
833.16	24859
833.299	24932
833.437	25015
833.576	24871
833.714	24901
833.852	25088
833.991	25099
834.129	25046
834.267	24985
834.406	25008
834.544	24992
834.682	24920
834.821	24935
834.959	25129
835.097	24890
835.235	25004
835.373	24939
835.511	24871
835.65	24833
835.788	24821
835.926	24673
836.064	24681
836.202	24551
836.34	24859
836.478	24920
836.615	24856
836.753	24776
836.891	24821
837.029	24741
837.167	24722
837.305	24669
837.443	24654
837.58	24646
837.718	24707
837.856	24578
837.993	24700
838.131	24589
838.269	24456
838.406	24555
838.544	24471
838.681	24270
838.819	24220
838.956	24049
839.094	24030
839.231	24045
839.369	24289
839.506	24521
839.643	24338
839.781	24011
839.918	23961
840.055	23980
840.193	24148
840.33	24022
840.467	23980
840.604	24155
840.742	24247
840.879	23901
841.016	23885
841.153	23840
841.29	24057
841.427	23999
841.564	24030
841.701	23901
841.838	23961
841.975	23840
842.112	23874
842.249	23904
842.385	23733
842.522	24030
842.659	23779
842.796	23703
842.933	23771
843.069	23798
843.206	23649
843.343	23703
843.479	23600
843.616	23649
843.752	23543
843.889	23570
844.025	23497
844.162	23410
844.298	23687
844.435	23543
844.571	23509
844.708	23566
844.844	23672
844.98	23562
845.117	23623
845.253	23387
845.389	23356
845.525	23402
845.661	23315
845.798	23299
845.934	23265
846.07	23170
846.206	23356
846.342	23444
846.478	23258
846.614	23044
846.75	22850
846.886	22984
847.022	23044
847.158	23079
847.294	23041
847.429	23044
847.565	22904
847.701	23098
847.837	22656
847.972	22577
848.108	22763
848.244	22782
848.379	22611
848.515	22645
848.65	22565
848.786	22573
848.921	22656
849.057	22508
849.192	22679
849.328	22649
849.463	22546
849.598	22394
849.734	22546
849.869	22371
850.004	22360
850.14	22265
850.275	22299
850.41	22192
850.545	22314
850.68	22082
850.815	22398
850.95	22363
851.085	22516
851.22	22417
851.355	22352
851.49	22280
851.625	22356
851.76	22367
851.895	22226
852.03	22276
852.165	22341
852.299	22466
852.434	22424
852.569	22284
852.703	22470
852.838	22253
852.973	22443
853.107	22356
853.242	22299
853.376	22215
853.511	22021
853.645	22067
853.78	22173
853.914	22017
854.048	22059
854.183	22097
854.317	22139
854.451	22356
854.585	22025
854.72	22097
854.854	22215
854.988	22082
855.122	22070
855.256	21987
855.39	22109
855.524	22101
855.658	22120
855.792	22226
855.926	22109
856.06	22215
856.194	22268
856.327	22154
856.461	22120
856.595	22204
856.729	22017
856.862	22242
856.996	22185
857.13	22124
857.263	22143
857.397	22147
857.53	22135
857.664	22173
857.797	22173
857.931	22192
858.064	22147
858.197	22253
858.331	22150
858.464	22173
858.597	22032
858.731	22078
858.864	22131
858.997	22025
859.13	22147
859.263	22131
859.396	22230
859.529	22242
859.662	22200
859.795	22204
859.928	22192
860.061	22459
860.194	22470
860.327	22261
860.46	22215
860.592	22291
860.725	22318
860.858	22356
860.99	22169
861.123	21983
861.256	22055
861.388	22158
861.521	22930
861.653	22025
861.786	21964
861.918	22021
862.05	21949
862.183	22078
862.315	22067
862.447	22204
862.58	22086
862.712	21899
862.844	21850
862.976	21831
863.108	21880
863.24	22379
863.372	21850
863.504	21918
863.636	21873
863.768	21812
863.9	21827
864.032	21793
864.164	21835
864.296	21854
864.428	21926
864.559	21956
864.691	21915
864.823	21930
864.954	21869
865.086	21713
865.217	21785
865.349	21557
865.48	21751
865.612	21808
865.743	21781
865.875	21720
866.006	21698
866.137	21690
866.269	21717
866.4	21663
866.531	21743
866.662	21732
866.793	21583
866.924	21739
867.055	21690
867.186	21728
867.317	21496
867.448	21622
867.579	21583
867.71	21519
867.841	21549
867.972	21644
868.103	21622
868.233	21675
868.364	21660
868.495	21793
868.625	21899
868.756	22090
868.886	21899
869.017	21949
869.147	22097
869.278	22006
869.408	22006
869.539	21899
869.669	21964
869.799	21949
869.929	22029
870.06	21953
870.19	22147
870.32	22112
870.45	22261
870.58	22230
870.71	22474
870.84	22390
870.97	22348
871.1	22421
871.23	22386
871.36	22592
871.489	22390
871.619	22367
871.749	22519
871.879	22607
872.008	22523
872.138	22584
872.267	22474
872.397	22337
872.526	22280
872.656	22329
872.785	22325
872.915	22577
873.044	22554
873.173	22557
873.303	22599
873.432	22466
873.561	22618
873.69	22573
873.819	22538
873.948	22577
874.077	22569
874.206	22474
874.335	22569
874.464	22615
874.593	22805
874.722	22679
874.851	22774
874.979	22740
875.108	22801
875.237	22767
875.365	22603
875.494	22706
875.623	22862
875.751	22782
875.88	22740
876.008	22847
876.136	22824
876.265	23250
876.393	23258
876.521	23193
876.65	23056
876.778	23048
876.906	22949
877.034	23060
877.162	23235
877.29	22957
877.418	23124
877.546	23113
877.674	23071
877.802	22980
877.93	23117
878.058	23022
878.185	22938
878.313	23140
878.441	23086
878.568	22831
878.696	23086
878.824	23067
878.951	23140
879.079	23322
879.206	23311
879.333	23269
879.461	23098
879.588	23227
879.715	23200
879.842	23459
879.97	23197
880.097	22915
880.224	22957
880.351	23060
880.478	22885
880.605	22976
880.732	22927
880.859	23056
880.986	22911
881.112	22900
881.239	22839
881.366	22710
881.493	22634
881.619	22447
881.746	22569
881.872	22443
881.999	22474
882.125	22436
882.252	22516
882.378	22535
882.505	22573
882.631	22333
882.757	22192
882.883	22230
883.01	22154
883.136	22185
883.262	22070
883.388	22006
883.514	22093
883.64	22139
883.766	22086
883.892	21991
884.018	21941
884.143	22158
884.269	22173
884.395	21903
884.52	21720
884.646	21819
884.772	21713
884.897	21747
885.023	21835
885.148	21918
885.274	21994
885.399	21945
885.524	21850
885.65	21831
885.775	21808
885.9	21694
886.025	22051
886.15	21838
886.275	21827
886.4	21660
886.525	21873
886.65	21736
886.775	21671
886.9	21865
887.025	21956
887.149	21819
887.274	21538
887.399	21545
887.523	21549
887.648	21477
887.773	21454
887.897	21690
888.021	21545
888.146	21507
888.27	21641
888.395	21667
888.519	21625
888.643	21587
888.767	21629
888.891	21405
889.015	21420
889.139	21340
889.263	21336
889.387	21481
889.511	21534
889.635	21553
889.759	21355
889.883	21313
890.006	21466
890.13	21496
890.254	21268
890.377	21393
890.501	20990
890.624	21112
890.748	21077
890.871	21017
890.995	20910
891.118	20895
891.241	21005
891.364	20963
891.488	21005
891.611	20895
891.734	20952
891.857	20902
891.98	20902
892.103	21085
892.226	21013
892.349	20990
892.471	20724
892.594	20849
892.717	20712
892.839	20754
892.962	20830
893.085	20800
893.207	20876
893.33	20609
893.452	20735
893.575	20872
893.697	20625
893.819	21032
893.941	20952
894.064	20975
894.186	20697
894.308	20621
894.43	20857
894.552	20895
894.674	20902
894.796	20648
894.918	20788
895.04	20796
895.161	20948
895.283	20811
895.405	20667
895.526	20781
895.648	20902
895.769	20883
895.891	20963
896.012	20804
896.134	20792
896.255	20746
896.376	20826
896.498	20902
896.619	20861
896.74	20762
896.861	20910
896.982	21032
897.103	21207
897.224	21093
897.345	21024
897.466	20925
897.587	21093
897.708	21089
897.828	21104
897.949	20937
898.07	20773
898.19	20948
898.311	21131
898.431	20960
898.552	20956
898.672	21047
898.792	21070
898.913	20975
899.033	20979
899.153	20914
899.273	20693
899.393	20834
899.513	20720
899.633	20686
899.753	20670
899.873	20667
899.993	20777
900.113	20632
900.232	20712
900.352	20651
900.472	20568
900.591	20446
900.711	20617
900.83	20457
900.95	20609
901.069	20594
901.189	20442
901.308	20172
901.427	20069
901.546	20199
901.665	20046
901.784	20088
901.904	19875
902.023	19898
902.141	19575
902.26	19537
902.379	19582
902.498	19655
902.617	19476
902.735	19624
902.854	19552
902.973	19460
903.091	19278
903.21	19217
903.328	19187
903.446	19152
903.565	19145
903.683	19137
903.801	19000
903.919	19110
904.038	18916
904.156	18863
904.274	18905
904.392	18791
904.51	18844
904.627	18833
904.745	18821
904.863	18894
904.981	18669
905.098	18494
905.216	18547
905.334	18601
905.451	18604
905.569	18376
905.686	18502
905.803	18460
905.921	18213
906.038	18334
906.155	18323
906.272	18163
906.389	18201
906.506	17996
906.623	17939
906.74	18022
906.857	17939
906.974	17950
907.091	17992
907.208	18038
907.324	17965
907.441	17988
907.557	17809
907.674	17684
907.79	17657
907.907	17600
908.023	17710
908.139	17741
908.256	17703
908.372	17547
908.488	17501
908.604	17505
908.72	17421
908.836	17429
908.952	17471
909.068	17372
909.184	17608
909.3	17391
909.415	17490
909.531	17421
909.647	17155
909.762	17105
909.878	17140
909.993	17208
910.108	17056
910.224	17105
910.339	17064
910.454	17037
910.57	16938
910.685	16885
910.8	17109
910.915	16991
911.03	16923
911.145	16767
911.259	16691
911.374	16683
911.489	16618
911.604	16599
911.718	16527
911.833	16470
911.947	16421
912.062	16284
912.176	16481
912.291	16459
912.405	16577
912.519	16649
912.633	16500
912.748	16519
912.862	16428
912.976	16272
913.09	16128
913.204	16234
913.318	16314
913.431	16382
913.545	16375
913.659	16428
913.772	16158
913.886	16067
914	15979
914.113	16090
914.226	16215
914.34	16051
914.453	15983
914.566	16162
914.68	15941
914.793	15937
914.906	15667
915.019	15694
915.132	15561
915.245	15591
915.358	15698
915.47	15610
915.583	15629
915.696	15720
915.809	15747
915.921	15686
916.034	15561
916.146	15542
916.259	15564
916.371	15633
916.483	15462
916.595	15469
916.708	15477
916.82	15462
916.932	15424
917.044	15431
917.156	15348
917.268	15302
917.38	15298
917.491	15397
917.603	15264
917.715	15355
917.826	15389
917.938	15245
918.049	15093
918.161	15157
918.272	15340
918.384	15321
918.495	15161
918.606	15097
918.717	15017
918.828	14986
918.939	14979
919.05	14918
919.161	15055
919.272	14861
919.383	14872
919.494	15100
919.604	15214
919.715	15081
919.826	14975
919.936	15039
920.047	15089
920.157	15013
920.267	15211
920.378	14963
920.488	14902
920.598	15074
920.708	15313
920.818	15180
920.928	15150
921.038	15230
921.148	15180
921.258	14979
921.368	14792
921.477	14746
921.587	14667
921.697	14606
921.806	14575
921.916	14499
922.025	14473
922.134	14396
922.244	14374
922.353	14404
922.462	14168
922.571	14039
922.68	14046
922.789	14001
922.898	13989
923.007	14012
923.116	13963
923.224	13997
923.333	13917
923.442	13887
923.55	13811
923.659	13803
923.767	13879
923.876	13750
923.984	13894
924.092	13746
924.201	13761
924.309	13685
924.417	13723
924.525	13632
924.633	13620
924.741	14480
924.849	13396
924.956	13559
925.064	13457
925.172	13244
925.279	13377
925.387	13453
925.494	13407
925.602	13521
925.709	13384
925.816	13312
925.924	13365
926.031	13453
926.138	13240
926.245	13381
926.352	13236
926.459	13365
926.566	13346
926.673	13190
926.779	13107
926.886	13099
926.993	12943
927.099	12913
927.206	12810
927.312	12795
927.419	12996
927.525	12989
927.631	12947
927.737	12871
927.843	12791
927.95	12662
928.056	12745
928.162	12707
928.267	12757
928.373	13430
928.479	12859
928.585	12593
928.69	12658
928.796	12715
928.901	12654
929.007	12525
929.112	12555
929.218	12517
929.323	12452
929.428	12448
929.533	12566
929.638	12410
929.743	12327
929.848	12391
929.953	12369
930.058	12342
930.163	12102
930.267	12167
930.372	12243
930.477	12121
930.581	12289
930.685	12167
930.79	11988
930.894	12117
930.998	11939
931.103	12106
931.207	11745
931.311	11729
931.415	11600
931.519	11364
931.623	11345
