Data from test_V78500241_2615.txt Node
Date: Fri Mar 25 15:59:54 CST 2022
User: usil
Spectrometer: V785-0024
Trigger mode: 0
Integration Time (sec): 4.000000E-1
Scans to average: 1
Nonlinearity correction enabled: false
Boxcar width: 0
Storing dark spectrum: false
XAxis mode: Wavelengths
Number of Pixels in Spectrum: 1024
>>>>>Begin Spectral Data<<<<<
801.071	28793
801.214	28626
801.356	28542
801.499	28367
801.641	28341
801.783	28421
801.926	28223
802.068	28147
802.211	28268
802.353	28131
802.496	28116
802.638	27888
802.78	27983
802.923	27861
803.065	27873
803.208	27960
803.35	28078
803.492	28192
803.635	28215
803.777	28093
803.919	28154
804.061	28523
804.204	28287
804.346	28223
804.488	28276
804.63	28219
804.773	28067
804.915	28257
805.057	28459
805.199	28173
805.341	28322
805.483	28318
805.626	28261
805.768	28226
805.91	28238
806.052	28382
806.194	28246
806.336	28493
806.478	28333
806.62	28291
806.762	28470
806.904	28618
807.046	28927
807.188	28790
807.33	28839
807.472	28915
807.614	28744
807.756	28812
807.898	28733
808.04	28702
808.182	28622
808.324	28706
808.465	28710
808.607	28934
808.749	29098
808.891	29239
809.033	29235
809.174	29170
809.316	29048
809.458	29010
809.6	29064
809.741	29117
809.883	29143
810.025	29307
810.166	29448
810.308	29353
810.45	29250
810.591	29216
810.733	29174
810.875	29014
811.016	29029
811.158	28850
811.299	29189
811.441	29189
811.582	29132
811.724	29147
811.865	29033
812.007	29109
812.148	28949
812.29	29178
812.431	29292
812.573	29395
812.714	29436
812.855	29665
812.997	29707
813.138	29691
813.279	29642
813.421	29611
813.562	29600
813.703	29448
813.845	29273
813.986	29022
814.127	28835
814.268	28862
814.41	28793
814.551	28778
814.692	28782
814.833	28713
814.974	28733
815.115	28717
815.256	28706
815.397	28744
815.539	28691
815.68	28516
815.821	28527
815.962	28683
816.103	28641
816.244	28554
816.385	28348
816.526	28344
816.666	28124
816.807	28166
816.948	28135
817.089	28150
817.23	28135
817.371	28082
817.512	28059
817.653	28048
817.793	28013
817.934	28040
818.075	28078
818.216	28025
818.356	28169
818.497	28040
818.638	27736
818.778	27804
818.919	27842
819.06	27945
819.2	27987
819.341	27949
819.481	28120
819.622	28314
819.762	28481
819.903	28234
820.043	28375
820.184	28135
820.324	28169
820.465	28242
820.605	28272
820.746	28101
820.886	28139
821.026	28090
821.167	28173
821.307	28166
821.447	28150
821.588	27960
821.728	27873
821.868	27800
822.008	27633
822.149	27713
822.289	27587
822.429	27378
822.569	27272
822.709	27184
822.849	27028
822.99	27135
823.13	27028
823.27	26982
823.41	27009
823.55	26720
823.69	27032
823.83	26876
823.97	26838
824.11	26689
824.25	26655
824.389	26743
824.529	26937
824.669	26746
824.809	26933
824.949	26823
825.089	26800
825.228	26834
825.368	26613
825.508	26697
825.648	26644
825.787	26629
825.927	26670
826.067	26609
826.206	26716
826.346	26564
826.485	26819
826.625	26678
826.765	26667
826.904	26678
827.044	26442
827.183	26503
827.323	26347
827.462	26495
827.601	26339
827.741	26180
827.88	26294
828.02	26343
828.159	26298
828.298	26377
828.437	26453
828.577	26259
828.716	26366
828.855	26336
828.994	25993
829.134	26035
829.273	26031
829.412	25944
829.551	25883
829.69	26130
829.829	26100
829.968	26161
830.107	26172
830.246	26084
830.385	25871
830.524	25940
830.663	25833
830.802	25833
830.941	25666
831.08	25590
831.219	25708
831.357	25685
831.496	25898
831.635	25635
831.774	25578
831.913	25575
832.051	25632
832.19	25457
832.329	25327
832.467	25373
832.606	25266
832.744	25301
832.883	25270
833.022	25282
833.16	25396
833.299	25335
833.437	25297
833.576	25396
833.714	25434
833.852	25407
833.991	25434
834.129	25422
834.267	25434
834.406	25464
834.544	25472
834.682	25175
834.821	25388
834.959	25548
835.097	25282
835.235	25430
835.373	25415
835.511	25434
835.65	25160
835.788	25251
835.926	25122
836.064	24909
836.202	25122
836.34	25190
836.478	25358
836.615	25232
836.753	25164
836.891	25031
837.029	25183
837.167	25145
837.305	25145
837.443	25000
837.58	25015
837.718	25057
837.856	25095
837.993	25084
838.131	25069
838.269	24852
838.406	24848
838.544	24939
838.681	24555
838.819	24623
838.956	24410
839.094	24616
839.231	24502
839.369	24776
839.506	24856
839.643	24829
839.781	24532
839.918	24547
840.055	24452
840.193	24475
840.33	24505
840.467	24327
840.604	24433
840.742	24597
840.879	24266
841.016	24220
841.153	24308
841.29	24384
841.427	24277
841.564	24456
841.701	24350
841.838	24289
841.975	24300
842.112	24365
842.249	24224
842.385	24106
842.522	24437
842.659	24186
842.796	24114
842.933	24209
843.069	24205
843.206	24152
843.343	24110
843.479	24224
843.616	24190
843.752	24018
843.889	23984
844.025	23988
844.162	24041
844.298	23996
844.435	23923
844.571	23859
844.708	23980
844.844	24186
844.98	24022
845.117	24114
845.253	24007
845.389	23741
845.525	23889
845.661	23813
845.798	23558
845.934	23676
846.07	23634
846.206	23752
846.342	23653
846.478	23687
846.614	23402
846.75	23299
846.886	23326
847.022	23474
847.158	23493
847.294	23299
847.429	23417
847.565	23360
847.701	23611
847.837	23170
847.972	23086
848.108	23124
848.244	23208
848.379	23094
848.515	22908
848.65	22904
848.786	22953
848.921	22984
849.057	23094
849.192	23014
849.328	22984
849.463	22923
849.598	22904
849.734	22820
849.869	22820
850.004	22653
850.14	22786
850.275	22820
850.41	22691
850.545	22710
850.68	22588
850.815	22725
850.95	22653
851.085	22934
851.22	22911
851.355	22721
851.49	22683
851.625	22675
851.76	22694
851.895	22485
852.03	22782
852.165	22824
852.299	22740
852.434	22801
852.569	22767
852.703	22774
852.838	22790
852.973	22820
853.107	22900
853.242	22645
853.376	22618
853.511	22519
853.645	22557
853.78	22596
853.914	22649
854.048	22538
854.183	22664
854.317	22622
854.451	22755
854.585	22596
854.72	22554
854.854	22672
854.988	22554
855.122	22580
855.256	22561
855.39	22630
855.524	22607
855.658	22542
855.792	22584
855.926	22459
856.06	22664
856.194	22626
856.327	22577
856.461	22394
856.595	22455
856.729	22497
856.862	22565
856.996	22573
857.13	22683
857.263	22641
857.397	22645
857.53	22481
857.664	22493
857.797	22630
857.931	22664
858.064	22710
858.197	22618
858.331	22554
858.464	22424
858.597	22455
858.731	22546
858.864	22516
858.997	22489
859.13	22622
859.263	22554
859.396	22592
859.529	22561
859.662	22519
859.795	22508
859.928	22630
860.061	22660
860.194	22934
860.327	22584
860.46	22481
860.592	22630
860.725	22672
860.858	22721
860.99	22535
861.123	22371
861.256	22478
861.388	22569
861.521	23258
861.653	22519
861.786	22337
861.918	22333
862.05	22379
862.183	22451
862.315	22489
862.447	22584
862.58	22481
862.712	22196
862.844	22143
862.976	22394
863.108	22344
863.24	22603
863.372	22230
863.504	22211
863.636	22215
863.768	22272
863.9	22295
864.032	22154
864.164	22128
864.296	22238
864.428	22299
864.559	22295
864.691	22375
864.823	22249
864.954	22344
865.086	22185
865.217	22135
865.349	22040
865.48	22101
865.612	22226
865.743	22246
865.875	22207
866.006	22135
866.137	22185
866.269	22021
866.4	22036
866.531	22063
866.662	21934
866.793	22169
866.924	22013
867.055	22147
867.186	22044
867.317	21964
867.448	22086
867.579	22105
867.71	22139
867.841	22036
867.972	22074
868.103	22002
868.233	22139
868.364	21994
868.495	22067
868.625	22272
868.756	22413
868.886	22230
869.017	22352
869.147	22402
869.278	22417
869.408	22204
869.539	22185
869.669	22504
869.799	22402
869.929	22443
870.06	22348
870.19	22554
870.32	22489
870.45	22584
870.58	22679
870.71	22725
870.84	22805
870.97	22778
871.1	22641
871.23	22725
871.36	22866
871.489	22881
871.619	22839
871.749	23022
871.879	22938
872.008	23029
872.138	22972
872.267	22889
872.397	22733
872.526	22664
872.656	22733
872.785	22752
872.915	22904
873.044	22995
873.173	22976
873.303	22896
873.432	22965
873.561	22980
873.69	22953
873.819	22889
873.948	22965
874.077	22877
874.206	22911
874.335	22923
874.464	23117
874.593	23143
874.722	23102
874.851	23113
874.979	23242
875.108	23288
875.237	23261
875.365	22991
875.494	23094
875.623	23170
875.751	23071
875.88	23189
876.008	23273
876.136	23395
876.265	23528
876.393	23623
876.521	23600
876.65	23608
876.778	23493
876.906	23448
877.034	23356
877.162	23497
877.29	23391
877.418	23414
877.546	23395
877.674	23509
877.802	23520
877.93	23398
878.058	23417
878.185	23414
878.313	23486
878.441	23543
878.568	23239
878.696	23330
878.824	23322
878.951	23425
879.079	23672
879.206	23661
879.333	23703
879.461	23531
879.588	23585
879.715	23676
879.842	23737
879.97	23589
880.097	23227
880.224	23311
880.351	23159
880.478	23349
880.605	23178
880.732	23364
880.859	23531
880.986	23227
881.112	23246
881.239	23216
881.366	22980
881.493	22987
881.619	22889
881.746	22900
881.872	22816
881.999	22908
882.125	22710
882.252	22949
882.378	22774
882.505	22938
882.631	22641
882.757	22535
882.883	22615
883.01	22478
883.136	22405
883.262	22356
883.388	22291
883.514	22459
883.64	22550
883.766	22470
883.892	22291
884.018	22318
884.143	22276
884.269	22500
884.395	22188
884.52	22112
884.646	22139
884.772	22013
884.897	22048
885.023	22249
885.148	22207
885.274	22246
885.399	22272
885.524	22185
885.65	22097
885.775	22120
885.9	22048
886.025	22139
886.15	22158
886.275	21987
886.4	22128
886.525	22101
886.65	22032
886.775	22086
886.9	22246
887.025	22325
887.149	22010
887.274	21880
887.399	21873
887.523	21835
887.648	21869
887.773	21816
887.897	21918
888.021	22025
888.146	21949
888.27	22032
888.395	21907
888.519	21941
888.643	21850
888.767	21918
888.891	21774
889.015	21705
889.139	21709
889.263	21743
889.387	21751
889.511	21911
889.635	21903
889.759	21759
889.883	21686
890.006	21785
890.13	21766
890.254	21648
890.377	21595
890.501	21458
890.624	21466
890.748	21477
890.871	21256
890.995	21283
891.118	21077
891.241	21249
891.364	21344
891.488	21382
891.611	21195
891.734	21199
891.857	21241
891.98	21275
892.103	21249
892.226	21313
892.349	21275
892.471	21058
892.594	21127
892.717	21169
892.839	21013
892.962	21096
893.085	21192
893.207	21024
893.33	21024
893.452	21127
893.575	21100
893.697	21169
893.819	21348
893.941	21329
894.064	21260
894.186	20998
894.308	21013
894.43	21199
894.552	21169
894.674	21093
894.796	21020
894.918	21043
895.04	21154
895.161	21074
895.283	21089
895.405	21058
895.526	21256
895.648	21176
895.769	21169
895.891	21146
896.012	21135
896.134	21039
896.255	21108
896.376	21077
896.498	21116
896.619	21127
896.74	21047
896.861	21154
896.982	21500
897.103	21500
897.224	21416
897.345	21313
897.466	21203
897.587	21291
897.708	21473
897.828	21393
897.949	21230
898.07	21157
898.19	21214
898.311	21275
898.431	21074
898.552	21317
898.672	21348
898.792	21519
898.913	21207
899.033	21195
899.153	21104
899.273	20960
899.393	21070
899.513	21100
899.633	21081
899.753	21116
899.873	20906
899.993	21096
900.113	20849
900.232	20967
900.352	20967
900.472	20914
900.591	20830
900.711	20853
900.83	20762
900.95	20895
901.069	21005
901.189	20636
901.308	20450
901.427	20298
901.546	20336
901.665	20358
901.784	20465
901.904	20256
902.023	20096
902.141	19868
902.26	19967
902.379	19890
902.498	19898
902.617	19803
902.735	19826
902.854	19818
902.973	19765
903.091	19544
903.21	19491
903.328	19499
903.446	19430
903.565	19354
903.683	19263
903.801	19129
903.919	19255
904.038	19350
904.156	19053
904.274	19194
904.392	19148
904.51	18981
904.627	19057
904.745	19152
904.863	19069
904.981	18798
905.098	18783
905.216	18795
905.334	18810
905.451	18856
905.569	18772
905.686	18768
905.803	18779
905.921	18570
906.038	18639
906.155	18547
906.272	18399
906.389	18414
906.506	18258
906.623	18369
906.74	18262
906.857	18205
906.974	18254
907.091	18346
907.208	18357
907.324	18399
907.441	18129
907.557	18152
907.674	17942
907.79	17950
907.907	17999
908.023	18095
908.139	17977
908.256	17897
908.372	17954
908.488	17748
908.604	17813
908.72	17703
908.836	17729
908.952	17684
909.068	17608
909.184	17786
909.3	17722
909.415	17878
909.531	17630
909.647	17421
909.762	17372
909.878	17379
909.993	17448
910.108	17395
910.224	17284
910.339	17429
910.454	17200
910.57	17315
910.685	17132
910.8	17349
910.915	17356
911.03	17056
911.145	17029
911.259	17045
911.374	17014
911.489	16850
911.604	16904
911.718	16778
911.833	16733
911.947	16641
912.062	16527
912.176	16736
912.291	16656
912.405	16778
912.519	16858
912.633	16858
912.748	16767
912.862	16675
912.976	16596
913.09	16379
913.204	16542
913.318	16523
913.431	16554
913.545	16656
913.659	16519
913.772	16478
913.886	16322
914	16367
914.113	16409
914.226	16538
914.34	16440
914.453	16166
914.566	16363
914.68	16192
914.793	16166
914.906	16017
915.019	15876
915.132	15880
915.245	15789
915.358	15937
915.47	15884
915.583	15888
915.696	15884
915.809	15899
915.921	15975
916.034	15850
916.146	15816
916.259	15701
916.371	15922
916.483	15781
916.595	15671
916.708	15667
916.82	15713
916.932	15701
917.044	15667
917.156	15686
917.268	15473
917.38	15526
917.491	15458
917.603	15534
917.715	15561
917.826	15671
917.938	15511
918.049	15344
918.161	15496
918.272	15515
918.384	15599
918.495	15507
918.606	15332
918.717	15306
918.828	15298
918.939	15264
919.05	15211
919.161	15298
919.272	15058
919.383	15226
919.494	15325
919.604	15435
919.715	15226
919.826	15116
919.936	15173
920.047	15222
920.157	15256
920.267	15397
920.378	15157
920.488	15192
920.598	15279
920.708	15553
920.818	15313
920.928	15283
921.038	15488
921.148	15515
921.258	15104
921.368	15074
921.477	14933
921.587	14902
921.697	14762
921.806	14937
921.916	14823
922.025	14636
922.134	14533
922.244	14549
922.353	14606
922.462	14514
922.571	14446
922.68	14256
922.789	14176
922.898	14142
923.007	14096
923.116	14332
923.224	14195
923.333	14149
923.442	14058
923.55	13997
923.659	13997
923.767	13982
923.876	13936
923.984	13997
924.092	13837
924.201	13925
924.309	13967
924.417	13875
924.525	13788
924.633	13818
924.741	14834
924.849	13651
924.956	13784
925.064	13556
925.172	13499
925.279	13533
925.387	13662
925.494	13597
925.602	13712
925.709	13582
925.816	13472
925.924	13445
926.031	13544
926.138	13445
926.245	13655
926.352	13316
926.459	13525
926.566	13472
926.673	13529
926.779	13320
926.886	13289
926.993	13118
927.099	13266
927.206	13099
927.312	13076
927.419	13255
927.525	13088
927.631	13206
927.737	13023
927.843	13038
927.95	12837
928.056	12863
928.162	12928
928.267	12871
928.373	13552
928.479	12951
928.585	12650
928.69	12829
928.796	12924
928.901	12806
929.007	12719
929.112	12844
929.218	12726
929.323	12703
929.428	12574
929.533	12734
929.638	12597
929.743	12616
929.848	12601
929.953	12601
930.058	12517
930.163	12319
930.267	12365
930.372	12388
930.477	12197
930.581	12502
930.685	12308
930.79	12159
930.894	12216
930.998	12235
931.103	12251
931.207	11893
931.311	11855
931.415	11722
931.519	11596
931.623	11509
