Data from test_V78500241_184.txt Node
Date: Fri Mar 25 15:43:04 CST 2022
User: usil
Spectrometer: V785-0024
Trigger mode: 0
Integration Time (sec): 4.000000E-1
Scans to average: 1
Nonlinearity correction enabled: false
Boxcar width: 0
Storing dark spectrum: false
XAxis mode: Wavelengths
Number of Pixels in Spectrum: 1024
>>>>>Begin Spectral Data<<<<<
801.071	29821
801.214	29771
801.356	29421
801.499	29433
801.641	29349
801.783	29242
801.926	29417
802.068	29311
802.211	29334
802.353	29159
802.496	28972
802.638	28984
802.78	28976
802.923	28850
803.065	28831
803.208	28748
803.35	28934
803.492	28999
803.635	29048
803.777	28987
803.919	29098
804.061	29322
804.204	29159
804.346	28949
804.488	28812
804.63	29064
804.773	28877
804.915	28866
805.057	29121
805.199	29071
805.341	29170
805.483	29143
805.626	29033
805.768	29140
805.91	29155
806.052	29231
806.194	29181
806.336	29440
806.478	29220
806.62	29178
806.762	29360
806.904	29554
807.046	29661
807.188	29539
807.33	29699
807.472	29684
807.614	29505
807.756	29455
807.898	29440
808.04	29356
808.182	29391
808.324	29379
808.465	29391
808.607	29551
808.749	29676
808.891	29695
809.033	29977
809.174	29851
809.316	29703
809.458	29859
809.6	29703
809.741	29813
809.883	29752
810.025	30022
810.166	30018
810.308	30011
810.45	30018
810.591	29832
810.733	29748
810.875	29691
811.016	29668
811.158	29501
811.299	29950
811.441	30034
811.582	29798
811.724	29684
811.865	29718
812.007	29661
812.148	29676
812.29	29832
812.431	29958
812.573	30068
812.714	30083
812.855	30152
812.997	30319
813.138	30311
813.279	30315
813.421	30262
813.562	30190
813.703	30121
813.845	29866
813.986	29726
814.127	29490
814.268	29395
814.41	29463
814.551	29372
814.692	29406
814.833	29353
814.974	29372
815.115	29200
815.256	29060
815.397	29098
815.539	29052
815.68	29010
815.821	29022
815.962	29151
816.103	29079
816.244	28987
816.385	28843
816.526	28698
816.666	28679
816.807	28519
816.948	28493
817.089	28691
817.23	28493
817.371	28417
817.512	28455
817.653	28584
817.793	28577
817.934	28485
818.075	28493
818.216	28390
818.356	28531
818.497	28268
818.638	28234
818.778	28242
818.919	28147
819.06	28325
819.2	28493
819.341	28516
819.481	28333
819.622	28611
819.762	28740
819.903	28653
820.043	28809
820.184	28413
820.324	28531
820.465	28462
820.605	28474
820.746	28508
820.886	28375
821.026	28417
821.167	28462
821.307	28584
821.447	28459
821.588	28261
821.728	28162
821.868	27994
822.008	27800
822.149	27785
822.289	27865
822.429	27488
822.569	27572
822.709	27545
822.849	27249
822.99	27355
823.13	27393
823.27	27367
823.41	27192
823.55	27112
823.69	27119
823.83	27184
823.97	27024
824.11	26986
824.25	26902
824.389	26918
824.529	26883
824.669	26925
824.809	27077
824.949	27001
825.089	27070
825.228	26986
825.368	26705
825.508	26701
825.648	26788
825.787	26762
825.927	26975
826.067	26773
826.206	26762
826.346	26815
826.485	26674
826.625	26727
826.765	26792
826.904	26735
827.044	26556
827.183	26461
827.323	26355
827.462	26552
827.601	26556
827.741	26328
827.88	26408
828.02	26427
828.159	26351
828.298	26427
828.437	26431
828.577	26332
828.716	26461
828.855	26400
828.994	26119
829.134	25993
829.273	26092
829.412	26077
829.551	26161
829.69	26054
829.829	26024
829.968	26081
830.107	26214
830.246	26153
830.385	26062
830.524	25791
830.663	25761
830.802	25803
830.941	25639
831.08	25651
831.219	25708
831.357	25830
831.496	25750
831.635	25567
831.774	25620
831.913	25506
832.051	25308
832.19	25308
832.329	25468
832.467	25232
832.606	25198
832.744	25316
832.883	25285
833.022	25168
833.16	25324
833.299	25198
833.437	25278
833.576	25285
833.714	25289
833.852	25396
833.991	25320
834.129	25403
834.267	25289
834.406	25274
834.544	25274
834.682	25263
834.821	25152
834.959	25506
835.097	25091
835.235	25324
835.373	25190
835.511	25183
835.65	25038
835.788	25107
835.926	24981
836.064	24901
836.202	24897
836.34	25004
836.478	25198
836.615	25080
836.753	25061
836.891	25198
837.029	25076
837.167	24958
837.305	24951
837.443	24951
837.58	24973
837.718	24996
837.856	24882
837.993	24886
838.131	24867
838.269	24684
838.406	24749
838.544	24688
838.681	24532
838.819	24505
838.956	24338
839.094	24304
839.231	24228
839.369	24555
839.506	24544
839.643	24528
839.781	24399
839.918	24216
840.055	24148
840.193	24205
840.33	24110
840.467	24152
840.604	24300
840.742	24365
840.879	24216
841.016	24148
841.153	23988
841.29	24254
841.427	24171
841.564	24197
841.701	24022
841.838	24079
841.975	24133
842.112	24114
842.249	23961
842.385	23863
842.522	24228
842.659	23950
842.796	23794
842.933	23840
843.069	23707
843.206	23809
843.343	23809
843.479	23889
843.616	23828
843.752	23634
843.889	23687
844.025	23798
844.162	23684
844.298	23585
844.435	23497
844.571	23509
844.708	23638
844.844	23707
844.98	23783
845.117	23566
845.253	23608
845.389	23395
845.525	23414
845.661	23345
845.798	23315
845.934	23315
846.07	23212
846.206	23307
846.342	23478
846.478	23315
846.614	23098
846.75	22949
846.886	23064
847.022	23079
847.158	23109
847.294	23056
847.429	23151
847.565	23022
847.701	23143
847.837	22740
847.972	22580
848.108	22877
848.244	22793
848.379	22626
848.515	22618
848.65	22615
848.786	22546
848.921	22679
849.057	22649
849.192	22729
849.328	22592
849.463	22557
849.598	22618
849.734	22440
849.869	22276
850.004	22352
850.14	22363
850.275	22436
850.41	22261
850.545	22242
850.68	22211
850.815	22417
850.95	22375
851.085	22474
851.22	22470
851.355	22322
851.49	22162
851.625	22265
851.76	22261
851.895	22131
852.03	22333
852.165	22310
852.299	22322
852.434	22322
852.569	22356
852.703	22238
852.838	22371
852.973	22466
853.107	22348
853.242	22295
853.376	22135
853.511	22109
853.645	22139
853.78	22226
853.914	22143
854.048	22078
854.183	21964
854.317	22101
854.451	22200
854.585	22112
854.72	22032
854.854	22314
854.988	22101
855.122	22013
855.256	22002
855.39	22120
855.524	22093
855.658	22105
855.792	22185
855.926	22070
856.06	22124
856.194	22219
856.327	22070
856.461	21945
856.595	22029
856.729	22059
856.862	22230
856.996	22112
857.13	22185
857.263	22204
857.397	22192
857.53	22097
857.664	22067
857.797	22109
857.931	22055
858.064	22185
858.197	22295
858.331	22143
858.464	22196
858.597	21880
858.731	21926
858.864	22090
858.997	21975
859.13	22055
859.263	22090
859.396	22109
859.529	21892
859.662	21975
859.795	22112
859.928	22055
860.061	22242
860.194	22192
860.327	22040
860.46	22002
860.592	22154
860.725	22242
860.858	22204
860.99	22105
861.123	22002
861.256	21922
861.388	22082
861.521	22831
861.653	21949
861.786	21816
861.918	21945
862.05	22059
862.183	22166
862.315	22147
862.447	22124
862.58	22074
862.712	21979
862.844	21793
862.976	21835
863.108	21842
863.24	22101
863.372	21705
863.504	21671
863.636	21838
863.768	21759
863.9	21861
864.032	21583
864.164	21663
864.296	21747
864.428	21724
864.559	21781
864.691	21797
864.823	21713
864.954	21603
865.086	21629
865.217	21701
865.349	21485
865.48	21561
865.612	21553
865.743	21766
865.875	21713
866.006	21545
866.137	21576
866.269	21553
866.4	21545
866.531	21603
866.662	21530
866.793	21477
866.924	21469
867.055	21629
867.186	21477
867.317	21450
867.448	21340
867.579	21469
867.71	21367
867.841	21378
867.972	21405
868.103	21583
868.233	21557
868.364	21572
868.495	21717
868.625	21705
868.756	21857
868.886	21709
869.017	21770
869.147	21895
869.278	21922
869.408	21720
869.539	21804
869.669	21884
869.799	21880
869.929	21930
870.06	21766
870.19	22112
870.32	22063
870.45	22143
870.58	22048
870.71	22299
870.84	22207
870.97	22150
871.1	22055
871.23	22341
871.36	22295
871.489	22162
871.619	22348
871.749	22341
871.879	22466
872.008	22424
872.138	22379
872.267	22360
872.397	22272
872.526	22166
872.656	22284
872.785	22135
872.915	22287
873.044	22504
873.173	22443
873.303	22573
873.432	22356
873.561	22440
873.69	22409
873.819	22352
873.948	22333
874.077	22337
874.206	22242
874.335	22508
874.464	22474
874.593	22580
874.722	22523
874.851	22698
874.979	22645
875.108	22618
875.237	22717
875.365	22421
875.494	22557
875.623	22603
875.751	22702
875.88	22668
876.008	22615
876.136	22900
876.265	23060
876.393	23151
876.521	23071
876.65	23052
876.778	22949
876.906	22934
877.034	22900
877.162	22972
877.29	22892
877.418	22915
877.546	22942
877.674	22946
877.802	22961
877.93	22965
878.058	22961
878.185	22831
878.313	22984
878.441	22987
878.568	22793
878.696	22919
878.824	23014
878.951	23181
879.079	23117
879.206	23258
879.333	23189
879.461	23037
879.588	23041
879.715	22946
879.842	23181
879.97	23037
880.097	22889
880.224	22679
880.351	22831
880.478	22961
880.605	22736
880.732	22729
880.859	23041
880.986	22759
881.112	22740
881.239	22577
881.366	22474
881.493	22379
881.619	22379
881.746	22337
881.872	22322
881.999	22398
882.125	22306
882.252	22344
882.378	22318
882.505	22459
882.631	22360
882.757	22116
882.883	22128
883.01	22070
883.136	21972
883.262	21812
883.388	21956
883.514	22070
883.64	22116
883.766	21949
883.892	21861
884.018	21899
884.143	22048
884.269	22006
884.395	21793
884.52	21682
884.646	21736
884.772	21587
884.897	21629
885.023	21648
885.148	21823
885.274	21770
885.399	21766
885.524	21705
885.65	21656
885.775	21709
885.9	21720
886.025	21663
886.15	21724
886.275	21587
886.4	21572
886.525	21644
886.65	21580
886.775	21622
886.9	21755
887.025	21895
887.149	21667
887.274	21496
887.399	21485
887.523	21454
887.648	21412
887.773	21302
887.897	21466
888.021	21504
888.146	21397
888.27	21519
888.395	21408
888.519	21401
888.643	21355
888.767	21473
888.891	21302
889.015	21169
889.139	21135
889.263	21161
889.387	21351
889.511	21359
889.635	21306
889.759	21131
889.883	21089
890.006	21157
890.13	21211
890.254	21093
890.377	21142
890.501	20864
890.624	20815
890.748	21028
890.871	20891
890.995	20750
891.118	20678
891.241	20724
891.364	20758
891.488	20849
891.611	20708
891.734	20651
891.857	20689
891.98	20800
892.103	20712
892.226	20902
892.349	20659
892.471	20514
892.594	20754
892.717	20667
892.839	20606
892.962	20697
893.085	20678
893.207	20743
893.33	20564
893.452	20571
893.575	20617
893.697	20625
893.819	20762
893.941	20838
894.064	20849
894.186	20602
894.308	20541
894.43	20746
894.552	20861
894.674	20689
894.796	20499
894.918	20575
895.04	20511
895.161	20720
895.283	20697
895.405	20556
895.526	20621
895.648	20609
895.769	20682
895.891	20648
896.012	20724
896.134	20644
896.255	20678
896.376	20663
896.498	20636
896.619	20678
896.74	20648
896.861	20701
896.982	21017
897.103	21100
897.224	20990
897.345	20937
897.466	20883
897.587	20929
897.708	20975
897.828	21017
897.949	20937
898.07	20655
898.19	20921
898.311	21009
898.431	20762
898.552	20773
898.672	20849
898.792	20781
898.913	20868
899.033	20701
899.153	20648
899.273	20507
899.393	20362
899.513	20552
899.633	20564
899.753	20568
899.873	20450
899.993	20526
900.113	20358
900.232	20507
900.352	20457
900.472	20336
900.591	20301
900.711	20305
900.83	20301
900.95	20446
901.069	20423
901.189	20290
901.308	19967
901.427	19830
901.546	19887
901.665	19940
901.784	19936
901.904	19753
902.023	19586
902.141	19438
902.26	19415
902.379	19407
902.498	19335
902.617	19297
902.735	19289
902.854	19327
902.973	19266
903.091	19107
903.21	19023
903.328	19076
903.446	18924
903.565	18795
903.683	18909
903.801	18745
903.919	18745
904.038	18810
904.156	18612
904.274	18684
904.392	18582
904.51	18582
904.627	18604
904.745	18719
904.863	18673
904.981	18384
905.098	18159
905.216	18296
905.334	18285
905.451	18289
905.569	18201
905.686	18296
905.803	18209
905.921	18015
906.038	18068
906.155	18091
906.272	17980
906.389	17874
906.506	17775
906.623	17767
906.74	17710
906.857	17649
906.974	17680
907.091	17714
907.208	17870
907.324	17821
907.441	17684
907.557	17512
907.674	17398
907.79	17410
907.907	17436
908.023	17459
908.139	17406
908.256	17360
908.372	17452
908.488	17239
908.604	17246
908.72	17204
908.836	17185
908.952	17090
909.068	17128
909.184	17273
909.3	17117
909.415	17258
909.531	17090
909.647	16847
909.762	16866
909.878	16793
909.993	16987
910.108	16835
910.224	16778
910.339	16752
910.454	16725
910.57	16618
910.685	16577
910.8	16759
910.915	16790
911.03	16596
911.145	16424
911.259	16413
911.374	16303
911.489	16413
911.604	16204
911.718	16128
911.833	16200
911.947	16067
912.062	16051
912.176	16105
912.291	16128
912.405	16238
912.519	16276
912.633	16367
912.748	16177
912.862	16143
912.976	15930
913.09	15751
913.204	15915
913.318	15934
913.431	15994
913.545	16112
913.659	16036
913.772	15899
913.886	15842
914	15785
914.113	15895
914.226	15854
914.34	15709
914.453	15618
914.566	15778
914.68	15599
914.793	15542
914.906	15511
915.019	15424
915.132	15249
915.245	15412
915.358	15260
915.47	15359
915.583	15378
915.696	15359
915.809	15363
915.921	15439
916.034	15317
916.146	15180
916.259	15226
916.371	15306
916.483	15317
916.595	15252
916.708	15249
916.82	15173
916.932	15131
917.044	15154
917.156	15157
917.268	14994
917.38	14986
917.491	14906
917.603	14963
917.715	15081
917.826	14998
917.938	14910
918.049	14804
918.161	14872
918.272	15176
918.384	15039
918.495	14777
918.606	14727
918.717	14697
918.828	14765
918.939	14682
919.05	14579
919.161	14621
919.272	14457
919.383	14613
919.494	14838
919.604	14891
919.715	14670
919.826	14594
919.936	14617
920.047	14800
920.157	14682
920.267	14914
920.378	14731
920.488	14602
920.598	14857
920.708	14910
920.818	14861
920.928	14731
921.038	14914
921.148	14834
921.258	14762
921.368	14499
921.477	14404
921.587	14381
921.697	14225
921.806	14427
921.916	14252
922.025	14050
922.134	14088
922.244	13967
922.353	14100
922.462	13909
922.571	13826
922.68	13719
922.789	13685
922.898	13750
923.007	13594
923.116	13670
923.224	13662
923.333	13578
923.442	13521
923.55	13529
923.659	13514
923.767	13499
923.876	13480
923.984	13552
924.092	13400
924.201	13476
924.309	13460
924.417	13476
924.525	13396
924.633	13324
924.741	14039
924.849	13122
924.956	13228
925.064	13095
925.172	13091
925.279	13031
925.387	13198
925.494	13107
925.602	13209
925.709	13133
925.816	13012
925.924	12954
926.031	13084
926.138	12970
926.245	13114
926.352	12935
926.459	13080
926.566	13050
926.673	12947
926.779	12840
926.886	12779
926.993	12642
927.099	12635
927.206	12540
927.312	12623
927.419	12707
927.525	12642
927.631	12608
927.737	12528
927.843	12418
927.95	12350
928.056	12464
928.162	12441
928.267	12471
928.373	13133
928.479	12536
928.585	12220
928.69	12399
928.796	12410
928.901	12338
929.007	12209
929.112	12251
929.218	12350
929.323	12232
929.428	12133
929.533	12300
929.638	12079
929.743	12129
929.848	12106
929.953	12095
930.058	11988
930.163	11824
930.267	11847
930.372	11999
930.477	11729
930.581	11996
930.685	11889
930.79	11688
930.894	11760
930.998	11707
931.103	11821
931.207	11387
931.311	11463
931.415	11383
931.519	11018
931.623	11105
