Data from test_V78500241_1520.txt Node
Date: Fri Mar 25 15:52:19 CST 2022
User: usil
Spectrometer: V785-0024
Trigger mode: 0
Integration Time (sec): 4.000000E-1
Scans to average: 1
Nonlinearity correction enabled: false
Boxcar width: 0
Storing dark spectrum: false
XAxis mode: Wavelengths
Number of Pixels in Spectrum: 1024
>>>>>Begin Spectral Data<<<<<
801.071	28116
801.214	27987
801.356	27717
801.499	27873
801.641	27709
801.783	27530
801.926	27766
802.068	27583
802.211	27606
802.353	27553
802.496	27447
802.638	27332
802.78	27313
802.923	27325
803.065	27173
803.208	27230
803.35	27355
803.492	27427
803.635	27530
803.777	27427
803.919	27477
804.061	27816
804.204	27629
804.346	27488
804.488	27450
804.63	27374
804.773	27439
804.915	27549
805.057	27671
805.199	27443
805.341	27660
805.483	27724
805.626	27549
805.768	27564
805.91	27724
806.052	27679
806.194	27511
806.336	27850
806.478	27717
806.62	27797
806.762	27892
806.904	27781
807.046	28287
807.188	28051
807.33	28166
807.472	28219
807.614	28070
807.756	27945
807.898	27930
808.04	27869
808.182	27827
808.324	28029
808.465	27880
808.607	28192
808.749	28226
808.891	28432
809.033	28341
809.174	28405
809.316	28234
809.458	28306
809.6	28234
809.741	28405
809.883	28508
810.025	28557
810.166	28656
810.308	28531
810.45	28531
810.591	28390
810.733	28299
810.875	28337
811.016	28131
811.158	28196
811.299	28386
811.441	28516
811.582	28443
811.724	28314
811.865	28314
812.007	28337
812.148	28314
812.29	28386
812.431	28611
812.573	28615
812.714	28668
812.855	28717
812.997	29048
813.138	29132
813.279	28976
813.421	28908
813.562	28717
813.703	28656
813.845	28401
813.986	28280
814.127	28120
814.268	27983
814.41	28223
814.551	28215
814.692	27987
814.833	27876
814.974	28044
815.115	28070
815.256	27918
815.397	27949
815.539	27918
815.68	27838
815.821	27682
815.962	27888
816.103	27895
816.244	27747
816.385	27599
816.526	27583
816.666	27321
816.807	27363
816.948	27431
817.089	27458
817.23	27401
817.371	27424
817.512	27252
817.653	27336
817.793	27180
817.934	27222
818.075	27374
818.216	27367
818.356	27302
818.497	27363
818.638	27013
818.778	26990
818.919	27100
819.06	27283
819.2	27245
819.341	27260
819.481	27279
819.622	27370
819.762	27679
819.903	27622
820.043	27561
820.184	27420
820.324	27466
820.465	27477
820.605	27412
820.746	27351
820.886	27188
821.026	27462
821.167	27492
821.307	27435
821.447	27283
821.588	27260
821.728	27176
821.868	26952
822.008	26895
822.149	26670
822.289	26769
822.429	26564
822.569	26503
822.709	26415
822.849	26393
822.99	26298
823.13	26339
823.27	26301
823.41	26122
823.55	25978
823.69	26221
823.83	26161
823.97	25955
824.11	25951
824.25	25898
824.389	25811
824.529	26039
824.669	26081
824.809	26012
824.949	26119
825.089	26149
825.228	26054
825.368	25845
825.508	25772
825.648	25860
825.787	25925
825.927	25879
826.067	25727
826.206	25966
826.346	25921
826.485	25826
826.625	25826
826.765	25894
826.904	25879
827.044	25635
827.183	25548
827.323	25529
827.462	25613
827.601	25499
827.741	25491
827.88	25552
828.02	25468
828.159	25476
828.298	25506
828.437	25502
828.577	25563
828.716	25495
828.855	25453
828.994	25278
829.134	25225
829.273	25232
829.412	25240
829.551	25168
829.69	25213
829.829	25320
829.968	25331
830.107	25209
830.246	25164
830.385	25198
830.524	25194
830.663	24844
830.802	24932
830.941	24806
831.08	24810
831.219	24856
831.357	24916
831.496	25057
831.635	24825
831.774	24688
831.913	24639
832.051	24631
832.19	24650
832.329	24661
832.467	24536
832.606	24380
832.744	24441
832.883	24509
833.022	24437
833.16	24528
833.299	24471
833.437	24547
833.576	24589
833.714	24509
833.852	24654
833.991	24620
834.129	24658
834.267	24604
834.406	24536
834.544	24570
834.682	24589
834.821	24517
834.959	24700
835.097	24464
835.235	24608
835.373	24574
835.511	24601
835.65	24494
835.788	24399
835.926	24270
836.064	24194
836.202	24220
836.34	24464
836.478	24521
836.615	24350
836.753	24346
836.891	24414
837.029	24372
837.167	24452
837.305	24292
837.443	24289
837.58	24243
837.718	24273
837.856	24239
837.993	24079
838.131	24117
838.269	24114
838.406	24144
838.544	24018
838.681	23874
838.819	23790
838.956	23657
839.094	23745
839.231	23707
839.369	23798
839.506	24057
839.643	23927
839.781	23729
839.918	23581
840.055	23703
840.193	23615
840.33	23707
840.467	23653
840.604	23619
840.742	23984
840.879	23455
841.016	23646
841.153	23463
841.29	23745
841.427	23653
841.564	23676
841.701	23638
841.838	23452
841.975	23642
842.112	23577
842.249	23349
842.385	23337
842.522	23634
842.659	23376
842.796	23273
842.933	23387
843.069	23277
843.206	23391
843.343	23433
843.479	23379
843.616	23512
843.752	23151
843.889	23098
844.025	23280
844.162	23140
844.298	23254
844.435	23200
844.571	23098
844.708	23071
844.844	23250
844.98	23277
845.117	23239
845.253	22980
845.389	23029
845.525	22892
845.661	23018
845.798	22805
845.934	22949
846.07	22797
846.206	22942
846.342	23014
846.478	22752
846.614	22687
846.75	22565
846.886	22641
847.022	22683
847.158	22569
847.294	22535
847.429	22584
847.565	22569
847.701	22862
847.837	22291
847.972	22360
848.108	22417
848.244	22428
848.379	22177
848.515	22158
848.65	22295
848.786	22257
848.921	22173
849.057	22394
849.192	22268
849.328	22230
849.463	22147
849.598	22143
849.734	22109
849.869	21983
850.004	21994
850.14	21964
850.275	21869
850.41	21838
850.545	21934
850.68	21972
850.815	22063
850.95	21827
851.085	22021
851.22	22059
851.355	21918
851.49	21899
851.625	22010
851.76	21816
851.895	21956
852.03	21808
852.165	21998
852.299	21949
852.434	22021
852.569	21922
852.703	21876
852.838	21918
852.973	21964
853.107	21949
853.242	21895
853.376	21739
853.511	21701
853.645	21850
853.78	21888
853.914	21709
854.048	21682
854.183	21762
854.317	21857
854.451	21975
854.585	21762
854.72	21755
854.854	21861
854.988	21652
855.122	21747
855.256	21633
855.39	21759
855.524	21857
855.658	21789
855.792	21869
855.926	21720
856.06	21865
856.194	21736
856.327	21644
856.461	21724
856.595	21781
856.729	21736
856.862	21956
856.996	21785
857.13	21793
857.263	21835
857.397	21857
857.53	21728
857.664	21865
857.797	21797
857.931	21892
858.064	21816
858.197	21838
858.331	21797
858.464	21766
858.597	21644
858.731	21785
858.864	21652
858.997	21690
859.13	21739
859.263	21736
859.396	21808
859.529	21675
859.662	21713
859.795	21701
859.928	21682
860.061	21835
860.194	21903
860.327	21823
860.46	21823
860.592	21857
860.725	22078
860.858	21819
860.99	21816
861.123	21762
861.256	21682
861.388	21713
861.521	22440
861.653	21698
861.786	21606
861.918	21648
862.05	21660
862.183	21804
862.315	21679
862.447	21694
862.58	21709
862.712	21618
862.844	21473
862.976	21576
863.108	21477
863.24	21842
863.372	21477
863.504	21469
863.636	21424
863.768	21576
863.9	21443
864.032	21420
864.164	21332
864.296	21462
864.428	21618
864.559	21549
864.691	21591
864.823	21412
864.954	21477
865.086	21416
865.217	21382
865.349	21256
865.48	21332
865.612	21306
865.743	21428
865.875	21382
866.006	21325
866.137	21469
866.269	21321
866.4	21294
866.531	21382
866.662	21268
866.793	21336
866.924	21363
867.055	21218
867.186	21226
867.317	21089
867.448	21119
867.579	21222
867.71	21138
867.841	21173
867.972	21367
868.103	21264
868.233	21386
868.364	21226
868.495	21317
868.625	21545
868.756	21526
868.886	21466
869.017	21515
869.147	21667
869.278	21671
869.408	21492
869.539	21530
869.669	21652
869.799	21625
869.929	21701
870.06	21713
870.19	21888
870.32	21926
870.45	21793
870.58	22040
870.71	22002
870.84	21968
870.97	22025
871.1	21915
871.23	22158
871.36	22169
871.489	22044
871.619	22032
871.749	22128
871.879	22135
872.008	22230
872.138	22105
872.267	22074
872.397	22070
872.526	22036
872.656	21812
872.785	22032
872.915	22090
873.044	22261
873.173	22173
873.303	22109
873.432	22287
873.561	22238
873.69	22131
873.819	22207
873.948	22200
874.077	22074
874.206	21956
874.335	22280
874.464	22405
874.593	22322
874.722	22337
874.851	22363
874.979	22284
875.108	22413
875.237	22341
875.365	22344
875.494	22242
875.623	22421
875.751	22455
875.88	22413
876.008	22519
876.136	22565
876.265	22710
876.393	22812
876.521	22752
876.65	22881
876.778	22733
876.906	22752
877.034	22782
877.162	22733
877.29	22588
877.418	22702
877.546	22733
877.674	22679
877.802	22687
877.93	22691
878.058	22618
878.185	22565
878.313	22668
878.441	22733
878.568	22569
878.696	22611
878.824	22771
878.951	22721
879.079	22976
879.206	22961
879.333	22976
879.461	22942
879.588	22812
879.715	22831
879.842	22908
879.97	22782
880.097	22580
880.224	22645
880.351	22554
880.478	22504
880.605	22478
880.732	22554
880.859	22839
880.986	22497
881.112	22584
881.239	22417
881.366	22291
881.493	22268
881.619	22135
881.746	22074
881.872	22010
881.999	22044
882.125	22055
882.252	22139
882.378	22090
882.505	22219
882.631	21842
882.757	21895
882.883	21823
883.01	21827
883.136	21857
883.262	21660
883.388	21641
883.514	21888
883.64	21838
883.766	21656
883.892	21599
884.018	21595
884.143	21720
884.269	21823
884.395	21488
884.52	21515
884.646	21488
884.772	21329
884.897	21336
885.023	21504
885.148	21534
885.274	21534
885.399	21466
885.524	21408
885.65	21351
885.775	21492
885.9	21302
886.025	21538
886.15	21412
886.275	21344
886.4	21287
886.525	21545
886.65	21321
886.775	21306
886.9	21553
887.025	21599
887.149	21374
887.274	21252
887.399	21032
887.523	21230
887.648	21298
887.773	21157
887.897	21226
888.021	21180
888.146	21173
888.27	21192
888.395	21332
888.519	21310
888.643	21218
888.767	21127
888.891	21058
889.015	21036
889.139	21001
889.263	21070
889.387	21112
889.511	21077
889.635	21077
889.759	20975
889.883	20891
890.006	20990
890.13	21074
890.254	20948
890.377	20800
890.501	20731
890.624	20701
890.748	20754
890.871	20625
890.995	20613
891.118	20476
891.241	20568
891.364	20442
891.488	20530
891.611	20625
891.734	20431
891.857	20670
891.98	20533
892.103	20621
892.226	20465
892.349	20499
892.471	20339
892.594	20446
892.717	20503
892.839	20476
892.962	20332
893.085	20594
893.207	20454
893.33	20412
893.452	20385
893.575	20484
893.697	20450
893.819	20716
893.941	20659
894.064	20636
894.186	20484
894.308	20377
894.43	20499
894.552	20537
894.674	20511
894.796	20336
894.918	20355
895.04	20465
895.161	20594
895.283	20419
895.405	20412
895.526	20438
895.648	20507
895.769	20419
895.891	20495
896.012	20518
896.134	20415
896.255	20488
896.376	20545
896.498	20552
896.619	20495
896.74	20431
896.861	20461
896.982	20781
897.103	20899
897.224	20746
897.345	20720
897.466	20609
897.587	20678
897.708	20788
897.828	20727
897.949	20667
898.07	20461
898.19	20556
898.311	20826
898.431	20609
898.552	20640
898.672	20636
898.792	20735
898.913	20731
899.033	20590
899.153	20492
899.273	20431
899.393	20366
899.513	20419
899.633	20282
899.753	20339
899.873	20263
899.993	20366
900.113	20294
900.232	20351
900.352	20415
900.472	20366
900.591	20164
900.711	20103
900.83	20157
900.95	20244
901.069	20191
901.189	19902
901.308	19776
901.427	19757
901.546	19605
901.665	19761
901.784	19795
901.904	19597
902.023	19586
902.141	19263
902.26	19308
902.379	19304
902.498	19221
902.617	19076
902.735	19255
902.854	19209
902.973	19209
903.091	19053
903.21	18840
903.328	18787
903.446	18798
903.565	18753
903.683	18821
903.801	18597
903.919	18814
904.038	18696
904.156	18486
904.274	18635
904.392	18464
904.51	18483
904.627	18536
904.745	18509
904.863	18441
904.981	18296
905.098	18121
905.216	17996
905.334	18209
905.451	18182
905.569	18110
905.686	18163
905.803	18121
905.921	17927
906.038	18083
906.155	17916
906.272	17851
906.389	17821
906.506	17714
906.623	17649
906.74	17756
906.857	17497
906.974	17653
907.091	17707
907.208	17809
907.324	17764
907.441	17615
907.557	17455
907.674	17345
907.79	17391
907.907	17334
908.023	17429
908.139	17524
908.256	17395
908.372	17326
908.488	17315
908.604	17189
908.72	17052
908.836	17178
908.952	17166
909.068	17220
909.184	17220
909.3	17151
909.415	17159
909.531	17102
909.647	16911
909.762	16866
909.878	16927
909.993	16892
910.108	16885
910.224	16847
910.339	16847
910.454	16763
910.57	16607
910.685	16577
910.8	16885
910.915	16801
911.03	16538
911.145	16519
911.259	16432
911.374	16398
911.489	16322
911.604	16318
911.718	16215
911.833	16192
911.947	16135
912.062	16025
912.176	16162
912.291	16284
912.405	16166
912.519	16333
912.633	16268
912.748	16185
912.862	16120
912.976	15987
913.09	15857
913.204	15899
913.318	16010
913.431	16143
913.545	16036
913.659	16036
913.772	15979
913.886	15854
914	15831
914.113	15823
914.226	15838
914.34	15766
914.453	15728
914.566	15766
914.68	15667
914.793	15724
914.906	15488
915.019	15401
915.132	15317
915.245	15431
915.358	15431
915.47	15306
915.583	15363
915.696	15435
915.809	15526
915.921	15523
916.034	15336
916.146	15260
916.259	15294
916.371	15367
916.483	15298
916.595	15226
916.708	15272
916.82	15188
916.932	15123
917.044	15245
917.156	15074
917.268	15062
917.38	15066
917.491	14944
917.603	15062
917.715	15051
917.826	15043
917.938	14960
918.049	14823
918.161	14902
918.272	15123
918.384	15036
918.495	14883
918.606	14887
918.717	14701
918.828	14880
918.939	14781
919.05	14697
919.161	14659
919.272	14564
919.383	14473
919.494	14868
919.604	14998
919.715	14644
919.826	14632
919.936	14743
920.047	14750
920.157	14796
920.267	14849
920.378	14716
920.488	14674
920.598	14857
920.708	15055
920.818	14861
920.928	14906
921.038	14990
921.148	14902
921.258	14617
921.368	14560
921.477	14488
921.587	14514
921.697	14366
921.806	14492
921.916	14271
922.025	14168
922.134	14100
922.244	14054
922.353	14115
922.462	13936
922.571	13807
922.68	13807
922.789	13723
922.898	13864
923.007	13696
923.116	13818
923.224	13791
923.333	13666
923.442	13651
923.55	13506
923.659	13548
923.767	13613
923.876	13464
923.984	13556
924.092	13502
924.201	13449
924.309	13445
924.417	13438
924.525	13327
924.633	13358
924.741	14423
924.849	13133
924.956	13377
925.064	13278
925.172	13084
925.279	13141
925.387	13164
925.494	13217
925.602	13263
925.709	13209
925.816	13110
925.924	13114
926.031	13190
926.138	13046
926.245	13126
926.352	13019
926.459	13133
926.566	13076
926.673	12981
926.779	12875
926.886	12894
926.993	12703
927.099	12700
927.206	12688
927.312	12658
927.419	12616
927.525	12703
927.631	12829
927.737	12566
927.843	12498
927.95	12388
928.056	12547
928.162	12570
928.267	12540
928.373	13187
928.479	12540
928.585	12327
928.69	12471
928.796	12532
928.901	12429
929.007	12235
929.112	12399
929.218	12330
929.323	12266
929.428	12262
929.533	12437
929.638	12190
929.743	12247
929.848	12171
929.953	12087
930.058	12072
930.163	11946
930.267	11931
930.372	12117
930.477	11897
930.581	12091
930.685	11973
930.79	11821
930.894	11866
930.998	11817
931.103	11901
931.207	11589
931.311	11535
931.415	11425
931.519	11231
931.623	11216
