Data from test_V78500241_1902.txt Node
Date: Fri Mar 25 15:54:58 CST 2022
User: usil
Spectrometer: V785-0024
Trigger mode: 0
Integration Time (sec): 4.000000E-1
Scans to average: 1
Nonlinearity correction enabled: false
Boxcar width: 0
Storing dark spectrum: false
XAxis mode: Wavelengths
Number of Pixels in Spectrum: 1024
>>>>>Begin Spectral Data<<<<<
801.071	28348
801.214	28432
801.356	28265
801.499	28143
801.641	28044
801.783	28082
801.926	28032
802.068	28101
802.211	27972
802.353	28013
802.496	27774
802.638	27743
802.78	27656
802.923	27667
803.065	27382
803.208	27637
803.35	27709
803.492	27835
803.635	28044
803.777	27743
803.919	27785
804.061	28226
804.204	27865
804.346	27888
804.488	27953
804.63	28025
804.773	27857
804.915	28090
805.057	28093
805.199	27857
805.341	27979
805.483	28051
805.626	28158
805.768	28078
805.91	28040
806.052	27972
806.194	28013
806.336	28287
806.478	28128
806.62	28185
806.762	28276
806.904	28291
807.046	28500
807.188	28508
807.33	28409
807.472	28485
807.614	28409
807.756	28527
807.898	28462
808.04	28405
808.182	28409
808.324	28424
808.465	28356
808.607	28592
808.749	28759
808.891	28854
809.033	28915
809.174	28828
809.316	28740
809.458	28740
809.6	28694
809.741	28831
809.883	28961
810.025	28999
810.166	28980
810.308	28957
810.45	28995
810.591	29010
810.733	28828
810.875	28725
811.016	28790
811.158	28588
811.299	28763
811.441	28839
811.582	28900
811.724	28771
811.865	28679
812.007	28679
812.148	28687
812.29	28748
812.431	28866
812.573	29052
812.714	29178
812.855	29299
812.997	29280
813.138	29391
813.279	29425
813.421	29250
813.562	29181
813.703	29064
813.845	28908
813.986	28759
814.127	28508
814.268	28386
814.41	28523
814.551	28409
814.692	28485
814.833	28440
814.974	28481
815.115	28428
815.256	28249
815.397	28253
815.539	28367
815.68	28223
815.821	28112
815.962	28310
816.103	28265
816.244	28200
816.385	28196
816.526	28101
816.666	27949
816.807	27797
816.948	27823
817.089	27857
817.23	27819
817.371	27770
817.512	27778
817.653	27568
817.793	27717
817.934	27713
818.075	27736
818.216	27713
818.356	27812
818.497	27637
818.638	27340
818.778	27458
818.919	27454
819.06	27633
819.2	27583
819.341	27781
819.481	27759
819.622	27869
819.762	28158
819.903	28070
820.043	27991
820.184	27797
820.324	27918
820.465	28021
820.605	27816
820.746	27842
820.886	27755
821.026	27797
821.167	27778
821.307	27930
821.447	27728
821.588	27804
821.728	27450
821.868	27443
822.008	27233
822.149	27154
822.289	27161
822.429	26975
822.569	26853
822.709	26906
822.849	26724
822.99	26845
823.13	26746
823.27	26693
823.41	26708
823.55	26530
823.69	26689
823.83	26609
823.97	26541
824.11	26412
824.25	26381
824.389	26282
824.529	26393
824.669	26298
824.809	26438
824.949	26431
825.089	26446
825.228	26431
825.368	26176
825.508	26130
825.648	26347
825.787	26381
825.927	26442
826.067	26092
826.206	26259
826.346	26278
826.485	26396
826.625	26172
826.765	26282
826.904	26393
827.044	26206
827.183	25947
827.323	26012
827.462	26012
827.601	26016
827.741	25909
827.88	25913
828.02	25887
828.159	25906
828.298	25944
828.437	26081
828.577	25936
828.716	26100
828.855	25944
828.994	25548
829.134	25559
829.273	25658
829.412	25582
829.551	25575
829.69	25582
829.829	25712
829.968	25769
830.107	25776
830.246	25616
830.385	25487
830.524	25419
830.663	25327
830.802	25400
830.941	25282
831.08	25107
831.219	25407
831.357	25316
831.496	25358
831.635	25282
831.774	25187
831.913	25187
832.051	25053
832.19	25084
832.329	25164
832.467	24954
832.606	24875
832.744	24878
832.883	24783
833.022	24806
833.16	24897
833.299	24973
833.437	24932
833.576	25004
833.714	24951
833.852	25072
833.991	25057
834.129	25156
834.267	25023
834.406	24882
834.544	25046
834.682	24951
834.821	24916
834.959	25088
835.097	24928
835.235	25034
835.373	24996
835.511	24863
835.65	24916
835.788	24867
835.926	24696
836.064	24684
836.202	24715
836.34	24776
836.478	24924
836.615	24768
836.753	24734
836.891	24913
837.029	24878
837.167	24772
837.305	24741
837.443	24642
837.58	24623
837.718	24597
837.856	24764
837.993	24589
838.131	24544
838.269	24536
838.406	24384
838.544	24384
838.681	24254
838.819	24300
838.956	23958
839.094	24220
839.231	24174
839.369	24266
839.506	24505
839.643	24270
839.781	24197
839.918	24049
840.055	24129
840.193	24079
840.33	24030
840.467	24034
840.604	24030
840.742	24361
840.879	23859
841.016	23935
841.153	23935
841.29	24129
841.427	24129
841.564	23980
841.701	23950
841.838	23931
841.975	23870
842.112	23923
842.249	23847
842.385	23741
842.522	23980
842.659	23828
842.796	23672
842.933	23805
843.069	23775
843.206	23668
843.343	23767
843.479	23771
843.616	23741
843.752	23672
843.889	23505
844.025	23687
844.162	23448
844.298	23478
844.435	23463
844.571	23452
844.708	23604
844.844	23646
844.98	23646
845.117	23570
845.253	23459
845.389	23406
845.525	23395
845.661	23395
845.798	23280
845.934	23372
846.07	23170
846.206	23296
846.342	23337
846.478	23132
846.614	23052
846.75	22934
846.886	22850
847.022	23060
847.158	22987
847.294	22984
847.429	22987
847.565	22877
847.701	23235
847.837	22630
847.972	22679
848.108	22892
848.244	22786
848.379	22664
848.515	22561
848.65	22542
848.786	22478
848.921	22580
849.057	22744
849.192	22653
849.328	22618
849.463	22580
849.598	22493
849.734	22508
849.869	22432
850.004	22318
850.14	22322
850.275	22322
850.41	22390
850.545	22063
850.68	22257
850.815	22356
850.95	22360
851.085	22512
851.22	22428
851.355	22303
851.49	22352
851.625	22352
851.76	22299
851.895	22265
852.03	22310
852.165	22249
852.299	22348
852.434	22489
852.569	22386
852.703	22348
852.838	22390
852.973	22447
853.107	22538
853.242	22424
853.376	22367
853.511	22150
853.645	22173
853.78	22219
853.914	22169
854.048	22169
854.183	22120
854.317	22226
854.451	22341
854.585	22211
854.72	22090
854.854	22253
854.988	22192
855.122	22204
855.256	22048
855.39	22097
855.524	22295
855.658	22150
855.792	22306
855.926	22219
856.06	22265
856.194	22265
856.327	22135
856.461	22173
856.595	22051
856.729	22188
856.862	22253
856.996	22249
857.13	22188
857.263	22299
857.397	22272
857.53	22154
857.664	22150
857.797	22242
857.931	22291
858.064	22188
858.197	22299
858.331	22268
858.464	22090
858.597	22070
858.731	22093
858.864	22078
858.997	22196
859.13	22147
859.263	22295
859.396	22238
859.529	22139
859.662	22223
859.795	22166
859.928	22246
860.061	22333
860.194	22478
860.327	22253
860.46	22257
860.592	22398
860.725	22299
860.858	22310
860.99	22253
861.123	22112
861.256	22036
861.388	22295
861.521	22968
861.653	22010
861.786	21994
861.918	22021
862.05	22067
862.183	22059
862.315	22147
862.447	22162
862.58	22044
862.712	22021
862.844	21876
862.976	21880
863.108	21991
863.24	22268
863.372	21808
863.504	21835
863.636	21873
863.768	21930
863.9	21835
864.032	21823
864.164	21880
864.296	21934
864.428	21899
864.559	22013
864.691	22017
864.823	21915
864.954	21861
865.086	21934
865.217	21873
865.349	21789
865.48	21869
865.612	21800
865.743	21945
865.875	21812
866.006	21648
866.137	21854
866.269	21747
866.4	21846
866.531	21667
866.662	21614
866.793	21751
866.924	21736
867.055	21751
867.186	21827
867.317	21690
867.448	21561
867.579	21755
867.71	21641
867.841	21660
867.972	21838
868.103	21755
868.233	21713
868.364	21660
868.495	21800
868.625	21895
868.756	21972
868.886	21831
869.017	21953
869.147	22082
869.278	22131
869.408	21983
869.539	21857
869.669	22032
869.799	21972
869.929	22124
870.06	22070
870.19	22382
870.32	22352
870.45	22268
870.58	22318
870.71	22500
870.84	22398
870.97	22322
871.1	22234
871.23	22485
871.36	22440
871.489	22379
871.619	22478
871.749	22512
871.879	22683
872.008	22641
872.138	22596
872.267	22527
872.397	22344
872.526	22363
872.656	22379
872.785	22367
872.915	22618
873.044	22630
873.173	22561
873.303	22641
873.432	22573
873.561	22706
873.69	22542
873.819	22615
873.948	22592
874.077	22535
874.206	22398
874.335	22702
874.464	22626
874.593	22820
874.722	22664
874.851	22748
874.979	22755
875.108	22873
875.237	22854
875.365	22729
875.494	22675
875.623	22885
875.751	22717
875.88	22835
876.008	22995
876.136	22923
876.265	23044
876.393	23246
876.521	23231
876.65	23212
876.778	23098
876.906	23239
877.034	23136
877.162	23185
877.29	23140
877.418	23147
877.546	23105
877.674	23189
877.802	23044
877.93	23128
878.058	23029
878.185	22968
878.313	23022
878.441	23147
878.568	22934
878.696	23109
878.824	23235
878.951	23067
879.079	23273
879.206	23425
879.333	23204
879.461	22999
879.588	23292
879.715	23337
879.842	23440
879.97	23136
880.097	22965
880.224	22919
880.351	22889
880.478	22957
880.605	22904
880.732	23022
880.859	23113
880.986	22911
881.112	22965
881.239	22774
881.366	22725
881.493	22763
881.619	22557
881.746	22538
881.872	22481
881.999	22493
882.125	22485
882.252	22599
882.378	22512
882.505	22675
882.631	22310
882.757	22143
882.883	22268
883.01	22284
883.136	22002
883.262	21949
883.388	22040
883.514	22116
883.64	22329
883.766	22158
883.892	21945
884.018	21975
884.143	21983
884.269	22196
884.395	21915
884.52	21869
884.646	21895
884.772	21743
884.897	21701
885.023	21956
885.148	22021
885.274	21930
885.399	21884
885.524	21827
885.65	21857
885.775	21835
885.9	21774
886.025	21892
886.15	21930
886.275	21804
886.4	21625
886.525	21846
886.65	21804
886.775	21755
886.9	21854
887.025	21949
887.149	21899
887.274	21629
887.399	21603
887.523	21606
887.648	21534
887.773	21454
887.897	21701
888.021	21454
888.146	21542
888.27	21698
888.395	21610
888.519	21599
888.643	21458
888.767	21580
888.891	21606
889.015	21534
889.139	21367
889.263	21443
889.387	21401
889.511	21591
889.635	21443
889.759	21237
889.883	21340
890.006	21351
890.13	21481
890.254	21161
890.377	21241
890.501	21123
890.624	21085
890.748	21218
890.871	20967
890.995	20788
891.118	20872
891.241	20944
891.364	20910
891.488	21081
891.611	20952
891.734	20921
891.857	20933
891.98	20864
892.103	20933
892.226	20910
892.349	20880
892.471	20754
892.594	20823
892.717	20899
892.839	20762
892.962	20849
893.085	20910
893.207	20800
893.33	20667
893.452	20819
893.575	20891
893.697	20727
893.819	20899
893.941	21017
894.064	20982
894.186	20689
894.308	20804
894.43	20845
894.552	20921
894.674	20830
894.796	20762
894.918	20819
895.04	20823
895.161	20906
895.283	20792
895.405	20663
895.526	20872
895.648	20861
895.769	20804
895.891	20796
896.012	20887
896.134	20765
896.255	20819
896.376	20750
896.498	20724
896.619	20804
896.74	20682
896.861	20883
896.982	21047
897.103	21226
897.224	21051
897.345	21119
897.466	20963
897.587	20899
897.708	21165
897.828	21051
897.949	20914
898.07	20781
898.19	21066
898.311	20994
898.431	20948
898.552	20982
898.672	21005
898.792	20994
898.913	20971
899.033	20872
899.153	20800
899.273	20777
899.393	20765
899.513	20758
899.633	20716
899.753	20754
899.873	20568
899.993	20701
900.113	20667
900.232	20693
900.352	20701
900.472	20541
900.591	20438
900.711	20587
900.83	20339
900.95	20492
901.069	20674
901.189	20473
901.308	20180
901.427	19982
901.546	20035
901.665	19955
901.784	20191
901.904	20008
902.023	19913
902.141	19715
902.26	19666
902.379	19757
902.498	19597
902.617	19499
902.735	19677
902.854	19537
902.973	19521
903.091	19308
903.21	19343
903.328	19236
903.446	19129
903.565	19156
903.683	19076
903.801	18977
903.919	19000
904.038	19027
904.156	18810
904.274	19004
904.392	18787
904.51	18719
904.627	18745
904.745	18829
904.863	18852
904.981	18658
905.098	18570
905.216	18517
905.334	18414
905.451	18452
905.569	18448
905.686	18486
905.803	18498
905.921	18285
906.038	18342
906.155	18292
906.272	18121
906.389	18251
906.506	18060
906.623	18125
906.74	17958
906.857	17874
906.974	17882
907.091	18079
907.208	18155
907.324	18015
907.441	17805
907.557	17760
907.674	17737
907.79	17608
907.907	17676
908.023	17726
908.139	17676
908.256	17684
908.372	17573
908.488	17543
908.604	17497
908.72	17421
908.836	17528
908.952	17452
909.068	17414
909.184	17387
909.3	17440
909.415	17490
909.531	17341
909.647	17136
909.762	17121
909.878	17090
909.993	17098
910.108	17102
910.224	17056
910.339	17117
910.454	16919
910.57	16965
910.685	16831
910.8	17197
910.915	16934
911.03	16904
911.145	16839
911.259	16706
911.374	16599
911.489	16668
911.604	16558
911.718	16424
911.833	16489
911.947	16375
912.062	16276
912.176	16405
912.291	16561
912.405	16508
912.519	16687
912.633	16656
912.748	16516
912.862	16474
912.976	16333
913.09	16143
913.204	16169
913.318	16207
913.431	16386
913.545	16333
913.659	16360
913.772	16177
913.886	16116
914	16048
914.113	16097
914.226	16131
914.34	16124
914.453	15857
914.566	16074
914.68	15930
914.793	15937
914.906	15789
915.019	15705
915.132	15538
915.245	15625
915.358	15580
915.47	15595
915.583	15557
915.696	15656
915.809	15751
915.921	15789
916.034	15656
916.146	15564
916.259	15557
916.371	15587
916.483	15557
916.595	15416
916.708	15469
916.82	15523
916.932	15439
917.044	15359
917.156	15298
917.268	15348
917.38	15310
917.491	15218
917.603	15226
917.715	15340
917.826	15408
917.938	15176
918.049	15089
918.161	15146
918.272	15359
918.384	15298
918.495	15226
918.606	15028
918.717	14910
918.828	15077
918.939	14990
919.05	14921
919.161	15001
919.272	14857
919.383	14815
919.494	15058
919.604	15211
919.715	15058
919.826	14902
919.936	14899
920.047	15043
920.157	15028
920.267	15237
920.378	14849
920.488	14975
920.598	15093
920.708	15264
920.818	15108
920.928	15142
921.038	15214
921.148	15161
921.258	14883
921.368	14876
921.477	14720
921.587	14792
921.697	14511
921.806	14743
921.916	14541
922.025	14362
922.134	14400
922.244	14370
922.353	14434
922.462	14237
922.571	14259
922.68	14035
922.789	13928
922.898	13967
923.007	13856
923.116	13967
923.224	13868
923.333	13906
923.442	13860
923.55	13868
923.659	13845
923.767	13826
923.876	13753
923.984	13746
924.092	13693
924.201	13799
924.309	13685
924.417	13723
924.525	13753
924.633	13624
924.741	14438
924.849	13457
924.956	13556
925.064	13381
925.172	13327
925.279	13304
925.387	13441
925.494	13411
925.602	13422
925.709	13373
925.816	13266
925.924	13251
926.031	13415
926.138	13285
926.245	13365
926.352	13198
926.459	13403
926.566	13373
926.673	13293
926.779	13126
926.886	13088
926.993	12973
927.099	12897
927.206	12806
927.312	12894
927.419	12977
927.525	12886
927.631	13015
927.737	12867
927.843	12840
927.95	12658
928.056	12779
928.162	12688
928.267	12806
928.373	13362
928.479	12757
928.585	12601
928.69	12692
928.796	12726
928.901	12597
929.007	12452
929.112	12563
929.218	12547
929.323	12490
929.428	12448
929.533	12597
929.638	12414
929.743	12414
929.848	12479
929.953	12464
930.058	12285
930.163	12178
930.267	12148
930.372	12311
930.477	12072
930.581	12296
930.685	12182
930.79	12095
930.894	11980
930.998	11965
931.103	12129
931.207	11824
931.311	11653
931.415	11642
931.519	11459
931.623	11356
