Data from test_V78500241_3344.txt Node
Date: Fri Mar 25 16:04:57 CST 2022
User: usil
Spectrometer: V785-0024
Trigger mode: 0
Integration Time (sec): 4.000000E-1
Scans to average: 1
Nonlinearity correction enabled: false
Boxcar width: 0
Storing dark spectrum: false
XAxis mode: Wavelengths
Number of Pixels in Spectrum: 1024
>>>>>Begin Spectral Data<<<<<
801.071	28626
801.214	28527
801.356	28519
801.499	28253
801.641	28318
801.783	28223
801.926	28284
802.068	28120
802.211	28185
802.353	28154
802.496	28021
802.638	27869
802.78	27880
802.923	27835
803.065	27774
803.208	27930
803.35	27972
803.492	28238
803.635	28223
803.777	28013
803.919	28158
804.061	28596
804.204	28226
804.346	28017
804.488	28097
804.63	28109
804.773	28196
804.915	28169
805.057	28325
805.199	28284
805.341	28257
805.483	28284
805.626	28303
805.768	28124
805.91	28398
806.052	28341
806.194	28337
806.336	28516
806.478	28333
806.62	28215
806.762	28462
806.904	28691
807.046	28919
807.188	28885
807.33	28733
807.472	28824
807.614	28691
807.756	28660
807.898	28641
808.04	28516
808.182	28668
808.324	28683
808.465	28656
808.607	28786
808.749	29105
808.891	29140
809.033	29056
809.174	29113
809.316	29010
809.458	29029
809.6	29124
809.741	29052
809.883	29204
810.025	29391
810.166	29345
810.308	29402
810.45	29269
810.591	29254
810.733	29121
810.875	29086
811.016	28923
811.158	28949
811.299	29140
811.441	29124
811.582	29162
811.724	29064
811.865	29025
812.007	29079
812.148	29098
812.29	29044
812.431	29193
812.573	29307
812.714	29383
812.855	29558
812.997	29535
813.138	29695
813.279	29680
813.421	29608
813.562	29554
813.703	29288
813.845	29292
813.986	29018
814.127	28896
814.268	28660
814.41	28946
814.551	28816
814.692	28812
814.833	28675
814.974	28637
815.115	28721
815.256	28519
815.397	28637
815.539	28656
815.68	28656
815.821	28538
815.962	28557
816.103	28588
816.244	28493
816.385	28447
816.526	28382
816.666	28143
816.807	28173
816.948	28166
817.089	28173
817.23	28116
817.371	28139
817.512	28025
817.653	28147
817.793	28021
817.934	28032
818.075	28010
818.216	27998
818.356	28162
818.497	27991
818.638	27770
818.778	27778
818.919	27759
819.06	27926
819.2	28029
819.341	28124
819.481	28097
819.622	28261
819.762	28470
819.903	28253
820.043	28306
820.184	28124
820.324	28124
820.465	28253
820.605	28246
820.746	28261
820.886	28074
821.026	28147
821.167	28150
821.307	28223
821.447	28097
821.588	27857
821.728	27903
821.868	27698
822.008	27614
822.149	27587
822.289	27447
822.429	27374
822.569	27146
822.709	27203
822.849	27089
822.99	27081
823.13	27032
823.27	27028
823.41	26899
823.55	26864
823.69	26895
823.83	26864
823.97	26880
824.11	26758
824.25	26575
824.389	26541
824.529	26918
824.669	26727
824.809	26811
824.949	26792
825.089	26823
825.228	26735
825.368	26552
825.508	26549
825.648	26655
825.787	26678
825.927	26678
826.067	26571
826.206	26453
826.346	26594
826.485	26663
826.625	26583
826.765	26701
826.904	26606
827.044	26298
827.183	26465
827.323	26237
827.462	26347
827.601	26336
827.741	26248
827.88	26301
828.02	26122
828.159	26096
828.298	26256
828.437	26172
828.577	26122
828.716	26298
828.855	26210
828.994	25978
829.134	26157
829.273	26077
829.412	25932
829.551	25955
829.69	26062
829.829	26065
829.968	26122
830.107	26016
830.246	26035
830.385	25921
830.524	25932
830.663	25818
830.802	25750
830.941	25518
831.08	25674
831.219	25628
831.357	25613
831.496	25826
831.635	25620
831.774	25563
831.913	25491
832.051	25327
832.19	25426
832.329	25472
832.467	25354
832.606	25183
832.744	25225
832.883	25377
833.022	25148
833.16	25152
833.299	25377
833.437	25369
833.576	25407
833.714	25327
833.852	25358
833.991	25445
834.129	25350
834.267	25495
834.406	25472
834.544	25392
834.682	25411
834.821	25251
834.959	25430
835.097	25316
835.235	25384
835.373	25293
835.511	25274
835.65	25175
835.788	25228
835.926	25171
836.064	24928
836.202	24954
836.34	25244
836.478	25225
836.615	25179
836.753	25107
836.891	25324
837.029	25122
837.167	25057
837.305	25031
837.443	25057
837.58	24966
837.718	25099
837.856	24954
837.993	24875
838.131	24992
838.269	24886
838.406	24928
838.544	24840
838.681	24650
838.819	24502
838.956	24547
839.094	24532
839.231	24456
839.369	24555
839.506	24939
839.643	24688
839.781	24486
839.918	24521
840.055	24437
840.193	24353
840.33	24380
840.467	24254
840.604	24513
840.742	24608
840.879	24235
841.016	24372
841.153	24228
841.29	24304
841.427	24338
841.564	24365
841.701	24365
841.838	24167
841.975	24254
842.112	24121
842.249	24133
842.385	24182
842.522	24361
842.659	24239
842.796	24144
842.933	24057
843.069	24041
843.206	23977
843.343	24106
843.479	24178
843.616	24117
843.752	23824
843.889	23920
844.025	24072
844.162	23999
844.298	23977
844.435	23904
844.571	23874
844.708	23958
844.844	24018
844.98	24133
845.117	23916
845.253	23935
845.389	23794
845.525	23802
845.661	23687
845.798	23649
845.934	23745
846.07	23604
846.206	23585
846.342	23821
846.478	23699
846.614	23592
846.75	23349
846.886	23353
847.022	23520
847.158	23387
847.294	23315
847.429	23417
847.565	23372
847.701	23543
847.837	23064
847.972	22934
848.108	23117
848.244	23208
848.379	22995
848.515	22923
848.65	22862
848.786	22885
848.921	22889
849.057	23189
849.192	23003
849.328	22987
849.463	22946
849.598	22824
849.734	22854
849.869	22752
850.004	22649
850.14	22736
850.275	22683
850.41	22569
850.545	22580
850.68	22618
850.815	22782
850.95	22691
851.085	22820
851.22	22812
851.355	22809
851.49	22664
851.625	22664
851.76	22637
851.895	22664
852.03	22637
852.165	22816
852.299	22637
852.434	22850
852.569	22828
852.703	22557
852.838	22698
852.973	22889
853.107	22740
853.242	22584
853.376	22557
853.511	22421
853.645	22470
853.78	22577
853.914	22607
854.048	22584
854.183	22489
854.317	22546
854.451	22641
854.585	22485
854.72	22542
854.854	22546
854.988	22504
855.122	22508
855.256	22436
855.39	22542
855.524	22679
855.658	22618
855.792	22573
855.926	22527
856.06	22523
856.194	22634
856.327	22489
856.461	22500
856.595	22459
856.729	22440
856.862	22550
856.996	22557
857.13	22584
857.263	22535
857.397	22497
857.53	22557
857.664	22584
857.797	22649
857.931	22573
858.064	22546
858.197	22584
858.331	22531
858.464	22500
858.597	22466
858.731	22466
858.864	22489
858.997	22462
859.13	22409
859.263	22466
859.396	22702
859.529	22424
859.662	22478
859.795	22470
859.928	22398
860.061	22649
860.194	22698
860.327	22645
860.46	22603
860.592	22603
860.725	22637
860.858	22668
860.99	22554
861.123	22424
861.256	22402
861.388	22462
861.521	23071
861.653	22276
861.786	22295
861.918	22287
862.05	22409
862.183	22455
862.315	22318
862.447	22565
862.58	22287
862.712	22276
862.844	22150
862.976	22405
863.108	22310
863.24	22771
863.372	22188
863.504	22166
863.636	22261
863.768	22226
863.9	22162
864.032	22131
864.164	22276
864.296	22192
864.428	22512
864.559	22405
864.691	22356
864.823	22215
864.954	22169
865.086	22211
865.217	22192
865.349	22112
865.48	22070
865.612	22097
865.743	22291
865.875	22211
866.006	22135
866.137	22105
866.269	22135
866.4	22067
866.531	22097
866.662	22036
866.793	22044
866.924	21838
867.055	21975
867.186	21983
867.317	21926
867.448	21934
867.579	22097
867.71	21934
867.841	21808
867.972	22010
868.103	22150
868.233	22059
868.364	22063
868.495	22067
868.625	22158
868.756	22379
868.886	22158
869.017	22333
869.147	22436
869.278	22462
869.408	22299
869.539	22280
869.669	22272
869.799	22333
869.929	22580
870.06	22352
870.19	22565
870.32	22611
870.45	22656
870.58	22630
870.71	22828
870.84	22653
870.97	22603
871.1	22805
871.23	22889
871.36	22949
871.489	22854
871.619	22877
871.749	22778
871.879	22873
872.008	23022
872.138	22873
872.267	22866
872.397	22831
872.526	22687
872.656	22740
872.785	22713
872.915	22995
873.044	22911
873.173	22957
873.303	23025
873.432	22987
873.561	22908
873.69	22934
873.819	22999
873.948	23033
874.077	22942
874.206	22835
874.335	22892
874.464	23117
874.593	23151
874.722	23010
874.851	23140
874.979	22987
875.108	23094
875.237	23083
875.365	23022
875.494	23056
875.623	23269
875.751	23132
875.88	23098
876.008	23189
876.136	23330
876.265	23543
876.393	23577
876.521	23577
876.65	23634
876.778	23486
876.906	23433
877.034	23512
877.162	23421
877.29	23303
877.418	23539
877.546	23630
877.674	23448
877.802	23528
877.93	23395
878.058	23463
878.185	23345
878.313	23387
878.441	23376
878.568	23227
878.696	23372
878.824	23543
878.951	23531
879.079	23657
879.206	23672
879.333	23581
879.461	23516
879.588	23474
879.715	23592
879.842	23733
879.97	23493
880.097	23341
880.224	23231
880.351	23360
880.478	23254
880.605	23178
880.732	23326
880.859	23368
880.986	23216
881.112	23376
881.239	23136
881.366	23086
881.493	22946
881.619	22957
881.746	22828
881.872	22774
881.999	22889
882.125	22790
882.252	22812
882.378	22820
882.505	22942
882.631	22702
882.757	22481
882.883	22603
883.01	22523
883.136	22478
883.262	22341
883.388	22363
883.514	22527
883.64	22550
883.766	22337
883.892	22246
884.018	22306
884.143	22550
884.269	22493
884.395	22192
884.52	22109
884.646	22173
884.772	22124
884.897	22063
885.023	22185
885.148	22192
885.274	22192
885.399	22257
885.524	22177
885.65	22128
885.775	22196
885.9	22124
886.025	22242
886.15	22055
886.275	22070
886.4	22044
886.525	22059
886.65	22040
886.775	22059
886.9	22242
887.025	22291
887.149	22044
887.274	21926
887.399	21812
887.523	21991
887.648	21850
887.773	21827
887.897	21998
888.021	21911
888.146	21831
888.27	22029
888.395	22010
888.519	22032
888.643	21907
888.767	21949
888.891	21850
889.015	21652
889.139	21705
889.263	21671
889.387	21618
889.511	21968
889.635	21842
889.759	21713
889.883	21591
890.006	21717
890.13	21785
890.254	21614
890.377	21576
890.501	21329
890.624	21435
890.748	21397
890.871	21363
890.995	21245
891.118	21146
891.241	21252
891.364	21142
891.488	21412
891.611	21138
891.734	21100
891.857	21306
891.98	21275
892.103	21374
892.226	21233
892.349	21237
892.471	20921
892.594	21089
892.717	21184
892.839	21089
892.962	21066
893.085	21104
893.207	21199
893.33	21039
893.452	21070
893.575	21211
893.697	21104
893.819	21275
893.941	21302
894.064	21252
894.186	21074
894.308	21024
894.43	21272
894.552	21359
894.674	21066
894.796	21062
894.918	21036
895.04	21074
895.161	21195
895.283	21176
895.405	21058
895.526	21081
895.648	21055
895.769	21123
895.891	21104
896.012	21047
896.134	21252
896.255	21150
896.376	21138
896.498	21108
896.619	21123
896.74	21032
896.861	21116
896.982	21397
897.103	21462
897.224	21378
897.345	21370
897.466	21165
897.587	21351
897.708	21454
897.828	21431
897.949	21272
898.07	21146
898.19	21176
898.311	21447
898.431	21264
898.552	21260
898.672	21313
898.792	21321
898.913	21275
899.033	21176
899.153	20975
899.273	20979
899.393	21135
899.513	21070
899.633	21074
899.753	20986
899.873	20902
899.993	20986
900.113	20967
900.232	21089
900.352	20944
900.472	20758
900.591	20792
900.711	20826
900.83	20727
900.95	20765
901.069	20891
901.189	20804
901.308	20400
901.427	20366
901.546	20301
901.665	20400
901.784	20278
901.904	20221
902.023	20103
902.141	19894
902.26	19928
902.379	19986
902.498	19868
902.617	19898
902.735	19932
902.854	19776
902.973	19799
903.091	19521
903.21	19552
903.328	19495
903.446	19377
903.565	19346
903.683	19422
903.801	19152
903.919	19358
904.038	19327
904.156	19156
904.274	19179
904.392	19004
904.51	19065
904.627	19027
904.745	19107
904.863	18989
904.981	18757
905.098	18779
905.216	18745
905.334	18837
905.451	18791
905.569	18871
905.686	18833
905.803	18741
905.921	18563
906.038	18700
906.155	18555
906.272	18403
906.389	18441
906.506	18407
906.623	18205
906.74	18300
906.857	18201
906.974	18194
907.091	18285
907.208	18357
907.324	18319
907.441	18129
907.557	17984
907.674	17973
907.79	17851
907.907	17939
908.023	17942
908.139	17901
908.256	17897
908.372	17863
908.488	17908
908.604	17733
908.72	17668
908.836	17695
908.952	17619
909.068	17695
909.184	17824
909.3	17653
909.415	17741
909.531	17745
909.647	17322
909.762	17345
909.878	17345
909.993	17455
910.108	17303
910.224	17372
910.339	17330
910.454	17296
910.57	17223
910.685	17208
910.8	17425
910.915	17376
911.03	17231
911.145	17010
911.259	16972
911.374	17010
911.489	16831
911.604	16904
911.718	16793
911.833	16679
911.947	16645
912.062	16626
912.176	16679
912.291	16797
912.405	16683
912.519	16938
912.633	16892
912.748	16805
912.862	16744
912.976	16447
913.09	16413
913.204	16481
913.318	16630
913.431	16645
913.545	16523
913.659	16668
913.772	16489
913.886	16360
914	16325
914.113	16443
914.226	16413
914.34	16462
914.453	16162
914.566	16299
914.68	16139
914.793	16177
914.906	15987
915.019	15911
915.132	15907
915.245	15873
915.358	15869
915.47	15979
915.583	15785
915.696	15793
915.809	16002
915.921	15975
916.034	15800
916.146	15755
916.259	15766
916.371	15846
916.483	15819
916.595	15743
916.708	15682
916.82	15732
916.932	15599
917.044	15637
917.156	15610
917.268	15557
917.38	15561
917.491	15466
917.603	15424
917.715	15603
917.826	15584
917.938	15424
918.049	15439
918.161	15538
918.272	15595
918.384	15614
918.495	15412
918.606	15268
918.717	15142
918.828	15272
918.939	15264
919.05	15093
919.161	15332
919.272	15077
919.383	15199
919.494	15283
919.604	15526
919.715	15211
919.826	15157
919.936	15268
920.047	15264
920.157	15230
920.267	15382
920.378	15245
920.488	15146
920.598	15245
920.708	15469
920.818	15306
920.928	15176
921.038	15481
921.148	15439
921.258	15135
921.368	15047
921.477	14887
921.587	14944
921.697	14872
921.806	14967
921.916	14735
922.025	14602
922.134	14610
922.244	14621
922.353	14514
922.462	14446
922.571	14355
922.68	14351
922.789	14305
922.898	14240
923.007	14202
923.116	14199
923.224	14191
923.333	14153
923.442	14035
923.55	14077
923.659	14119
923.767	14054
923.876	13970
923.984	14092
924.092	13898
924.201	13917
924.309	13807
924.417	13807
924.525	13852
924.633	13795
924.741	14811
924.849	13586
924.956	13753
925.064	13597
925.172	13559
925.279	13521
925.387	13559
925.494	13632
925.602	13761
925.709	13662
925.816	13521
925.924	13476
926.031	13578
926.138	13529
926.245	13590
926.352	13480
926.459	13537
926.566	13731
926.673	13540
926.779	13354
926.886	13324
926.993	13129
927.099	13069
927.206	13164
927.312	13084
927.419	13202
927.525	13050
927.631	13225
927.737	13023
927.843	12951
927.95	12837
928.056	12928
928.162	12993
928.267	12913
928.373	13460
928.479	12920
928.585	12776
928.69	12894
928.796	12939
928.901	12852
929.007	12673
929.112	12814
929.218	12776
929.323	12608
929.428	12639
929.533	12662
929.638	12620
929.743	12578
929.848	12700
929.953	12582
930.058	12483
930.163	12342
930.267	12376
930.372	12490
930.477	12190
930.581	12536
930.685	12372
930.79	12209
930.894	12262
930.998	12194
931.103	12304
931.207	11920
931.311	11920
931.415	11775
931.519	11566
931.623	11516
