Data from test_V78500241_231.txt Node
Date: Fri Mar 25 15:43:24 CST 2022
User: usil
Spectrometer: V785-0024
Trigger mode: 0
Integration Time (sec): 4.000000E-1
Scans to average: 1
Nonlinearity correction enabled: false
Boxcar width: 0
Storing dark spectrum: false
XAxis mode: Wavelengths
Number of Pixels in Spectrum: 1024
>>>>>Begin Spectral Data<<<<<
801.071	29577
801.214	29429
801.356	29162
801.499	29246
801.641	29041
801.783	29124
801.926	29102
802.068	29010
802.211	28915
802.353	28831
802.496	28744
802.638	28736
802.78	28622
802.923	28668
803.065	28588
803.208	28557
803.35	28664
803.492	28835
803.635	28850
803.777	28847
803.919	28862
804.061	29109
804.204	28866
804.346	28645
804.488	28649
804.63	29018
804.773	28725
804.915	28713
805.057	28919
805.199	28801
805.341	28911
805.483	29071
805.626	28793
805.768	28763
805.91	28995
806.052	28938
806.194	28957
806.336	29044
806.478	28888
806.62	28873
806.762	28957
806.904	29208
807.046	29417
807.188	29311
807.33	29307
807.472	29353
807.614	29117
807.756	29197
807.898	29140
808.04	29239
808.182	29136
808.324	29193
808.465	29105
808.607	29387
808.749	29467
808.891	29615
809.033	29619
809.174	29455
809.316	29596
809.458	29634
809.6	29512
809.741	29562
809.883	29623
810.025	29752
810.166	29821
810.308	29794
810.45	29783
810.591	29733
810.733	29570
810.875	29436
811.016	29372
811.158	29436
811.299	29668
811.441	29752
811.582	29642
811.724	29444
811.865	29406
812.007	29307
812.148	29364
812.29	29402
812.431	29592
812.573	29813
812.714	29954
812.855	30106
812.997	30125
813.138	30262
813.279	30182
813.421	29980
813.562	30022
813.703	29794
813.845	29661
813.986	29414
814.127	29250
814.268	29102
814.41	29143
814.551	29155
814.692	29197
814.833	28991
814.974	29064
815.115	29067
815.256	28911
815.397	28991
815.539	28934
815.68	28949
815.821	28668
815.962	28892
816.103	28904
816.244	28725
816.385	28546
816.526	28428
816.666	28436
816.807	28314
816.948	28341
817.089	28367
817.23	28459
817.371	28322
817.512	28242
817.653	28051
817.793	28188
817.934	28280
818.075	28226
818.216	28325
818.356	28188
818.497	28044
818.638	28059
818.778	28029
818.919	27964
819.06	28097
819.2	28078
819.341	28147
819.481	28226
819.622	28322
819.762	28706
819.903	28542
820.043	28500
820.184	28367
820.324	28306
820.465	28421
820.605	28360
820.746	28348
820.886	28051
821.026	28268
821.167	28306
821.307	28344
821.447	28169
821.588	28093
821.728	28048
821.868	27698
822.008	27679
822.149	27705
822.289	27591
822.429	27386
822.569	27302
822.709	27256
822.849	27116
822.99	27104
823.13	27085
823.27	27043
823.41	26982
823.55	26777
823.69	26918
823.83	26937
823.97	26933
824.11	26781
824.25	26746
824.389	26724
824.529	26800
824.669	26629
824.809	26891
824.949	26750
825.089	26792
825.228	26632
825.368	26549
825.508	26594
825.648	26514
825.787	26743
825.927	26598
826.067	26457
826.206	26564
826.346	26708
826.485	26629
826.625	26457
826.765	26667
826.904	26511
827.044	26396
827.183	26298
827.323	26153
827.462	26286
827.601	26301
827.741	26248
827.88	26237
828.02	26065
828.159	26191
828.298	26176
828.437	26164
828.577	26157
828.716	26419
828.855	26180
828.994	26031
829.134	25925
829.273	26024
829.412	25913
829.551	25852
829.69	25868
829.829	25906
829.968	26027
830.107	25963
830.246	25951
830.385	25788
830.524	25837
830.663	25578
830.802	25605
830.941	25407
831.08	25400
831.219	25567
831.357	25601
831.496	25643
831.635	25400
831.774	25430
831.913	25308
832.051	25217
832.19	25244
832.329	25194
832.467	25057
832.606	25129
832.744	25114
832.883	25057
833.022	24958
833.16	25160
833.299	25137
833.437	25034
833.576	25251
833.714	25129
833.852	25240
833.991	25228
834.129	25285
834.267	25145
834.406	25114
834.544	25133
834.682	25114
834.821	25076
834.959	25304
835.097	25107
835.235	24985
835.373	25160
835.511	25080
835.65	24924
835.788	24913
835.926	24745
836.064	24886
836.202	24776
836.34	24973
836.478	25053
836.615	25000
836.753	24966
836.891	25076
837.029	25027
837.167	24867
837.305	24798
837.443	24810
837.58	24696
837.718	24916
837.856	24661
837.993	24715
838.131	24871
838.269	24593
838.406	24585
838.544	24490
838.681	24407
838.819	24319
838.956	24129
839.094	24186
839.231	24262
839.369	24330
839.506	24551
839.643	24330
839.781	24140
839.918	23996
840.055	24095
840.193	24098
840.33	24098
840.467	24129
840.604	24136
840.742	24330
840.879	23977
841.016	23999
841.153	23996
841.29	23961
841.427	23832
841.564	24163
841.701	24098
841.838	23977
841.975	23828
842.112	24007
842.249	23904
842.385	23802
842.522	24018
842.659	23897
842.796	23802
842.933	23745
843.069	23729
843.206	23661
843.343	23771
843.479	23653
843.616	23885
843.752	23611
843.889	23577
844.025	23646
844.162	23619
844.298	23577
844.435	23474
844.571	23402
844.708	23581
844.844	23649
844.98	23661
845.117	23570
845.253	23391
845.389	23341
845.525	23379
845.661	23326
845.798	23090
845.934	23147
846.07	23121
846.206	23166
846.342	23330
846.478	23174
846.614	22873
846.75	22854
846.886	22877
847.022	22999
847.158	22911
847.294	22862
847.429	22934
847.565	22839
847.701	22987
847.837	22660
847.972	22618
848.108	22706
848.244	22717
848.379	22455
848.515	22390
848.65	22405
848.786	22481
848.921	22611
849.057	22516
849.192	22504
849.328	22489
849.463	22626
849.598	22314
849.734	22348
849.869	22333
850.004	22219
850.14	22295
850.275	22223
850.41	22166
850.545	22226
850.68	22150
850.815	22287
850.95	22147
851.085	22413
851.22	22386
851.355	22128
851.49	22238
851.625	22147
851.76	22211
851.895	22063
852.03	22017
852.165	22150
852.299	22169
852.434	22310
852.569	22219
852.703	22154
852.838	22360
852.973	22363
853.107	22280
853.242	22101
853.376	22116
853.511	21869
853.645	22055
853.78	22029
853.914	22017
854.048	22002
854.183	21941
854.317	22006
854.451	22124
854.585	22021
854.72	21991
854.854	22051
854.988	21945
855.122	21899
855.256	21876
855.39	22006
855.524	22105
855.658	21945
855.792	22044
855.926	21991
856.06	22093
856.194	22013
856.327	21975
856.461	21880
856.595	21835
856.729	21930
856.862	22044
856.996	21869
857.13	22017
857.263	22048
857.397	22067
857.53	22025
857.664	22116
857.797	21983
857.931	22135
858.064	22105
858.197	22112
858.331	21945
858.464	21915
858.597	21781
858.731	21930
858.864	21892
858.997	21800
859.13	21987
859.263	22074
859.396	22048
859.529	21884
859.662	21960
859.795	21861
859.928	21953
860.061	22109
860.194	22116
860.327	21991
860.46	21926
860.592	22032
860.725	22021
860.858	22105
860.99	21770
861.123	21922
861.256	21831
861.388	21926
861.521	22569
861.653	21781
861.786	21774
861.918	21781
862.05	21800
862.183	22044
862.315	21915
862.447	22105
862.58	22002
862.712	21694
862.844	21701
862.976	21850
863.108	21709
863.24	21945
863.372	21572
863.504	21686
863.636	21603
863.768	21599
863.9	21526
864.032	21477
864.164	21496
864.296	21701
864.428	21679
864.559	21682
864.691	21648
864.823	21622
864.954	21557
865.086	21663
865.217	21542
865.349	21511
865.48	21466
865.612	21545
865.743	21496
865.875	21549
866.006	21477
866.137	21458
866.269	21534
866.4	21424
866.531	21462
866.662	21431
866.793	21321
866.924	21405
867.055	21397
867.186	21481
867.317	21355
867.448	21332
867.579	21374
867.71	21431
867.841	21367
867.972	21416
868.103	21370
868.233	21374
868.364	21348
868.495	21641
868.625	21648
868.756	21652
868.886	21553
869.017	21583
869.147	21888
869.278	21823
869.408	21625
869.539	21629
869.669	21842
869.799	21660
869.929	21770
870.06	21793
870.19	21972
870.32	21850
870.45	22128
870.58	21991
870.71	22234
870.84	22158
870.97	22021
871.1	22067
871.23	22093
871.36	22318
871.489	22135
871.619	22185
871.749	22291
871.879	22249
872.008	22276
872.138	22310
872.267	22272
872.397	22192
872.526	22086
872.656	22128
872.785	22086
872.915	22253
873.044	22306
873.173	22337
873.303	22344
873.432	22303
873.561	22268
873.69	22497
873.819	22204
873.948	22402
874.077	22280
874.206	22257
874.335	22341
874.464	22272
874.593	22436
874.722	22626
874.851	22580
874.979	22523
875.108	22618
875.237	22493
875.365	22451
875.494	22569
875.623	22497
875.751	22557
875.88	22557
876.008	22664
876.136	22679
876.265	22866
876.393	22949
876.521	22987
876.65	23033
876.778	22873
876.906	22847
877.034	22911
877.162	22915
877.29	22877
877.418	22980
877.546	22869
877.674	22953
877.802	22828
877.93	22911
878.058	22854
878.185	22801
878.313	22847
878.441	22869
878.568	22736
878.696	22831
878.824	22797
878.951	22889
879.079	23010
879.206	23140
879.333	23121
879.461	22976
879.588	22885
879.715	22923
879.842	23185
879.97	22839
880.097	22645
880.224	22733
880.351	22797
880.478	22626
880.605	22622
880.732	22691
880.859	22972
880.986	22675
881.112	22611
881.239	22546
881.366	22413
881.493	22348
881.619	22352
881.746	22310
881.872	22348
881.999	22276
882.125	22120
882.252	22352
882.378	22116
882.505	22333
882.631	22101
882.757	21911
882.883	22097
883.01	21968
883.136	21918
883.262	21934
883.388	21797
883.514	21907
883.64	22082
883.766	21956
883.892	21759
884.018	21816
884.143	21850
884.269	22067
884.395	21713
884.52	21599
884.646	21633
884.772	21507
884.897	21618
885.023	21629
885.148	21622
885.274	21713
885.399	21629
885.524	21629
885.65	21629
885.775	21511
885.9	21466
886.025	21648
886.15	21618
886.275	21633
886.4	21367
886.525	21526
886.65	21549
886.775	21408
886.9	21717
887.025	21774
887.149	21500
887.274	21344
887.399	21351
887.523	21332
887.648	21260
887.773	21165
887.897	21329
888.021	21386
888.146	21142
888.27	21306
888.395	21435
888.519	21272
888.643	21454
888.767	21317
888.891	21291
889.015	21123
889.139	21157
889.263	21081
889.387	21207
889.511	21310
889.635	21279
889.759	21089
889.883	21154
890.006	21051
890.13	21195
890.254	21036
890.377	20944
890.501	20910
890.624	20853
890.748	20883
890.871	20743
890.995	20590
891.118	20613
891.241	20720
891.364	20636
891.488	20864
891.611	20575
891.734	20583
891.857	20826
891.98	20762
892.103	20693
892.226	20708
892.349	20636
892.471	20385
892.594	20598
892.717	20514
892.839	20617
892.962	20492
893.085	20651
893.207	20552
893.33	20423
893.452	20473
893.575	20629
893.697	20552
893.819	20609
893.941	20819
894.064	20655
894.186	20438
894.308	20526
894.43	20861
894.552	20720
894.674	20590
894.796	20465
894.918	20514
895.04	20598
895.161	20617
895.283	20533
895.405	20446
895.526	20568
895.648	20568
895.769	20503
895.891	20651
896.012	20667
896.134	20678
896.255	20720
896.376	20530
896.498	20556
896.619	20689
896.74	20609
896.861	20705
896.982	20963
897.103	21039
897.224	20826
897.345	20785
897.466	20724
897.587	20842
897.708	20944
897.828	20807
897.949	20701
898.07	20651
898.19	20804
898.311	20842
898.431	20705
898.552	20792
898.672	20990
898.792	20697
898.913	20724
899.033	20533
899.153	20606
899.273	20469
899.393	20412
899.513	20659
899.633	20412
899.753	20594
899.873	20412
899.993	20541
900.113	20480
900.232	20480
900.352	20427
900.472	20240
900.591	20237
900.711	20374
900.83	20351
900.95	20263
901.069	20434
901.189	20122
901.308	19974
901.427	19928
901.546	19803
901.665	19868
901.784	19765
901.904	19712
902.023	19639
902.141	19339
902.26	19282
902.379	19537
902.498	19324
902.617	19373
902.735	19407
902.854	19312
902.973	19285
903.091	19038
903.21	18935
903.328	19000
903.446	18905
903.565	18772
903.683	18787
903.801	18757
903.919	18772
904.038	18669
904.156	18620
904.274	18681
904.392	18441
904.51	18445
904.627	18532
904.745	18601
904.863	18422
904.981	18338
905.098	18224
905.216	18224
905.334	18300
905.451	18129
905.569	18163
905.686	18239
905.803	18281
905.921	17996
906.038	17988
906.155	17980
906.272	17912
906.389	17832
906.506	17729
906.623	17691
906.74	17611
906.857	17615
906.974	17630
907.091	17687
907.208	17855
907.324	17745
907.441	17562
907.557	17482
907.674	17448
907.79	17376
907.907	17334
908.023	17326
908.139	17353
908.256	17303
908.372	17280
908.488	17349
908.604	17220
908.72	17079
908.836	17086
908.952	17048
909.068	17117
909.184	17147
909.3	17067
909.415	17121
909.531	17083
909.647	16904
909.762	16755
909.878	16839
909.993	16797
910.108	16660
910.224	16622
910.339	16733
910.454	16565
910.57	16603
910.685	16504
910.8	16786
910.915	16733
911.03	16683
911.145	16466
911.259	16375
911.374	16348
911.489	16276
911.604	16242
911.718	16078
911.833	16150
911.947	16002
912.062	16097
912.176	16154
912.291	16242
912.405	16173
912.519	16196
912.633	16310
912.748	16086
912.862	15998
912.976	15941
913.09	15789
913.204	15907
913.318	15823
913.431	15934
913.545	16025
913.659	15953
913.772	15895
913.886	15698
914	15656
914.113	15778
914.226	15789
914.34	15762
914.453	15572
914.566	15614
914.68	15603
914.793	15606
914.906	15370
915.019	15214
915.132	15393
915.245	15359
915.358	15317
915.47	15344
915.583	15241
915.696	15397
915.809	15435
915.921	15378
916.034	15298
916.146	15260
916.259	15184
916.371	15351
916.483	15249
916.595	15207
916.708	15222
916.82	15180
916.932	15062
917.044	15131
917.156	15039
917.268	14971
917.38	14933
917.491	15001
917.603	14910
917.715	15085
917.826	15081
917.938	14914
918.049	14792
918.161	14921
918.272	15043
918.384	14998
918.495	15013
918.606	14750
918.717	14712
918.828	14648
918.939	14785
919.05	14651
919.161	14796
919.272	14454
919.383	14598
919.494	14773
919.604	14899
919.715	14640
919.826	14644
919.936	14632
920.047	14670
920.157	14598
920.267	14861
920.378	14663
920.488	14602
920.598	14895
920.708	14960
920.818	14826
920.928	14861
921.038	14910
921.148	14800
921.258	14629
921.368	14503
921.477	14415
921.587	14434
921.697	14271
921.806	14415
921.916	14275
922.025	14050
922.134	14054
922.244	14046
922.353	14058
922.462	13951
922.571	13871
922.68	13712
922.789	13620
922.898	13658
923.007	13620
923.116	13700
923.224	13681
923.333	13605
923.442	13601
923.55	13441
923.659	13540
923.767	13559
923.876	13518
923.984	13445
924.092	13362
924.201	13491
924.309	13392
924.417	13434
924.525	13403
924.633	13400
924.741	14008
924.849	13069
924.956	13225
925.064	13072
925.172	13069
925.279	13152
925.387	13103
925.494	13019
925.602	13183
925.709	13069
925.816	12939
925.924	12958
926.031	13076
926.138	12996
926.245	13038
926.352	12916
926.459	12989
926.566	13084
926.673	12993
926.779	12798
926.886	12776
926.993	12646
927.099	12677
927.206	12563
927.312	12585
927.419	12658
927.525	12585
927.631	12662
927.737	12570
927.843	12498
927.95	12380
928.056	12445
928.162	12445
928.267	12429
928.373	13091
928.479	12513
928.585	12220
928.69	12350
928.796	12433
928.901	12384
929.007	12102
929.112	12311
929.218	12213
929.323	12155
929.428	12175
929.533	12277
929.638	12038
929.743	12041
929.848	12213
929.953	12076
930.058	12015
930.163	11821
930.267	11851
930.372	11950
930.477	11813
930.581	11946
930.685	11828
930.79	11767
930.894	11798
930.998	11737
931.103	11851
931.207	11387
931.311	11391
931.415	11349
931.519	11056
931.623	11064
