Data from test_V78500241_599.txt Node
Date: Fri Mar 25 15:45:57 CST 2022
User: usil
Spectrometer: V785-0024
Trigger mode: 0
Integration Time (sec): 4.000000E-1
Scans to average: 1
Nonlinearity correction enabled: false
Boxcar width: 0
Storing dark spectrum: false
XAxis mode: Wavelengths
Number of Pixels in Spectrum: 1024
>>>>>Begin Spectral Data<<<<<
801.071	27443
801.214	27389
801.356	27089
801.499	27039
801.641	27024
801.783	26872
801.926	27051
802.068	26868
802.211	26845
802.353	26735
802.496	26511
802.638	26560
802.78	26507
802.923	26503
803.065	26434
803.208	26438
803.35	26438
803.492	26727
803.635	26678
803.777	26701
803.919	26697
804.061	27001
804.204	26842
804.346	26754
804.488	26621
804.63	26655
804.773	26670
804.915	26682
805.057	26929
805.199	26667
805.341	26838
805.483	26845
805.626	26906
805.768	26716
805.91	26686
806.052	26743
806.194	26823
806.336	26994
806.478	26773
806.62	26762
806.762	26971
806.904	27043
807.046	27218
807.188	27321
807.33	27363
807.472	27321
807.614	27279
807.756	27184
807.898	27058
808.04	27051
808.182	26960
808.324	27089
808.465	27096
808.607	27264
808.749	27302
808.891	27538
809.033	27599
809.174	27477
809.316	27473
809.458	27515
809.6	27420
809.741	27648
809.883	27633
810.025	27603
810.166	27648
810.308	27690
810.45	27736
810.591	27599
810.733	27488
810.875	27287
811.016	27405
811.158	27317
811.299	27553
811.441	27656
811.582	27583
811.724	27496
811.865	27367
812.007	27298
812.148	27386
812.29	27466
812.431	27591
812.573	27861
812.714	27759
812.855	27903
812.997	28002
813.138	28246
813.279	28025
813.421	27964
813.562	27907
813.703	27804
813.845	27660
813.986	27386
814.127	27138
814.268	27093
814.41	27180
814.551	27051
814.692	27199
814.833	27123
814.974	27188
815.115	27077
815.256	26937
815.397	26918
815.539	27123
815.68	26982
815.821	26792
815.962	26716
816.103	26891
816.244	26750
816.385	26765
816.526	26663
816.666	26606
816.807	26324
816.948	26484
817.089	26377
817.23	26400
817.371	26377
817.512	26328
817.653	26396
817.793	26336
817.934	26328
818.075	26419
818.216	26442
818.356	26370
818.497	26092
818.638	26073
818.778	26199
818.919	26107
819.06	26073
819.2	26286
819.341	26358
819.481	26362
819.622	26461
819.762	26629
819.903	26499
820.043	26511
820.184	26461
820.324	26271
820.465	26545
820.605	26530
820.746	26564
820.886	26385
821.026	26351
821.167	26568
821.307	26594
821.447	26199
821.588	26248
821.728	26191
821.868	26024
822.008	25955
822.149	25936
822.289	25894
822.429	25632
822.569	25518
822.709	25578
822.849	25202
822.99	25263
823.13	25259
823.27	25251
823.41	25304
823.55	25228
823.69	25285
823.83	25072
823.97	25122
824.11	24882
824.25	24867
824.389	25038
824.529	25072
824.669	25031
824.809	25027
824.949	25038
825.089	25209
825.228	24958
825.368	24833
825.508	24806
825.648	24856
825.787	24848
825.927	24844
826.067	24772
826.206	24856
826.346	24806
826.485	24871
826.625	24821
826.765	24924
826.904	24829
827.044	24536
827.183	24650
827.323	24681
827.462	24532
827.601	24544
827.741	24589
827.88	24646
828.02	24464
828.159	24517
828.298	24513
828.437	24528
828.577	24521
828.716	24639
828.855	24410
828.994	24296
829.134	24171
829.273	24262
829.412	24224
829.551	24140
829.69	24106
829.829	24281
829.968	24281
830.107	24239
830.246	24194
830.385	24140
830.524	24148
830.663	24129
830.802	23969
830.941	23817
831.08	23927
831.219	23939
831.357	23874
831.496	24049
831.635	23908
831.774	23756
831.913	23783
832.051	23760
832.19	23684
832.329	23752
832.467	23440
832.606	23421
832.744	23455
832.883	23486
833.022	23535
833.16	23589
833.299	23539
833.437	23623
833.576	23672
833.714	23512
833.852	23539
833.991	23600
834.129	23638
834.267	23611
834.406	23668
834.544	23627
834.682	23627
834.821	23570
834.959	23672
835.097	23585
835.235	23608
835.373	23653
835.511	23512
835.65	23436
835.788	23353
835.926	23235
836.064	23109
836.202	23140
836.34	23364
836.478	23581
836.615	23330
836.753	23280
836.891	23543
837.029	23497
837.167	23387
837.305	23322
837.443	23303
837.58	23216
837.718	23318
837.856	23242
837.993	23231
838.131	23258
838.269	23151
838.406	23174
838.544	22984
838.681	22892
838.819	22843
838.956	22774
839.094	22672
839.231	22706
839.369	22831
839.506	23090
839.643	22987
839.781	22790
839.918	22668
840.055	22656
840.193	22767
840.33	22691
840.467	22641
840.604	22630
840.742	22946
840.879	22371
841.016	22630
841.153	22588
841.29	22771
841.427	22706
841.564	22733
841.701	22687
841.838	22626
841.975	22577
842.112	22478
842.249	22443
842.385	22409
842.522	22675
842.659	22443
842.796	22379
842.933	22375
843.069	22394
843.206	22405
843.343	22459
843.479	22409
843.616	22402
843.752	22276
843.889	22291
844.025	22344
844.162	22162
844.298	22238
844.435	22139
844.571	22219
844.708	22135
844.844	22363
844.98	22310
845.117	22287
845.253	22120
845.389	22048
845.525	22139
845.661	22021
845.798	21903
845.934	22029
846.07	21949
846.206	21945
846.342	22086
846.478	21899
846.614	21797
846.75	21633
846.886	21603
847.022	21686
847.158	21759
847.294	21599
847.429	21618
847.565	21545
847.701	21869
847.837	21401
847.972	21317
848.108	21530
848.244	21408
848.379	21382
848.515	21306
848.65	21306
848.786	21237
848.921	21150
849.057	21363
849.192	21173
849.328	21237
849.463	21287
849.598	21154
849.734	21142
849.869	20941
850.004	20933
850.14	20986
850.275	20982
850.41	20883
850.545	21039
850.68	21024
850.815	21055
850.95	20937
851.085	21169
851.22	20998
851.355	20994
851.49	21055
851.625	21066
851.76	20982
851.895	20933
852.03	20979
852.165	21009
852.299	21062
852.434	21268
852.569	21112
852.703	21051
852.838	21058
852.973	21081
853.107	21032
853.242	20937
853.376	20807
853.511	20701
853.645	20781
853.78	21150
853.914	20887
854.048	20788
854.183	20754
854.317	20941
854.451	20891
854.585	20804
854.72	20811
854.854	20960
854.988	20777
855.122	20849
855.256	20708
855.39	20887
855.524	20823
855.658	20929
855.792	20815
855.926	20876
856.06	20807
856.194	20895
856.327	20861
856.461	20842
856.595	20872
856.729	20819
856.862	20982
856.996	20902
857.13	20891
857.263	20918
857.397	20811
857.53	20811
857.664	20902
857.797	20986
857.931	21017
858.064	20823
858.197	20960
858.331	20914
858.464	20910
858.597	20750
858.731	20796
858.864	20693
858.997	20781
859.13	20773
859.263	20838
859.396	20933
859.529	20807
859.662	20754
859.795	20754
859.928	20842
860.061	20910
860.194	20986
860.327	20830
860.46	20788
860.592	20929
860.725	20967
860.858	20941
860.99	20941
861.123	20613
861.256	20868
861.388	20899
861.521	21469
861.653	20701
861.786	20686
861.918	20716
862.05	20708
862.183	20640
862.315	20788
862.447	20853
862.58	20781
862.712	20541
862.844	20465
862.976	20655
863.108	20640
863.24	21047
863.372	20450
863.504	20602
863.636	20492
863.768	20541
863.9	20533
864.032	20351
864.164	20495
864.296	20507
864.428	20689
864.559	20693
864.691	20594
864.823	20537
864.954	20465
865.086	20556
865.217	20484
865.349	20484
865.48	20518
865.612	20499
865.743	20533
865.875	20495
866.006	20442
866.137	20511
866.269	20328
866.4	20438
866.531	20484
866.662	20339
866.793	20423
866.924	20454
867.055	20412
867.186	20526
867.317	20381
867.448	20210
867.579	20530
867.71	20187
867.841	20286
867.972	20412
868.103	20343
868.233	20336
868.364	20389
868.495	20454
868.625	20579
868.756	20689
868.886	20579
869.017	20556
869.147	20720
869.278	20815
869.408	20754
869.539	20556
869.669	20648
869.799	20670
869.929	20773
870.06	20815
870.19	20918
870.32	20880
870.45	20986
870.58	21085
870.71	21184
870.84	21195
870.97	20979
871.1	20952
871.23	21252
871.36	21279
871.489	21108
871.619	21214
871.749	21298
871.879	21283
872.008	21310
872.138	21214
872.267	21256
872.397	21100
872.526	21028
872.656	21058
872.785	21043
872.915	21184
873.044	21283
873.173	21298
873.303	21355
873.432	21252
873.561	21287
873.69	21237
873.819	21192
873.948	21291
874.077	21226
874.206	21249
874.335	21272
874.464	21382
874.593	21488
874.722	21485
874.851	21599
874.979	21549
875.108	21610
875.237	21523
875.365	21367
875.494	21370
875.623	21606
875.751	21401
875.88	21466
876.008	21709
876.136	21724
876.265	21934
876.393	22013
876.521	21949
876.65	21903
876.778	21953
876.906	21812
877.034	21804
877.162	21934
877.29	21762
877.418	21899
877.546	21899
877.674	21842
877.802	21823
877.93	21671
878.058	21755
878.185	21736
878.313	21842
878.441	21911
878.568	21679
878.696	21785
878.824	21831
878.951	21994
879.079	21945
879.206	22204
879.333	21960
879.461	21945
879.588	21953
879.715	21964
879.842	22131
879.97	21956
880.097	21591
880.224	21629
880.351	21686
880.478	21797
880.605	21774
880.732	21622
880.859	21903
880.986	21633
881.112	21682
881.239	21473
881.366	21477
881.493	21306
881.619	21317
881.746	21313
881.872	21306
881.999	21165
882.125	21279
882.252	21230
882.378	21070
882.505	21382
882.631	21036
882.757	21089
882.883	21058
883.01	21020
883.136	20933
883.262	20758
883.388	20861
883.514	21077
883.64	20891
883.766	20902
883.892	20712
884.018	20777
884.143	20872
884.269	21028
884.395	20712
884.52	20587
884.646	20609
884.772	20480
884.897	20629
885.023	20689
885.148	20781
885.274	20655
885.399	20621
885.524	20625
885.65	20727
885.775	20609
885.9	20564
886.025	20834
886.15	20758
886.275	20587
886.4	20533
886.525	20564
886.65	20564
886.775	20621
886.9	20640
887.025	20807
887.149	20518
887.274	20351
887.399	20370
887.523	20366
887.648	20290
887.773	20256
887.897	20431
888.021	20446
888.146	20347
888.27	20450
888.395	20408
888.519	20328
888.643	20389
888.767	20541
888.891	20278
889.015	20111
889.139	20145
889.263	20263
889.387	20164
889.511	20442
889.635	20248
889.759	20199
889.883	20107
890.006	20168
890.13	20263
890.254	20081
890.377	20145
890.501	19932
890.624	19772
890.748	20020
890.871	19925
890.995	19685
891.118	19723
891.241	19879
891.364	19826
891.488	19818
891.611	19795
891.734	19723
891.857	19753
891.98	19658
892.103	19803
892.226	19696
892.349	19807
892.471	19575
892.594	19639
892.717	19719
892.839	19689
892.962	19605
893.085	19696
893.207	19643
893.33	19499
893.452	19544
893.575	19632
893.697	19613
893.819	19757
893.941	19811
894.064	19757
894.186	19643
894.308	19571
894.43	19795
894.552	19849
894.674	19761
894.796	19559
894.918	19635
895.04	19655
895.161	19734
895.283	19651
895.405	19647
895.526	19624
895.648	19689
895.769	19681
895.891	19727
896.012	19700
896.134	19685
896.255	19696
896.376	19662
896.498	19666
896.619	19731
896.74	19715
896.861	19818
896.982	20077
897.103	20206
897.224	19974
897.345	19849
897.466	19955
897.587	19868
897.708	20046
897.828	19993
897.949	19803
898.07	19734
898.19	19795
898.311	19868
898.431	19746
898.552	19982
898.672	20008
898.792	20005
898.913	19795
899.033	19776
899.153	19822
899.273	19693
899.393	19655
899.513	19750
899.633	19788
899.753	19571
899.873	19594
899.993	19712
900.113	19575
900.232	19601
900.352	19594
900.472	19438
900.591	19358
900.711	19495
900.83	19369
900.95	19559
901.069	19514
901.189	19441
901.308	19129
901.427	19027
901.546	19000
901.665	19053
901.784	19225
901.904	19027
902.023	18734
902.141	18646
902.26	18574
902.379	18745
902.498	18612
902.617	18574
902.735	18551
902.854	18604
902.973	18555
903.091	18228
903.21	18273
903.328	18334
903.446	18186
903.565	18091
903.683	18011
903.801	17901
903.919	18041
904.038	17958
904.156	17813
904.274	17874
904.392	17832
904.51	17786
904.627	17794
904.745	17840
904.863	17824
904.981	17665
905.098	17455
905.216	17493
905.334	17512
905.451	17524
905.569	17444
905.686	17425
905.803	17379
905.921	17220
906.038	17398
906.155	17254
906.272	17181
906.389	17216
906.506	17067
906.623	17102
906.74	16984
906.857	16885
906.974	17014
907.091	17083
907.208	17132
907.324	17014
907.441	16946
907.557	16820
907.674	16748
907.79	16679
907.907	16729
908.023	16748
908.139	16771
908.256	16603
908.372	16675
908.488	16637
908.604	16535
908.72	16386
908.836	16485
908.952	16451
909.068	16481
909.184	16527
909.3	16466
909.415	16428
909.531	16466
909.647	16192
909.762	16105
909.878	16207
909.993	16135
910.108	16154
910.224	16181
910.339	16284
910.454	16002
910.57	16025
910.685	15831
910.8	16162
910.915	16109
911.03	15930
911.145	15770
911.259	15743
911.374	15842
911.489	15679
911.604	15686
911.718	15492
911.833	15473
911.947	15473
912.062	15469
912.176	15496
912.291	15576
912.405	15587
912.519	15701
912.633	15682
912.748	15587
912.862	15542
912.976	15351
913.09	15222
913.204	15302
913.318	15355
913.431	15435
913.545	15500
913.659	15393
913.772	15268
913.886	15184
914	15047
914.113	15275
914.226	15245
914.34	15146
914.453	15089
914.566	15112
914.68	15108
914.793	15005
914.906	14788
915.019	14743
915.132	14682
915.245	14750
915.358	14792
915.47	14887
915.583	14796
915.696	14712
915.809	14948
915.921	14956
916.034	14693
916.146	14731
916.259	14674
916.371	14720
916.483	14632
916.595	14587
916.708	14632
916.82	14682
916.932	14575
917.044	14480
917.156	14594
917.268	14473
917.38	14488
917.491	14457
917.603	14434
917.715	14457
917.826	14610
917.938	14389
918.049	14256
918.161	14370
918.272	14556
918.384	14499
918.495	14336
918.606	14180
918.717	14206
918.828	14218
918.939	14218
919.05	14164
919.161	14252
919.272	13921
919.383	13982
919.494	14301
919.604	14385
919.715	14210
919.826	14077
919.936	14130
920.047	14206
920.157	14180
920.267	14396
920.378	14199
920.488	14214
920.598	14336
920.708	14423
920.818	14298
920.928	14282
921.038	14438
921.148	14419
921.258	14149
921.368	14031
921.477	13913
921.587	13959
921.697	13708
921.806	13902
921.916	13734
922.025	13594
922.134	13582
922.244	13571
922.353	13670
922.462	13445
922.571	13499
922.68	13308
922.789	13152
922.898	13149
923.007	13156
923.116	13202
923.224	13202
923.333	13198
923.442	13137
923.55	13038
923.659	13156
923.767	13122
923.876	13004
923.984	13084
924.092	12867
924.201	13004
924.309	12951
924.417	12875
924.525	12848
924.633	12848
924.741	13845
924.849	12730
924.956	12909
925.064	12662
925.172	12578
925.279	12722
925.387	12623
925.494	12703
925.602	12840
925.709	12696
925.816	12513
925.924	12601
926.031	12673
926.138	12631
926.245	12673
926.352	12494
926.459	12650
926.566	12692
926.673	12467
926.779	12395
926.886	12445
926.993	12277
927.099	12220
927.206	12197
927.312	12213
927.419	12315
927.525	12182
927.631	12254
927.737	12049
927.843	12057
927.95	11920
928.056	12049
928.162	12030
928.267	12121
928.373	12753
928.479	12140
928.585	11874
928.69	12015
928.796	11980
928.901	11889
929.007	11756
929.112	11885
929.218	11866
929.323	11805
929.428	11786
929.533	11851
929.638	11764
929.743	11680
929.848	11760
929.953	11775
930.058	11596
930.163	11589
930.267	11467
930.372	11665
930.477	11421
930.581	11688
930.685	11497
930.79	11383
930.894	11455
930.998	11330
931.103	11512
931.207	11094
931.311	11037
931.415	10987
931.519	10786
931.623	10812
