Data from test_V78500241_2350.txt Node
Date: Fri Mar 25 15:58:04 CST 2022
User: usil
Spectrometer: V785-0024
Trigger mode: 0
Integration Time (sec): 4.000000E-1
Scans to average: 1
Nonlinearity correction enabled: false
Boxcar width: 0
Storing dark spectrum: false
XAxis mode: Wavelengths
Number of Pixels in Spectrum: 1024
>>>>>Begin Spectral Data<<<<<
801.071	28892
801.214	28729
801.356	28588
801.499	28360
801.641	28440
801.783	28257
801.926	28561
802.068	28478
802.211	28234
802.353	28295
802.496	28109
802.638	28135
802.78	28006
802.923	27819
803.065	27892
803.208	27998
803.35	28048
803.492	28287
803.635	28329
803.777	28192
803.919	28257
804.061	28740
804.204	28272
804.346	28223
804.488	28246
804.63	28226
804.773	28219
804.915	28344
805.057	28394
805.199	28417
805.341	28325
805.483	28535
805.626	28459
805.768	28436
805.91	28447
806.052	28512
806.194	28375
806.336	28519
806.478	28466
806.62	28459
806.762	28618
806.904	28713
807.046	29018
807.188	28835
807.33	28786
807.472	28961
807.614	28797
807.756	28831
807.898	28675
808.04	28675
808.182	28675
808.324	28702
808.465	28725
808.607	29044
808.749	29181
808.891	29250
809.033	29360
809.174	29299
809.316	29193
809.458	28961
809.6	29109
809.741	29159
809.883	29265
810.025	29307
810.166	29459
810.308	29497
810.45	29341
810.591	29143
810.733	29299
810.875	29132
811.016	29064
811.158	29094
811.299	29166
811.441	29155
811.582	29364
811.724	29193
811.865	29284
812.007	29010
812.148	29193
812.29	29299
812.431	29311
812.573	29448
812.714	29596
812.855	29661
812.997	29707
813.138	29851
813.279	29817
813.421	29680
813.562	29672
813.703	29444
813.845	29337
813.986	29246
814.127	28987
814.268	28911
814.41	28797
814.551	28953
814.692	28930
814.833	28904
814.974	28881
815.115	28797
815.256	28877
815.397	28888
815.539	28934
815.68	28497
815.821	28462
815.962	28801
816.103	28611
816.244	28630
816.385	28542
816.526	28497
816.666	28390
816.807	28086
816.948	28025
817.089	28303
817.23	28242
817.371	28105
817.512	28048
817.653	28101
817.793	28040
817.934	28314
818.075	28268
818.216	28154
818.356	28082
818.497	28105
818.638	27979
818.778	27857
818.919	27903
819.06	27934
819.2	27983
819.341	28093
819.481	28177
819.622	28481
819.762	28603
819.903	28417
820.043	28310
820.184	28268
820.324	28257
820.465	28329
820.605	28253
820.746	28223
820.886	28154
821.026	28246
821.167	28242
821.307	28363
821.447	28109
821.588	28112
821.728	28036
821.868	27846
822.008	27751
822.149	27606
822.289	27580
822.429	27382
822.569	27245
822.709	27500
822.849	27226
822.99	27157
823.13	27203
823.27	27116
823.41	27020
823.55	26773
823.69	26982
823.83	26940
823.97	26940
824.11	26845
824.25	26853
824.389	26773
824.529	26845
824.669	26887
824.809	26792
824.949	26914
825.089	26994
825.228	26986
825.368	26765
825.508	26644
825.648	26720
825.787	26693
825.927	26758
826.067	26659
826.206	26697
826.346	26720
826.485	26689
826.625	26724
826.765	26811
826.904	26655
827.044	26423
827.183	26526
827.323	26381
827.462	26465
827.601	26366
827.741	26408
827.88	26263
828.02	26332
828.159	26453
828.298	26400
828.437	26465
828.577	26362
828.716	26473
828.855	26400
828.994	26081
829.134	26122
829.273	26275
829.412	26161
829.551	26046
829.69	26126
829.829	26069
829.968	26142
830.107	26210
830.246	26088
830.385	26172
830.524	26043
830.663	26027
830.802	25799
830.941	25757
831.08	25590
831.219	25833
831.357	25837
831.496	25852
831.635	25795
831.774	25590
831.913	25510
832.051	25472
832.19	25514
832.329	25411
832.467	25324
832.606	25320
832.744	25346
832.883	25362
833.022	25350
833.16	25259
833.299	25514
833.437	25384
833.576	25518
833.714	25449
833.852	25445
833.991	25521
834.129	25533
834.267	25628
834.406	25499
834.544	25544
834.682	25449
834.821	25346
834.959	25632
835.097	25316
835.235	25445
835.373	25388
835.511	25506
835.65	25240
835.788	25354
835.926	25152
836.064	25080
836.202	25091
836.34	25190
836.478	25324
836.615	25217
836.753	25289
836.891	25244
837.029	25228
837.167	25282
837.305	25133
837.443	25084
837.58	25168
837.718	25126
837.856	25015
837.993	24928
838.131	25103
838.269	24973
838.406	25034
838.544	24943
838.681	24722
838.819	24776
838.956	24566
839.094	24536
839.231	24623
839.369	24692
839.506	24951
839.643	24867
839.781	24525
839.918	24456
840.055	24502
840.193	24616
840.33	24445
840.467	24608
840.604	24528
840.742	24768
840.879	24464
841.016	24346
841.153	24395
841.29	24395
841.427	24517
841.564	24426
841.701	24452
841.838	24574
841.975	24323
842.112	24372
842.249	24342
842.385	24121
842.522	24441
842.659	24194
842.796	24205
842.933	24121
843.069	24144
843.206	24152
843.343	24087
843.479	24117
843.616	24285
843.752	24041
843.889	23946
844.025	24121
844.162	23916
844.298	24007
844.435	24007
844.571	23893
844.708	24106
844.844	24095
844.98	24060
845.117	24106
845.253	23920
845.389	23828
845.525	23828
845.661	23866
845.798	23684
845.934	23729
846.07	23646
846.206	23821
846.342	23832
846.478	23570
846.614	23630
846.75	23417
846.886	23258
847.022	23474
847.158	23531
847.294	23539
847.429	23433
847.565	23391
847.701	23691
847.837	23113
847.972	23102
848.108	23246
848.244	23121
848.379	23048
848.515	23029
848.65	22957
848.786	23056
848.921	22965
849.057	23147
849.192	23048
849.328	23132
849.463	22930
849.598	22987
849.734	22820
849.869	22847
850.004	22736
850.14	22820
850.275	22668
850.41	22736
850.545	22694
850.68	22702
850.815	22778
850.95	22733
851.085	23025
851.22	22904
851.355	22812
851.49	22793
851.625	22702
851.76	22729
851.895	22771
852.03	22626
852.165	22869
852.299	22733
852.434	22702
852.569	22843
852.703	22801
852.838	22797
852.973	22835
853.107	22911
853.242	22763
853.376	22649
853.511	22424
853.645	22523
853.78	22797
853.914	22634
854.048	22592
854.183	22512
854.317	22645
854.451	22733
854.585	22546
854.72	22622
854.854	22706
854.988	22588
855.122	22721
855.256	22462
855.39	22611
855.524	22740
855.658	22516
855.792	22504
855.926	22596
856.06	22577
856.194	22634
856.327	22523
856.461	22611
856.595	22375
856.729	22577
856.862	22733
856.996	22637
857.13	22649
857.263	22771
857.397	22683
857.53	22573
857.664	22603
857.797	22649
857.931	22668
858.064	22554
858.197	22736
858.331	22531
858.464	22493
858.597	22493
858.731	22557
858.864	22577
858.997	22622
859.13	22417
859.263	22596
859.396	22607
859.529	22550
859.662	22596
859.795	22474
859.928	22630
860.061	22694
860.194	22782
860.327	22668
860.46	22649
860.592	22672
860.725	22736
860.858	22816
860.99	22607
861.123	22554
861.256	22603
861.388	22546
861.521	23284
861.653	22405
861.786	22314
861.918	22550
862.05	22527
862.183	22382
862.315	22519
862.447	22535
862.58	22527
862.712	22306
862.844	22246
862.976	22417
863.108	22421
863.24	22801
863.372	22276
863.504	22303
863.636	22249
863.768	22310
863.9	22265
864.032	22219
864.164	22280
864.296	22344
864.428	22386
864.559	22280
864.691	22329
864.823	22310
864.954	22238
865.086	22143
865.217	22112
865.349	22188
865.48	22223
865.612	22158
865.743	22341
865.875	22276
866.006	22253
866.137	22124
866.269	22173
866.4	22063
866.531	22147
866.662	22158
866.793	22101
866.924	22040
867.055	22055
867.186	22192
867.317	22154
867.448	22013
867.579	22090
867.71	22063
867.841	21918
867.972	22147
868.103	22051
868.233	22166
868.364	22200
868.495	22265
868.625	22333
868.756	22462
868.886	22200
869.017	22375
869.147	22382
869.278	22489
869.408	22455
869.539	22268
869.669	22421
869.799	22440
869.929	22485
870.06	22367
870.19	22675
870.32	22577
870.45	22809
870.58	22649
870.71	22869
870.84	22862
870.97	22656
871.1	22706
871.23	22854
871.36	22965
871.489	22790
871.619	22927
871.749	22900
871.879	22946
872.008	23109
872.138	22930
872.267	22965
872.397	22812
872.526	22778
872.656	22847
872.785	22748
872.915	22942
873.044	23067
873.173	22976
873.303	23037
873.432	23079
873.561	23162
873.69	22877
873.819	22968
873.948	23037
874.077	23064
874.206	22862
874.335	22908
874.464	22949
874.593	23124
874.722	23174
874.851	23204
874.979	23159
875.108	23353
875.237	23117
875.365	23094
875.494	23162
875.623	23280
875.751	23140
875.88	23140
876.008	23376
876.136	23303
876.265	23493
876.393	23718
876.521	23596
876.65	23589
876.778	23570
876.906	23425
877.034	23482
877.162	23512
877.29	23444
877.418	23531
877.546	23512
877.674	23615
877.802	23467
877.93	23493
878.058	23376
878.185	23459
878.313	23459
878.441	23490
878.568	23356
878.696	23463
878.824	23558
878.951	23680
879.079	23764
879.206	23771
879.333	23619
879.461	23600
879.588	23627
879.715	23699
879.842	23722
879.97	23417
880.097	23288
880.224	23311
880.351	23360
880.478	23440
880.605	23246
880.732	23261
880.859	23581
880.986	23292
881.112	23258
881.239	23220
881.366	23083
881.493	22965
881.619	22995
881.746	22797
881.872	22919
881.999	22873
882.125	22919
882.252	23064
882.378	22850
882.505	22900
882.631	22706
882.757	22656
882.883	22763
883.01	22592
883.136	22428
883.262	22409
883.388	22455
883.514	22626
883.64	22607
883.766	22424
883.892	22398
884.018	22356
884.143	22462
884.269	22512
884.395	22352
884.52	22101
884.646	22162
884.772	22097
884.897	22196
885.023	22238
885.148	22249
885.274	22265
885.399	22268
885.524	22234
885.65	22143
885.775	22101
885.9	22238
886.025	22188
886.15	22242
886.275	22173
886.4	22082
886.525	22249
886.65	22173
886.775	22067
886.9	22223
887.025	22337
887.149	22234
887.274	22036
887.399	22017
887.523	22006
887.648	21857
887.773	21861
887.897	22048
888.021	22002
888.146	21797
888.27	22101
888.395	22032
888.519	22010
888.643	21972
888.767	21998
888.891	21880
889.015	21637
889.139	21709
889.263	21720
889.387	21835
889.511	21960
889.635	21800
889.759	21762
889.883	21736
890.006	21713
890.13	21743
890.254	21724
890.377	21629
890.501	21405
890.624	21466
890.748	21492
890.871	21389
890.995	21298
891.118	21195
891.241	21214
891.364	21268
891.488	21389
891.611	21302
891.734	21310
891.857	21401
891.98	21325
892.103	21405
892.226	21298
892.349	21169
892.471	21127
892.594	21241
892.717	21218
892.839	21116
892.962	21146
893.085	21256
893.207	21123
893.33	21028
893.452	21199
893.575	21214
893.697	21169
893.819	21291
893.941	21363
894.064	21298
894.186	21123
894.308	21135
894.43	21249
894.552	21393
894.674	21294
894.796	21066
894.918	21081
895.04	21138
895.161	21150
895.283	21135
895.405	21051
895.526	21100
895.648	21077
895.769	21142
895.891	21089
896.012	21214
896.134	21161
896.255	21287
896.376	21077
896.498	21142
896.619	21203
896.74	21116
896.861	21093
896.982	21500
897.103	21652
897.224	21447
897.345	21287
897.466	21306
897.587	21306
897.708	21393
897.828	21302
897.949	21306
898.07	21169
898.19	21188
898.311	21359
898.431	21310
898.552	21287
898.672	21344
898.792	21408
898.913	21367
899.033	21306
899.153	21127
899.273	21058
899.393	21089
899.513	21100
899.633	21081
899.753	21135
899.873	20990
899.993	21104
900.113	20960
900.232	21077
900.352	20944
900.472	21017
900.591	20823
900.711	20868
900.83	20853
900.95	20842
901.069	20902
901.189	20655
901.308	20583
901.427	20389
901.546	20339
901.665	20495
901.784	20374
901.904	20324
902.023	20168
902.141	20031
902.26	19898
902.379	19997
902.498	19803
902.617	19871
902.735	19947
902.854	19947
902.973	19761
903.091	19540
903.21	19689
903.328	19502
903.446	19525
903.565	19339
903.683	19396
903.801	19221
903.919	19373
904.038	19289
904.156	19122
904.274	19259
904.392	19126
904.51	19103
904.627	19183
904.745	19168
904.863	19183
904.981	18932
905.098	18817
905.216	18757
905.334	18837
905.451	18814
905.569	18688
905.686	18798
905.803	18692
905.921	18460
906.038	18722
906.155	18559
906.272	18429
906.389	18502
906.506	18296
906.623	18330
906.74	18334
906.857	18292
906.974	18186
907.091	18350
907.208	18445
907.324	18311
907.441	18239
907.557	18026
907.674	18068
907.79	17973
907.907	18026
908.023	18019
908.139	18110
908.256	18110
908.372	17999
908.488	17790
908.604	17813
908.72	17840
908.836	17786
908.952	17722
909.068	17779
909.184	17802
909.3	17699
909.415	17714
909.531	17699
909.647	17646
909.762	17497
909.878	17425
909.993	17376
910.108	17296
910.224	17425
910.339	17402
910.454	17322
910.57	17277
910.685	17193
910.8	17463
910.915	17356
911.03	17296
911.145	17056
911.259	17014
911.374	17029
911.489	16919
911.604	16942
911.718	16831
911.833	16713
911.947	16687
912.062	16599
912.176	16767
912.291	16774
912.405	16767
912.519	16911
912.633	16984
912.748	16778
912.862	16694
912.976	16558
913.09	16558
913.204	16558
913.318	16542
913.431	16626
913.545	16645
913.659	16653
913.772	16531
913.886	16337
914	16303
914.113	16424
914.226	16405
914.34	16451
914.453	16242
914.566	16371
914.68	16246
914.793	16284
914.906	15994
915.019	15918
915.132	15930
915.245	15930
915.358	16002
915.47	15941
915.583	15983
915.696	15873
915.809	16067
915.921	16021
916.034	15911
916.146	15850
916.259	15865
916.371	15918
916.483	15774
916.595	15606
916.708	15701
916.82	15656
916.932	15713
917.044	15648
917.156	15622
917.268	15572
917.38	15606
917.491	15507
917.603	15584
917.715	15675
917.826	15568
917.938	15523
918.049	15397
918.161	15515
918.272	15564
918.384	15610
918.495	15401
918.606	15351
918.717	15279
918.828	15302
918.939	15340
919.05	15100
919.161	15302
919.272	14994
919.383	15165
919.494	15336
919.604	15416
919.715	15298
919.826	15150
919.936	15230
920.047	15317
920.157	15264
920.267	15439
920.378	15184
920.488	15192
920.598	15393
920.708	15603
920.818	15317
920.928	15313
921.038	15515
921.148	15507
921.258	15112
921.368	15051
921.477	14986
921.587	14948
921.697	14876
921.806	14948
921.916	14765
922.025	14644
922.134	14530
922.244	14602
922.353	14716
922.462	14507
922.571	14385
922.68	14332
922.789	14202
922.898	14298
923.007	14210
923.116	14259
923.224	14210
923.333	14157
923.442	14012
923.55	13982
923.659	14145
923.767	14065
923.876	14043
923.984	14088
924.092	13947
924.201	13982
924.309	13944
924.417	13940
924.525	13849
924.633	13951
924.741	14769
924.849	13643
924.956	13803
925.064	13731
925.172	13636
925.279	13662
925.387	13632
925.494	13689
925.602	13845
925.709	13632
925.816	13483
925.924	13578
926.031	13597
926.138	13487
926.245	13620
926.352	13441
926.459	13552
926.566	13616
926.673	13381
926.779	13411
926.886	13247
926.993	13179
927.099	13156
927.206	13069
927.312	13114
927.419	13213
927.525	13088
927.631	13152
927.737	12993
927.843	13053
927.95	12871
928.056	12958
928.162	12985
928.267	13023
928.373	13578
928.479	13046
928.585	12798
928.69	12897
928.796	12871
928.901	12817
929.007	12616
929.112	12802
929.218	12798
929.323	12757
929.428	12578
929.533	12844
929.638	12639
929.743	12688
929.848	12612
929.953	12654
930.058	12490
930.163	12281
930.267	12369
930.372	12509
930.477	12300
930.581	12441
930.685	12384
930.79	12220
930.894	12220
930.998	12209
931.103	12285
931.207	12011
931.311	11950
931.415	11783
931.519	11653
931.623	11558
