Data from test_V78500241_763.txt Node
Date: Fri Mar 25 15:47:05 CST 2022
User: usil
Spectrometer: V785-0024
Trigger mode: 0
Integration Time (sec): 4.000000E-1
Scans to average: 1
Nonlinearity correction enabled: false
Boxcar width: 0
Storing dark spectrum: false
XAxis mode: Wavelengths
Number of Pixels in Spectrum: 1024
>>>>>Begin Spectral Data<<<<<
801.071	28074
801.214	27949
801.356	27667
801.499	27572
801.641	27439
801.783	27458
801.926	27641
802.068	27622
802.211	27496
802.353	27344
802.496	27211
802.638	27157
802.78	27131
802.923	27104
803.065	27020
803.208	27036
803.35	27211
803.492	27260
803.635	27348
803.777	27252
803.919	27351
804.061	27675
804.204	27401
804.346	27336
804.488	27287
804.63	27260
804.773	27165
804.915	27397
805.057	27431
805.199	27241
805.341	27439
805.483	27408
805.626	27466
805.768	27386
805.91	27530
806.052	27462
806.194	27249
806.336	27648
806.478	27530
806.62	27450
806.762	27564
806.904	27701
807.046	28010
807.188	27998
807.33	27934
807.472	27983
807.614	27717
807.756	27838
807.898	27739
808.04	27637
808.182	27648
808.324	27774
808.465	27831
808.607	28021
808.749	28120
808.891	28295
809.033	28276
809.174	28268
809.316	28112
809.458	28344
809.6	28070
809.741	28318
809.883	28360
810.025	28451
810.166	28489
810.308	28394
810.45	28394
810.591	28470
810.733	28207
810.875	28196
811.016	28040
811.158	28162
811.299	28348
811.441	28291
811.582	28379
811.724	28188
811.865	28139
812.007	28299
812.148	28139
812.29	28124
812.431	28303
812.573	28546
812.714	28584
812.855	28710
812.997	28866
813.138	28892
813.279	28805
813.421	28637
813.562	28740
813.703	28557
813.845	28455
813.986	28154
814.127	28048
814.268	27850
814.41	27831
814.551	27835
814.692	27835
814.833	27789
814.974	27789
815.115	27785
815.256	27846
815.397	27652
815.539	27660
815.68	27625
815.821	27625
815.962	27686
816.103	27545
816.244	27519
816.385	27477
816.526	27397
816.666	27298
816.807	27077
816.948	27283
817.089	27332
817.23	27188
817.371	27119
817.512	27142
817.653	27306
817.793	27157
817.934	27199
818.075	27184
818.216	27089
818.356	27043
818.497	26986
818.638	26743
818.778	26853
818.919	26880
819.06	26986
819.2	27024
819.341	27135
819.481	27214
819.622	27275
819.762	27473
819.903	27488
820.043	27252
820.184	27176
820.324	27154
820.465	27294
820.605	27180
820.746	27138
820.886	27055
821.026	27233
821.167	27294
821.307	27245
821.447	27283
821.588	27062
821.728	27085
821.868	26731
822.008	26697
822.149	26621
822.289	26465
822.429	26362
822.569	26263
822.709	26336
822.849	26115
822.99	26256
823.13	26168
823.27	26088
823.41	26145
823.55	25894
823.69	26016
823.83	26054
823.97	25986
824.11	25795
824.25	25738
824.389	25849
824.529	25826
824.669	25871
824.809	25894
824.949	25898
825.089	25871
825.228	25925
825.368	25704
825.508	25681
825.648	25635
825.787	25643
825.927	25635
826.067	25674
826.206	25742
826.346	25704
826.485	25723
826.625	25734
826.765	25811
826.904	25674
827.044	25445
827.183	25403
827.323	25422
827.462	25343
827.601	25297
827.741	25377
827.88	25324
828.02	25213
828.159	25377
828.298	25331
828.437	25460
828.577	25396
828.716	25335
828.855	25403
828.994	25008
829.134	25084
829.273	25076
829.412	25061
829.551	25019
829.69	25156
829.829	25027
829.968	25148
830.107	25213
830.246	24973
830.385	25000
830.524	25008
830.663	25023
830.802	24795
830.941	24783
831.08	24715
831.219	24806
831.357	24768
831.496	24867
831.635	24760
831.774	24692
831.913	24631
832.051	24395
832.19	24563
832.329	24437
832.467	24330
832.606	24441
832.744	24338
832.883	24254
833.022	24350
833.16	24258
833.299	24384
833.437	24330
833.576	24437
833.714	24479
833.852	24502
833.991	24391
834.129	24525
834.267	24365
834.406	24384
834.544	24498
834.682	24391
834.821	24353
834.959	24711
835.097	24350
835.235	24464
835.373	24353
835.511	24353
835.65	24224
835.788	24342
835.926	24136
836.064	24045
836.202	24053
836.34	24129
836.478	24361
836.615	24296
836.753	24239
836.891	24342
837.029	24281
837.167	24045
837.305	24064
837.443	24178
837.58	24026
837.718	24171
837.856	24163
837.993	24091
838.131	24125
838.269	23973
838.406	23977
838.544	23847
838.681	23745
838.819	23726
838.956	23531
839.094	23615
839.231	23684
839.369	23748
839.506	24018
839.643	23733
839.781	23535
839.918	23505
840.055	23512
840.193	23589
840.33	23444
840.467	23512
840.604	23570
840.742	23843
840.879	23299
841.016	23349
841.153	23376
841.29	23429
841.427	23493
841.564	23524
841.701	23448
841.838	23509
841.975	23376
842.112	23448
842.249	23254
842.385	23109
842.522	23497
842.659	23094
842.796	23197
842.933	23208
843.069	23109
843.206	23162
843.343	23231
843.479	23258
843.616	23258
843.752	22900
843.889	23029
844.025	23121
844.162	22850
844.298	23102
844.435	22938
844.571	22816
844.708	22991
844.844	23048
844.98	23193
845.117	23124
845.253	22866
845.389	22946
845.525	22839
845.661	22877
845.798	22736
845.934	22725
846.07	22550
846.206	22869
846.342	22812
846.478	22763
846.614	22523
846.75	22493
846.886	22329
847.022	22653
847.158	22424
847.294	22493
847.429	22523
847.565	22478
847.701	22672
847.837	22261
847.972	22211
848.108	22272
848.244	22215
848.379	22032
848.515	22006
848.65	21953
848.786	21987
848.921	22036
849.057	22131
849.192	22082
849.328	22131
849.463	22116
849.598	22124
849.734	21926
849.869	21797
850.004	21747
850.14	21705
850.275	21759
850.41	21759
850.545	21701
850.68	21785
850.815	21808
850.95	21717
851.085	21934
851.22	21991
851.355	21903
851.49	21793
851.625	21808
851.76	21762
851.895	21732
852.03	21762
852.165	21823
852.299	21660
852.434	21876
852.569	21797
852.703	21899
852.838	21922
852.973	21907
853.107	21998
853.242	21743
853.376	21629
853.511	21401
853.645	21572
853.78	21778
853.914	21644
854.048	21629
854.183	21583
854.317	21641
854.451	21846
854.585	21618
854.72	21583
854.854	21644
854.988	21538
855.122	21633
855.256	21557
855.39	21682
855.524	21682
855.658	21739
855.792	21743
855.926	21701
856.06	21515
856.194	21759
856.327	21572
856.461	21530
856.595	21561
856.729	21511
856.862	21812
856.996	21511
857.13	21724
857.263	21747
857.397	21785
857.53	21469
857.664	21789
857.797	21713
857.931	21781
858.064	21660
858.197	21671
858.331	21660
858.464	21694
858.597	21515
858.731	21587
858.864	21667
858.997	21648
859.13	21667
859.263	21549
859.396	21770
859.529	21545
859.662	21603
859.795	21504
859.928	21545
860.061	21663
860.194	21819
860.327	21625
860.46	21644
860.592	21728
860.725	21808
860.858	21770
860.99	21523
861.123	21629
861.256	21610
861.388	21747
861.521	22268
861.653	21549
861.786	21519
861.918	21538
862.05	21485
862.183	21473
862.315	21530
862.447	21637
862.58	21504
862.712	21367
862.844	21283
862.976	21386
863.108	21405
863.24	21846
863.372	21207
863.504	21351
863.636	21325
863.768	21218
863.9	21389
864.032	21214
864.164	21298
864.296	21283
864.428	21466
864.559	21348
864.691	21367
864.823	21355
864.954	21249
865.086	21252
865.217	21123
865.349	21173
865.48	21306
865.612	21260
865.743	21249
865.875	21256
866.006	21108
866.137	21195
866.269	21302
866.4	21161
866.531	21138
866.662	21123
866.793	21173
866.924	21131
867.055	21161
867.186	21173
867.317	21150
867.448	21066
867.579	21135
867.71	21074
867.841	21032
867.972	21268
868.103	21093
868.233	21180
868.364	21104
868.495	21241
868.625	21272
868.756	21386
868.886	21382
869.017	21344
869.147	21511
869.278	21519
869.408	21439
869.539	21386
869.669	21466
869.799	21469
869.929	21469
870.06	21515
870.19	21690
870.32	21641
870.45	21675
870.58	21831
870.71	21838
870.84	21895
870.97	21759
871.1	21785
871.23	22002
871.36	21922
871.489	21979
871.619	21903
871.749	21861
871.879	21964
872.008	22040
872.138	22067
872.267	21930
872.397	21846
872.526	21812
872.656	21861
872.785	21857
872.915	21945
873.044	22090
873.173	22086
873.303	22173
873.432	22002
873.561	22131
873.69	22021
873.819	22032
873.948	22048
874.077	22002
874.206	21937
874.335	21945
874.464	22207
874.593	22200
874.722	22105
874.851	22265
874.979	22215
875.108	22386
875.237	22150
875.365	22120
875.494	22131
875.623	22356
875.751	22112
875.88	22204
876.008	22287
876.136	22443
876.265	22565
876.393	22733
876.521	22588
876.65	22649
876.778	22599
876.906	22653
877.034	22565
877.162	22664
877.29	22554
877.418	22538
877.546	22607
877.674	22573
877.802	22459
877.93	22607
878.058	22432
878.185	22455
878.313	22615
878.441	22561
878.568	22432
878.696	22519
878.824	22493
878.951	22729
879.079	22691
879.206	22965
879.333	22805
879.461	22713
879.588	22729
879.715	22653
879.842	22831
879.97	22736
880.097	22390
880.224	22390
880.351	22390
880.478	22447
880.605	22276
880.732	22265
880.859	22656
880.986	22413
881.112	22371
881.239	22276
881.366	22032
881.493	22124
881.619	22032
881.746	22002
881.872	21994
881.999	21819
882.125	21915
882.252	21922
882.378	21941
882.505	22055
882.631	21789
882.757	21717
882.883	21751
883.01	21755
883.136	21641
883.262	21515
883.388	21576
883.514	21660
883.64	21762
883.766	21466
883.892	21450
884.018	21488
884.143	21614
884.269	21614
884.395	21397
884.52	21108
884.646	21359
884.772	21355
884.897	21165
885.023	21329
885.148	21367
885.274	21454
885.399	21405
885.524	21310
885.65	21348
885.775	21348
885.9	21298
886.025	21382
886.15	21298
886.275	21363
886.4	21142
886.525	21218
886.65	21173
886.775	21211
886.9	21344
887.025	21515
887.149	21249
887.274	21108
887.399	21146
887.523	21024
887.648	20982
887.773	20937
887.897	21230
888.021	21093
888.146	21051
888.27	21180
888.395	21222
888.519	21108
888.643	21116
888.767	21062
888.891	20941
889.015	20857
889.139	20941
889.263	20906
889.387	20944
889.511	21009
889.635	20960
889.759	20773
889.883	20769
890.006	20880
890.13	20952
890.254	20773
890.377	20819
890.501	20712
890.624	20461
890.748	20667
890.871	20499
890.995	20347
891.118	20362
891.241	20450
891.364	20347
891.488	20640
891.611	20374
891.734	20541
891.857	20499
891.98	20427
892.103	20503
892.226	20434
892.349	20374
892.471	20202
892.594	20309
892.717	20377
892.839	20176
892.962	20301
893.085	20339
893.207	20343
893.33	20259
893.452	20324
893.575	20343
893.697	20442
893.819	20469
893.941	20503
894.064	20499
894.186	20256
894.308	20259
894.43	20419
894.552	20431
894.674	20351
894.796	20164
894.918	20298
895.04	20218
895.161	20446
895.283	20385
895.405	20275
895.526	20256
895.648	20248
895.769	20343
895.891	20328
896.012	20450
896.134	20438
896.255	20374
896.376	20298
896.498	20298
896.619	20431
896.74	20332
896.861	20328
896.982	20575
897.103	20682
897.224	20461
897.345	20457
897.466	20514
897.587	20583
897.708	20556
897.828	20590
897.949	20511
898.07	20408
898.19	20446
898.311	20564
898.431	20476
898.552	20594
898.672	20663
898.792	20667
898.913	20552
899.033	20400
899.153	20404
899.273	20187
899.393	20309
899.513	20339
899.633	20248
899.753	20271
899.873	20248
899.993	20317
900.113	20183
900.232	20229
900.352	20145
900.472	20081
900.591	20054
900.711	19982
900.83	19993
900.95	20157
901.069	20069
901.189	19902
901.308	19769
901.427	19620
901.546	19635
901.665	19643
901.784	19788
901.904	19472
902.023	19476
902.141	19187
902.26	19183
902.379	19209
902.498	19137
902.617	19057
902.735	19187
902.854	19122
902.973	19148
903.091	18867
903.21	18837
903.328	18814
903.446	18681
903.565	18722
903.683	18753
903.801	18437
903.919	18536
904.038	18593
904.156	18410
904.274	18574
904.392	18391
904.51	18441
904.627	18418
904.745	18357
904.863	18467
904.981	18232
905.098	18106
905.216	18053
905.334	18053
905.451	18060
905.569	18003
905.686	18144
905.803	18079
905.921	17904
906.038	17836
906.155	17893
906.272	17741
906.389	17786
906.506	17589
906.623	17703
906.74	17512
906.857	17474
906.974	17554
907.091	17558
907.208	17634
907.324	17596
907.441	17532
907.557	17433
907.674	17410
907.79	17193
907.907	17269
908.023	17364
908.139	17269
908.256	17216
908.372	17212
908.488	17200
908.604	17102
908.72	17041
908.836	16957
908.952	17006
909.068	17022
909.184	17014
909.3	16976
909.415	17067
909.531	17018
909.647	16786
909.762	16767
909.878	16691
909.993	16713
910.108	16668
910.224	16694
910.339	16736
910.454	16607
910.57	16607
910.685	16462
910.8	16778
910.915	16645
911.03	16512
911.145	16424
911.259	16409
911.374	16329
911.489	16211
911.604	16272
911.718	16143
911.833	16162
911.947	15975
912.062	15934
912.176	16150
912.291	16112
912.405	16135
912.519	16238
912.633	16325
912.748	16093
912.862	16055
912.976	15949
913.09	15755
913.204	15835
913.318	15823
913.431	16013
913.545	15869
913.659	15953
913.772	15831
913.886	15660
914	15686
914.113	15785
914.226	15766
914.34	15789
914.453	15549
914.566	15686
914.68	15587
914.793	15511
914.906	15340
915.019	15249
915.132	15245
915.245	15302
915.358	15275
915.47	15230
915.583	15298
915.696	15291
915.809	15317
915.921	15431
916.034	15233
916.146	15211
916.259	15100
916.371	15230
916.483	15199
916.595	15074
916.708	15085
916.82	15013
916.932	15032
917.044	14933
917.156	15039
917.268	14948
917.38	15036
917.491	14861
917.603	14864
917.715	15020
917.826	14971
917.938	14838
918.049	14765
918.161	14834
918.272	14952
918.384	14941
918.495	14830
918.606	14788
918.717	14560
918.828	14629
918.939	14716
919.05	14571
919.161	14617
919.272	14495
919.383	14583
919.494	14716
919.604	14849
919.715	14659
919.826	14602
919.936	14678
920.047	14720
920.157	14678
920.267	14724
920.378	14674
920.488	14568
920.598	14731
920.708	14929
920.818	14823
920.928	14689
921.038	14906
921.148	14864
921.258	14644
921.368	14522
921.477	14412
921.587	14480
921.697	14191
921.806	14423
921.916	14172
922.025	14138
922.134	14107
922.244	14024
922.353	14050
922.462	13864
922.571	13761
922.68	13666
922.789	13723
922.898	13578
923.007	13620
923.116	13727
923.224	13655
923.333	13647
923.442	13525
923.55	13521
923.659	13556
923.767	13510
923.876	13396
923.984	13464
924.092	13430
924.201	13453
924.309	13468
924.417	13339
924.525	13270
924.633	13381
924.741	14233
924.849	13091
924.956	13274
925.064	13118
925.172	13008
925.279	13069
925.387	13008
925.494	13072
925.602	13103
925.709	13084
925.816	13004
925.924	13050
926.031	13129
926.138	13015
926.245	13034
926.352	12779
926.459	13004
926.566	13076
926.673	12951
926.779	12859
926.886	12802
926.993	12578
927.099	12601
927.206	12536
927.312	12498
927.419	12662
927.525	12623
927.631	12635
927.737	12570
927.843	12566
927.95	12304
928.056	12418
928.162	12399
928.267	12525
928.373	12993
928.479	12551
928.585	12361
928.69	12494
928.796	12426
928.901	12334
929.007	12178
929.112	12395
929.218	12292
929.323	12235
929.428	12258
929.533	12285
929.638	12129
929.743	12079
929.848	12205
929.953	12068
930.058	11973
930.163	11847
930.267	11832
930.372	11992
930.477	11840
930.581	12068
930.685	11866
930.79	11714
930.894	11771
930.998	11752
931.103	11832
931.207	11417
931.311	11433
931.415	11356
931.519	11174
931.623	11067
