Data from test_V78500241_3324.txt Node
Date: Fri Mar 25 16:04:49 CST 2022
User: usil
Spectrometer: V785-0024
Trigger mode: 0
Integration Time (sec): 4.000000E-1
Scans to average: 1
Nonlinearity correction enabled: false
Boxcar width: 0
Storing dark spectrum: false
XAxis mode: Wavelengths
Number of Pixels in Spectrum: 1024
>>>>>Begin Spectral Data<<<<<
801.071	28763
801.214	28778
801.356	28675
801.499	28550
801.641	28436
801.783	28447
801.926	28382
802.068	28432
802.211	28409
802.353	28451
802.496	28246
802.638	28074
802.78	28116
802.923	28131
803.065	28128
803.208	28067
803.35	28257
803.492	28257
803.635	28344
803.777	28158
803.919	28348
804.061	28691
804.204	28382
804.346	28268
804.488	28318
804.63	28314
804.773	28348
804.915	28341
805.057	28538
805.199	28394
805.341	28409
805.483	28478
805.626	28577
805.768	28398
805.91	28516
806.052	28394
806.194	28531
806.336	28546
806.478	28550
806.62	28519
806.762	28717
806.904	28816
807.046	29052
807.188	28942
807.33	28961
807.472	28930
807.614	28949
807.756	28957
807.898	28930
808.04	28812
808.182	28824
808.324	28831
808.465	28778
808.607	29181
808.749	29223
808.891	29330
809.033	29501
809.174	29433
809.316	29200
809.458	29269
809.6	29174
809.741	29421
809.883	29341
810.025	29509
810.166	29448
810.308	29440
810.45	29505
810.591	29296
810.733	29162
810.875	29280
811.016	29254
811.158	29075
811.299	29307
811.441	29433
811.582	29395
811.724	29162
811.865	29322
812.007	29193
812.148	29204
812.29	29277
812.431	29436
812.573	29531
812.714	29699
812.855	29790
812.997	29729
813.138	30018
813.279	30041
813.421	29821
813.562	29627
813.703	29661
813.845	29539
813.986	29189
814.127	29052
814.268	29056
814.41	28942
814.551	28972
814.692	28968
814.833	28949
814.974	29003
815.115	29033
815.256	28919
815.397	28873
815.539	28866
815.68	28653
815.821	28641
815.962	28930
816.103	28664
816.244	28664
816.385	28664
816.526	28356
816.666	28398
816.807	28348
816.948	28390
817.089	28325
817.23	28371
817.371	28268
817.512	28360
817.653	28166
817.793	28166
817.934	28249
818.075	28379
818.216	28303
818.356	28367
818.497	28143
818.638	28082
818.778	28036
818.919	28017
819.06	28124
819.2	28238
819.341	28417
819.481	28318
819.622	28500
819.762	28641
819.903	28580
820.043	28428
820.184	28417
820.324	28341
820.465	28561
820.605	28417
820.746	28474
820.886	28166
821.026	28287
821.167	28306
821.307	28466
821.447	28390
821.588	28215
821.728	28025
821.868	27945
822.008	27861
822.149	27789
822.289	27781
822.429	27401
822.569	27530
822.709	27405
822.849	27340
822.99	27298
823.13	27291
823.27	27165
823.41	27070
823.55	26982
823.69	27211
823.83	26998
823.97	27062
824.11	27058
824.25	26819
824.389	26994
824.529	27051
824.669	26944
824.809	26990
824.949	26960
825.089	27062
825.228	27036
825.368	26807
825.508	26834
825.648	26796
825.787	26868
825.927	26811
826.067	26804
826.206	26769
826.346	26773
826.485	26975
826.625	26708
826.765	26914
826.904	26773
827.044	26644
827.183	26640
827.323	26526
827.462	26621
827.601	26602
827.741	26453
827.88	26511
828.02	26549
828.159	26389
828.298	26541
828.437	26549
828.577	26438
828.716	26488
828.855	26511
828.994	26145
829.134	26134
829.273	26263
829.412	26058
829.551	26187
829.69	26168
829.829	26286
829.968	26294
830.107	26320
830.246	26252
830.385	26301
830.524	26077
830.663	25814
830.802	26039
830.941	25845
831.08	25799
831.219	26012
831.357	25856
831.496	26126
831.635	25700
831.774	25772
831.913	25780
832.051	25624
832.19	25674
832.329	25597
832.467	25658
832.606	25506
832.744	25411
832.883	25422
833.022	25419
833.16	25400
833.299	25510
833.437	25613
833.576	25590
833.714	25548
833.852	25594
833.991	25578
834.129	25655
834.267	25582
834.406	25567
834.544	25586
834.682	25563
834.821	25514
834.959	25658
835.097	25529
835.235	25624
835.373	25483
835.511	25571
835.65	25388
835.788	25556
835.926	25293
836.064	25263
836.202	25183
836.34	25392
836.478	25449
836.615	25266
836.753	25411
836.891	25396
837.029	25472
837.167	25327
837.305	25289
837.443	25217
837.58	25152
837.718	25221
837.856	25308
837.993	25110
838.131	25099
838.269	25099
838.406	25122
838.544	25057
838.681	24871
838.819	24734
838.956	24810
839.094	24665
839.231	24658
839.369	24939
839.506	25034
839.643	24886
839.781	24620
839.918	24593
840.055	24582
840.193	24559
840.33	24502
840.467	24623
840.604	24612
840.742	24821
840.879	24429
841.016	24483
841.153	24551
841.29	24688
841.427	24502
841.564	24528
841.701	24521
841.838	24566
841.975	24391
842.112	24395
842.249	24365
842.385	24315
842.522	24665
842.659	24353
842.796	24433
842.933	24292
843.069	24209
843.206	24163
843.343	24395
843.479	24266
843.616	24361
843.752	24022
843.889	24155
844.025	24292
844.162	24182
844.298	24281
844.435	24053
844.571	23996
844.708	24098
844.844	24243
844.98	24117
845.117	24235
845.253	24129
845.389	23783
845.525	24148
845.661	23927
845.798	23764
845.934	23927
846.07	23786
846.206	23802
846.342	23885
846.478	23878
846.614	23672
846.75	23577
846.886	23524
847.022	23577
847.158	23596
847.294	23512
847.429	23551
847.565	23665
847.701	23733
847.837	23353
847.972	23216
848.108	23379
848.244	23303
848.379	23162
848.515	23075
848.65	23060
848.786	23170
848.921	23094
849.057	23292
849.192	23200
849.328	23197
849.463	23178
849.598	23060
849.734	22991
849.869	22972
850.004	22927
850.14	22934
850.275	22930
850.41	22854
850.545	22892
850.68	22915
850.815	22911
850.95	22873
851.085	22999
851.22	23060
851.355	23041
851.49	22847
851.625	22866
851.76	22889
851.895	22835
852.03	22854
852.165	23025
852.299	22980
852.434	23033
852.569	22946
852.703	22908
852.838	23025
852.973	23029
853.107	22934
853.242	22816
853.376	22866
853.511	22717
853.645	22698
853.78	22976
853.914	22847
854.048	22664
854.183	22672
854.317	22923
854.451	22904
854.585	22653
854.72	22771
854.854	22843
854.988	22767
855.122	22759
855.256	22584
855.39	22759
855.524	22763
855.658	22915
855.792	22740
855.926	22809
856.06	22755
856.194	22869
856.327	22710
856.461	22752
856.595	22683
856.729	22771
856.862	22900
856.996	22702
857.13	22831
857.263	22885
857.397	22915
857.53	22706
857.664	22778
857.797	22881
857.931	22892
858.064	22752
858.197	22843
858.331	22752
858.464	22656
858.597	22694
858.731	22637
858.864	22767
858.997	22752
859.13	22759
859.263	22786
859.396	22961
859.529	22664
859.662	22793
859.795	22748
859.928	22755
860.061	22930
860.194	22927
860.327	22778
860.46	22869
860.592	22938
860.725	22961
860.858	23003
860.99	22786
861.123	22702
861.256	22725
861.388	22763
861.521	23463
861.653	22599
861.786	22637
861.918	22538
862.05	22596
862.183	22653
862.315	22630
862.447	22767
862.58	22664
862.712	22569
862.844	22443
862.976	22493
863.108	22382
863.24	22968
863.372	22329
863.504	22337
863.636	22508
863.768	22440
863.9	22474
864.032	22367
864.164	22451
864.296	22508
864.428	22535
864.559	22497
864.691	22611
864.823	22466
864.954	22481
865.086	22440
865.217	22379
865.349	22284
865.48	22417
865.612	22352
865.743	22451
865.875	22459
866.006	22371
866.137	22322
866.269	22295
866.4	22322
866.531	22261
866.662	22398
866.793	22257
866.924	22253
867.055	22276
867.186	22322
867.317	22154
867.448	22196
867.579	22268
867.71	22249
867.841	22143
867.972	22337
868.103	22234
868.233	22109
868.364	22360
868.495	22390
868.625	22474
868.756	22683
868.886	22322
869.017	22512
869.147	22538
869.278	22687
869.408	22519
869.539	22554
869.669	22607
869.799	22497
869.929	22588
870.06	22691
870.19	22805
870.32	22744
870.45	22793
870.58	22862
870.71	22999
870.84	22847
870.97	22892
871.1	22850
871.23	23143
871.36	23048
871.489	23041
871.619	23056
871.749	23109
871.879	23113
872.008	23258
872.138	23197
872.267	23113
872.397	22957
872.526	22801
872.656	22968
872.785	22957
872.915	23170
873.044	23166
873.173	23090
873.303	23147
873.432	23178
873.561	23318
873.69	23056
873.819	23102
873.948	23227
874.077	23136
874.206	22995
874.335	23067
874.464	23303
874.593	23372
874.722	23486
874.851	23356
874.979	23299
875.108	23334
875.237	23269
875.365	23231
875.494	23269
875.623	23440
875.751	23269
875.88	23337
876.008	23554
876.136	23539
876.265	23691
876.393	23942
876.521	23779
876.65	23756
876.778	23824
876.906	23684
877.034	23600
877.162	23741
877.29	23623
877.418	23611
877.546	23611
877.674	23726
877.802	23802
877.93	23646
878.058	23714
878.185	23646
878.313	23604
878.441	23547
878.568	23573
878.696	23604
878.824	23558
878.951	23745
879.079	23783
879.206	23969
879.333	23878
879.461	23680
879.588	23786
879.715	23889
879.842	24034
879.97	23786
880.097	23531
880.224	23497
880.351	23535
880.478	23452
880.605	23421
880.732	23528
880.859	23764
880.986	23600
881.112	23539
881.239	23337
881.366	23208
881.493	23155
881.619	23128
881.746	23109
881.872	23102
881.999	23124
882.125	23029
882.252	23044
882.378	23010
882.505	23159
882.631	22972
882.757	22820
882.883	22812
883.01	22805
883.136	22588
883.262	22599
883.388	22588
883.514	22790
883.64	22683
883.766	22611
883.892	22466
884.018	22417
884.143	22683
884.269	22702
884.395	22398
884.52	22344
884.646	22379
884.772	22394
884.897	22261
885.023	22348
885.148	22531
885.274	22341
885.399	22443
885.524	22242
885.65	22367
885.775	22367
885.9	22325
886.025	22405
886.15	22462
886.275	22230
886.4	22284
886.525	22223
886.65	22329
886.775	22268
886.9	22447
887.025	22500
887.149	22390
887.274	22128
887.399	22158
887.523	22070
887.648	22070
887.773	21892
887.897	22211
888.021	22086
888.146	22082
888.27	22230
888.395	22044
888.519	22097
888.643	22090
888.767	22154
888.891	21945
889.015	21892
889.139	22021
889.263	21892
889.387	22070
889.511	22124
889.635	22002
889.759	21922
889.883	21857
890.006	21987
890.13	21907
890.254	21838
890.377	21869
890.501	21728
890.624	21466
890.748	21720
890.871	21564
890.995	21458
891.118	21408
891.241	21485
891.364	21439
891.488	21606
891.611	21485
891.734	21450
891.857	21473
891.98	21389
892.103	21458
892.226	21504
892.349	21408
892.471	21222
892.594	21298
892.717	21325
892.839	21439
892.962	21100
893.085	21408
893.207	21233
893.33	21161
893.452	21165
893.575	21325
893.697	21249
893.819	21549
893.941	21564
894.064	21336
894.186	21245
894.308	21176
894.43	21488
894.552	21405
894.674	21351
894.796	21237
894.918	21192
895.04	21317
895.161	21374
895.283	21275
895.405	21268
895.526	21249
895.648	21241
895.769	21264
895.891	21348
896.012	21351
896.134	21317
896.255	21355
896.376	21294
896.498	21222
896.619	21294
896.74	21317
896.861	21351
896.982	21705
897.103	21736
897.224	21568
897.345	21500
897.466	21473
897.587	21386
897.708	21507
897.828	21587
897.949	21534
898.07	21272
898.19	21378
898.311	21572
898.431	21382
898.552	21530
898.672	21618
898.792	21557
898.913	21515
899.033	21386
899.153	21294
899.273	21180
899.393	21291
899.513	21169
899.633	21237
899.753	21214
899.873	21123
899.993	21325
900.113	21161
900.232	21188
900.352	21207
900.472	21032
900.591	21032
900.711	20902
900.83	20891
900.95	21074
901.069	20975
901.189	20868
901.308	20613
901.427	20568
901.546	20533
901.665	20503
901.784	20518
901.904	20476
902.023	20305
902.141	20054
902.26	19970
902.379	20084
902.498	19989
902.617	20054
902.735	20073
902.854	20043
902.973	19967
903.091	19788
903.21	19666
903.328	19727
903.446	19658
903.565	19438
903.683	19521
903.801	19430
903.919	19468
904.038	19304
904.156	19217
904.274	19285
904.392	19187
904.51	19206
904.627	19145
904.745	19278
904.863	19266
904.981	19050
905.098	18951
905.216	18932
905.334	18977
905.451	18878
905.569	18783
905.686	18867
905.803	18966
905.921	18791
906.038	18677
906.155	18661
906.272	18612
906.389	18536
906.506	18437
906.623	18494
906.74	18471
906.857	18384
906.974	18330
907.091	18471
907.208	18559
907.324	18403
907.441	18353
907.557	18133
907.674	18144
907.79	18167
907.907	18117
908.023	18110
908.139	18159
908.256	18026
908.372	18087
908.488	18045
908.604	17851
908.72	17836
908.836	17790
908.952	17779
909.068	17760
909.184	18038
909.3	17885
909.415	17824
909.531	17752
909.647	17623
909.762	17497
909.878	17524
909.993	17520
910.108	17535
910.224	17509
910.339	17471
910.454	17455
910.57	17368
910.685	17235
910.8	17532
910.915	17391
911.03	17322
911.145	17220
911.259	17159
911.374	17143
911.489	17033
911.604	16930
911.718	16786
911.833	16835
911.947	16809
912.062	16679
912.176	16847
912.291	16801
912.405	16896
912.519	17037
912.633	17029
912.748	16923
912.862	16759
912.976	16744
913.09	16474
913.204	16580
913.318	16668
913.431	16672
913.545	16771
913.659	16687
913.772	16546
913.886	16474
914	16440
914.113	16558
914.226	16592
914.34	16493
914.453	16436
914.566	16428
914.68	16325
914.793	16295
914.906	16177
915.019	16082
915.132	16032
915.245	16078
915.358	16059
915.47	15941
915.583	15918
915.696	16105
915.809	16090
915.921	16124
916.034	16006
916.146	15895
916.259	15941
916.371	16021
916.483	15987
916.595	15762
916.708	15899
916.82	15789
916.932	15804
917.044	15880
917.156	15728
917.268	15671
917.38	15698
917.491	15770
917.603	15679
917.715	15865
917.826	15705
917.938	15603
918.049	15523
918.161	15595
918.272	15648
918.384	15698
918.495	15572
918.606	15397
918.717	15344
918.828	15393
918.939	15439
919.05	15370
919.161	15420
919.272	15150
919.383	15268
919.494	15389
919.604	15545
919.715	15294
919.826	15374
919.936	15355
920.047	15530
920.157	15374
920.267	15466
920.378	15428
920.488	15325
920.598	15580
920.708	15595
920.818	15511
920.928	15443
921.038	15557
921.148	15606
921.258	15230
921.368	15097
921.477	15119
921.587	15036
921.697	14967
921.806	15077
921.916	14902
922.025	14842
922.134	14686
922.244	14613
922.353	14716
922.462	14598
922.571	14541
922.68	14412
922.789	14339
922.898	14358
923.007	14275
923.116	14400
923.224	14339
923.333	14324
923.442	14214
923.55	14187
923.659	14233
923.767	14202
923.876	14149
923.984	14320
924.092	14020
924.201	14046
924.309	14103
924.417	14035
924.525	13955
924.633	13978
924.741	14960
924.849	13784
924.956	13913
925.064	13788
925.172	13700
925.279	13890
925.387	13803
925.494	13769
925.602	13890
925.709	13803
925.816	13616
925.924	13609
926.031	13795
926.138	13670
926.245	13609
926.352	13552
926.459	13704
926.566	13662
926.673	13636
926.779	13499
926.886	13476
926.993	13358
927.099	13285
927.206	13255
927.312	13236
927.419	13251
927.525	13247
927.631	13232
927.737	13114
927.843	13103
927.95	12970
928.056	13061
928.162	13122
928.267	13209
928.373	13780
928.479	13149
928.585	12856
928.69	13031
928.796	13084
928.901	12867
929.007	12810
929.112	12905
929.218	12909
929.323	12783
929.428	12795
929.533	12871
929.638	12707
929.743	12730
929.848	12779
929.953	12730
930.058	12662
930.163	12494
930.267	12483
930.372	12639
930.477	12418
930.581	12616
930.685	12471
930.79	12315
930.894	12338
930.998	12285
931.103	12464
931.207	11996
931.311	12019
931.415	11870
931.519	11699
931.623	11691
