Data from test_V78500241_2678.txt Node
Date: Fri Mar 25 16:00:21 CST 2022
User: usil
Spectrometer: V785-0024
Trigger mode: 0
Integration Time (sec): 4.000000E-1
Scans to average: 1
Nonlinearity correction enabled: false
Boxcar width: 0
Storing dark spectrum: false
XAxis mode: Wavelengths
Number of Pixels in Spectrum: 1024
>>>>>Begin Spectral Data<<<<<
801.071	28759
801.214	28626
801.356	28478
801.499	28504
801.641	28348
801.783	28268
801.926	28363
802.068	28337
802.211	28246
802.353	28200
802.496	27987
802.638	28006
802.78	28093
802.923	27861
803.065	27926
803.208	27873
803.35	28032
803.492	28017
803.635	28219
803.777	28143
803.919	28329
804.061	28459
804.204	28246
804.346	28082
804.488	28196
804.63	28158
804.773	28219
804.915	28303
805.057	28375
805.199	28215
805.341	28325
805.483	28344
805.626	28367
805.768	28253
805.91	28485
806.052	28363
806.194	28474
806.336	28531
806.478	28417
806.62	28299
806.762	28508
806.904	28771
807.046	28968
807.188	28854
807.33	28831
807.472	28877
807.614	28858
807.756	28812
807.898	28694
808.04	28660
808.182	28573
808.324	28847
808.465	28900
808.607	28888
808.749	29170
808.891	29143
809.033	29292
809.174	28984
809.316	29018
809.458	28987
809.6	29109
809.741	29025
809.883	29235
810.025	29356
810.166	29292
810.308	29337
810.45	29220
810.591	29254
810.733	29105
810.875	29041
811.016	28896
811.158	28900
811.299	29159
811.441	29204
811.582	29193
811.724	29140
811.865	29079
812.007	29200
812.148	29060
812.29	29102
812.431	29391
812.573	29402
812.714	29417
812.855	29524
812.997	29836
813.138	29832
813.279	29817
813.421	29627
813.562	29406
813.703	29463
813.845	29387
813.986	29124
814.127	28885
814.268	28805
814.41	28786
814.551	28869
814.692	28854
814.833	28771
814.974	28641
815.115	28812
815.256	28748
815.397	28653
815.539	28557
815.68	28584
815.821	28535
815.962	28554
816.103	28672
816.244	28481
816.385	28379
816.526	28329
816.666	28158
816.807	28029
816.948	28223
817.089	28147
817.23	28230
817.371	28128
817.512	28090
817.653	28032
817.793	28135
817.934	27899
818.075	28067
818.216	28150
818.356	28006
818.497	28040
818.638	27918
818.778	27823
818.919	27869
819.06	28006
819.2	28036
819.341	28116
819.481	28070
819.622	28196
819.762	28436
819.903	28268
820.043	28344
820.184	28169
820.324	28299
820.465	28238
820.605	28196
820.746	28249
820.886	27975
821.026	28211
821.167	28169
821.307	28238
821.447	28162
821.588	28116
821.728	27926
821.868	27789
822.008	27553
822.149	27675
822.289	27622
822.429	27389
822.569	27382
822.709	27351
822.849	27161
822.99	27047
823.13	27116
823.27	26998
823.41	26910
823.55	26796
823.69	26849
823.83	26845
823.97	26880
824.11	26769
824.25	26731
824.389	26823
824.529	26788
824.669	26807
824.809	26777
824.949	26796
825.089	26918
825.228	26712
825.368	26541
825.508	26522
825.648	26617
825.787	26667
825.927	26743
826.067	26526
826.206	26678
826.346	26754
826.485	26590
826.625	26648
826.765	26590
826.904	26674
827.044	26480
827.183	26442
827.323	26347
827.462	26294
827.601	26381
827.741	26377
827.88	26370
828.02	26256
828.159	26278
828.298	26370
828.437	26377
828.577	26206
828.716	26389
828.855	26103
828.994	26062
829.134	26001
829.273	26039
829.412	25913
829.551	25947
829.69	26126
829.829	26069
829.968	26069
830.107	26111
830.246	25974
830.385	25959
830.524	25917
830.663	25864
830.802	25658
830.941	25685
831.08	25700
831.219	25734
831.357	25696
831.496	25955
831.635	25723
831.774	25556
831.913	25510
832.051	25369
832.19	25422
832.329	25472
832.467	25316
832.606	25278
832.744	25278
832.883	25392
833.022	25152
833.16	25285
833.299	25362
833.437	25343
833.576	25358
833.714	25362
833.852	25358
833.991	25365
834.129	25464
834.267	25422
834.406	25384
834.544	25491
834.682	25426
834.821	25358
834.959	25457
835.097	25270
835.235	25430
835.373	25400
835.511	25369
835.65	25164
835.788	25194
835.926	25190
836.064	24905
836.202	25091
836.34	25297
836.478	25297
836.615	25179
836.753	25225
836.891	25270
837.029	25285
837.167	25107
837.305	25194
837.443	25095
837.58	25023
837.718	25038
837.856	25107
837.993	24935
838.131	25046
838.269	24916
838.406	24875
838.544	24916
838.681	24726
838.819	24700
838.956	24608
839.094	24570
839.231	24521
839.369	24540
839.506	24913
839.643	24696
839.781	24441
839.918	24486
840.055	24486
840.193	24410
840.33	24429
840.467	24391
840.604	24350
840.742	24646
840.879	24201
841.016	24273
841.153	24277
841.29	24513
841.427	24388
841.564	24357
841.701	24300
841.838	24323
841.975	24296
842.112	24224
842.249	24213
842.385	24121
842.522	24403
842.659	24228
842.796	24140
842.933	24007
843.069	23999
843.206	24049
843.343	24224
843.479	24224
843.616	24190
843.752	24038
843.889	23897
844.025	24079
844.162	23950
844.298	24011
844.435	23931
844.571	23996
844.708	23984
844.844	24091
844.98	23988
845.117	24015
845.253	23855
845.389	23748
845.525	23775
845.661	23832
845.798	23745
845.934	23901
846.07	23623
846.206	23653
846.342	23779
846.478	23623
846.614	23463
846.75	23368
846.886	23265
847.022	23376
847.158	23372
847.294	23349
847.429	23376
847.565	23288
847.701	23687
847.837	23185
847.972	23037
848.108	23345
848.244	23136
848.379	22942
848.515	23060
848.65	23083
848.786	23083
848.921	22915
849.057	23048
849.192	23064
849.328	22984
849.463	22938
849.598	23029
849.734	22786
849.869	22812
850.004	22752
850.14	22805
850.275	22717
850.41	22687
850.545	22733
850.68	22717
850.815	22683
850.95	22599
851.085	22938
851.22	22710
851.355	22748
851.49	22679
851.625	22611
851.76	22668
851.895	22535
852.03	22672
852.165	22801
852.299	22767
852.434	22759
852.569	22748
852.703	22721
852.838	22869
852.973	22972
853.107	22820
853.242	22748
853.376	22577
853.511	22470
853.645	22607
853.78	22573
853.914	22512
854.048	22565
854.183	22557
854.317	22584
854.451	22702
854.585	22531
854.72	22379
854.854	22592
854.988	22432
855.122	22577
855.256	22459
855.39	22519
855.524	22664
855.658	22516
855.792	22573
855.926	22645
856.06	22679
856.194	22557
856.327	22443
856.461	22379
856.595	22306
856.729	22535
856.862	22725
856.996	22618
857.13	22584
857.263	22622
857.397	22584
857.53	22386
857.664	22557
857.797	22557
857.931	22599
858.064	22531
858.197	22611
858.331	22641
858.464	22485
858.597	22405
858.731	22542
858.864	22580
858.997	22428
859.13	22573
859.263	22599
859.396	22611
859.529	22516
859.662	22523
859.795	22523
859.928	22565
860.061	22755
860.194	22736
860.327	22664
860.46	22497
860.592	22694
860.725	22710
860.858	22744
860.99	22596
861.123	22447
861.256	22569
861.388	22516
861.521	23410
861.653	22428
861.786	22356
861.918	22344
862.05	22386
862.183	22402
862.315	22592
862.447	22565
862.58	22440
862.712	22219
862.844	22242
862.976	22306
863.108	22226
863.24	22759
863.372	22162
863.504	22314
863.636	22306
863.768	22398
863.9	22257
864.032	22086
864.164	22306
864.296	22303
864.428	22348
864.559	22181
864.691	22314
864.823	22196
864.954	22287
865.086	22272
865.217	22188
865.349	22181
865.48	22139
865.612	22063
865.743	22230
865.875	22143
866.006	22040
866.137	22036
866.269	22192
866.4	22124
866.531	22025
866.662	22082
866.793	21972
866.924	22158
867.055	22002
867.186	22101
867.317	22025
867.448	21949
867.579	21953
867.71	22032
867.841	21945
867.972	22040
868.103	22067
868.233	22097
868.364	22036
868.495	22200
868.625	22265
868.756	22367
868.886	22192
869.017	22154
869.147	22417
869.278	22424
869.408	22375
869.539	22318
869.669	22455
869.799	22352
869.929	22371
870.06	22443
870.19	22584
870.32	22653
870.45	22748
870.58	22580
870.71	22824
870.84	22713
870.97	22675
871.1	22786
871.23	22847
871.36	22831
871.489	22812
871.619	22778
871.749	22816
871.879	22828
872.008	23044
872.138	22980
872.267	22938
872.397	22919
872.526	22668
872.656	22786
872.785	22809
872.915	22923
873.044	23067
873.173	22896
873.303	23006
873.432	23006
873.561	23071
873.69	22984
873.819	22999
873.948	22942
874.077	22942
874.206	22812
874.335	22904
874.464	23048
874.593	23052
874.722	23208
874.851	23258
874.979	23181
875.108	23273
875.237	23083
875.365	23079
875.494	23102
875.623	23200
875.751	23029
875.88	23189
876.008	23181
876.136	23280
876.265	23459
876.393	23649
876.521	23630
876.65	23562
876.778	23364
876.906	23360
877.034	23429
877.162	23501
877.29	23516
877.418	23410
877.546	23524
877.674	23440
877.802	23539
877.93	23433
878.058	23459
878.185	23299
878.313	23406
878.441	23398
878.568	23296
878.696	23349
878.824	23345
878.951	23623
879.079	23600
879.206	23745
879.333	23581
879.461	23573
879.588	23642
879.715	23687
879.842	23684
879.97	23596
880.097	23235
880.224	23181
880.351	23292
880.478	23311
880.605	23223
880.732	23318
880.859	23452
880.986	23280
881.112	23322
881.239	23128
881.366	22908
881.493	22949
881.619	22919
881.746	22873
881.872	22938
881.999	22812
882.125	22831
882.252	23044
882.378	22790
882.505	22949
882.631	22622
882.757	22512
882.883	22713
883.01	22527
883.136	22428
883.262	22489
883.388	22409
883.514	22569
883.64	22516
883.766	22360
883.892	22303
884.018	22348
884.143	22451
884.269	22691
884.395	22215
884.52	22204
884.646	22200
884.772	22067
884.897	22048
885.023	22204
885.148	22280
885.274	22314
885.399	22299
885.524	22086
885.65	22219
885.775	22112
885.9	22082
886.025	22341
886.15	22291
886.275	22032
886.4	21968
886.525	22101
886.65	22143
886.775	22135
886.9	22238
887.025	22360
887.149	22185
887.274	21888
887.399	21873
887.523	22010
887.648	21778
887.773	21907
887.897	21964
888.021	21979
888.146	21736
888.27	21846
888.395	22006
888.519	21960
888.643	21838
888.767	21884
888.891	21884
889.015	21717
889.139	21751
889.263	21724
889.387	21842
889.511	21888
889.635	21854
889.759	21682
889.883	21705
890.006	21610
890.13	21622
890.254	21641
890.377	21603
890.501	21401
890.624	21431
890.748	21473
890.871	21325
890.995	21279
891.118	21165
891.241	21325
891.364	21329
891.488	21466
891.611	21332
891.734	21367
891.857	21237
891.98	21169
892.103	21405
892.226	21268
892.349	21214
892.471	21024
892.594	21237
892.717	21176
892.839	21199
892.962	21211
893.085	21192
893.207	21077
893.33	20986
893.452	21154
893.575	21062
893.697	21051
893.819	21264
893.941	21363
894.064	21317
894.186	21047
894.308	21096
894.43	21100
894.552	21317
894.674	21291
894.796	21039
894.918	20971
895.04	21116
895.161	21192
895.283	21176
895.405	21070
895.526	21089
895.648	21093
895.769	21104
895.891	21108
896.012	21199
896.134	21131
896.255	21188
896.376	21165
896.498	21188
896.619	21104
896.74	21055
896.861	21195
896.982	21447
897.103	21549
897.224	21355
897.345	21348
897.466	21180
897.587	21412
897.708	21389
897.828	21359
897.949	21241
898.07	21313
898.19	21313
898.311	21344
898.431	21268
898.552	21264
898.672	21249
898.792	21317
898.913	21340
899.033	21211
899.153	21157
899.273	20975
899.393	21077
899.513	21089
899.633	21017
899.753	21093
899.873	21081
899.993	21013
900.113	20979
900.232	21028
900.352	20937
900.472	20853
900.591	20864
900.711	20838
900.83	20853
900.95	20937
901.069	20853
901.189	20788
901.308	20434
901.427	20358
901.546	20366
901.665	20313
901.784	20374
901.904	20278
902.023	20122
902.141	19898
902.26	19856
902.379	19925
902.498	20024
902.617	19769
902.735	19856
902.854	19856
902.973	19845
903.091	19620
903.21	19476
903.328	19518
903.446	19434
903.565	19331
903.683	19301
903.801	19217
903.919	19354
904.038	19411
904.156	19175
904.274	19160
904.392	19050
904.51	19103
904.627	19103
904.745	19179
904.863	19034
904.981	18977
905.098	18753
905.216	18772
905.334	18867
905.451	18840
905.569	18753
905.686	18776
905.803	18776
905.921	18506
906.038	18631
906.155	18627
906.272	18456
906.389	18456
906.506	18338
906.623	18323
906.74	18270
906.857	18216
906.974	18232
907.091	18251
907.208	18414
907.324	18197
907.441	18247
907.557	18057
907.674	17984
907.79	17973
907.907	17950
908.023	18049
908.139	18068
908.256	17992
908.372	17851
908.488	17908
908.604	17821
908.72	17657
908.836	17691
908.952	17661
909.068	17707
909.184	17756
909.3	17634
909.415	17813
909.531	17756
909.647	17467
909.762	17391
909.878	17337
909.993	17402
910.108	17376
910.224	17376
910.339	17356
910.454	17212
910.57	17242
910.685	17292
910.8	17516
910.915	17299
911.03	17208
911.145	17010
911.259	17109
911.374	16919
911.489	16923
911.604	16839
911.718	16782
911.833	16672
911.947	16668
912.062	16508
912.176	16812
912.291	16645
912.405	16656
912.519	16976
912.633	16930
912.748	16862
912.862	16634
912.976	16558
913.09	16421
913.204	16447
913.318	16470
913.431	16596
913.545	16565
913.659	16668
913.772	16402
913.886	16394
914	16265
914.113	16470
914.226	16485
914.34	16413
914.453	16276
914.566	16409
914.68	16101
914.793	16173
914.906	15979
915.019	15888
915.132	15937
915.245	15926
915.358	15991
915.47	15819
915.583	15876
915.696	15915
915.809	15918
915.921	16036
916.034	15766
916.146	15884
916.259	15778
916.371	15892
916.483	15762
916.595	15808
916.708	15739
916.82	15800
916.932	15770
917.044	15610
917.156	15663
917.268	15564
917.38	15553
917.491	15519
917.603	15511
917.715	15587
917.826	15667
917.938	15549
918.049	15348
918.161	15450
918.272	15584
918.384	15542
918.495	15370
918.606	15370
918.717	15127
918.828	15260
918.939	15264
919.05	15157
919.161	15283
919.272	14971
919.383	15176
919.494	15237
919.604	15466
919.715	15233
919.826	15192
919.936	15169
920.047	15233
920.157	15131
920.267	15351
920.378	15272
920.488	15146
920.598	15325
920.708	15580
920.818	15348
920.928	15386
921.038	15488
921.148	15469
921.258	15131
921.368	15051
921.477	14887
921.587	15005
921.697	14834
921.806	14910
921.916	14758
922.025	14621
922.134	14533
922.244	14537
922.353	14629
922.462	14404
922.571	14412
922.68	14267
922.789	14183
922.898	14225
923.007	14164
923.116	14221
923.224	14252
923.333	14130
923.442	14031
923.55	13967
923.659	14123
923.767	14054
923.876	13955
923.984	13974
924.092	13830
924.201	13921
924.309	13951
924.417	13898
924.525	13871
924.633	13826
924.741	14849
924.849	13655
924.956	13757
925.064	13681
925.172	13445
925.279	13537
925.387	13609
925.494	13639
925.602	13651
925.709	13636
925.816	13476
925.924	13502
926.031	13689
926.138	13601
926.245	13605
926.352	13346
926.459	13590
926.566	13578
926.673	13419
926.779	13339
926.886	13263
926.993	13194
927.099	13129
927.206	13095
927.312	13091
927.419	13156
927.525	13122
927.631	13069
927.737	12954
927.843	12920
927.95	12890
928.056	12973
928.162	12973
928.267	13015
928.373	13445
928.479	12973
928.585	12703
928.69	12875
928.796	12920
928.901	12840
929.007	12627
929.112	12757
929.218	12753
929.323	12612
929.428	12707
929.533	12791
929.638	12566
929.743	12563
929.848	12631
929.953	12513
930.058	12410
930.163	12361
930.267	12273
930.372	12490
930.477	12300
930.581	12544
930.685	12350
930.79	12216
930.894	12136
930.998	12251
931.103	12304
931.207	11965
931.311	11878
931.415	11847
931.519	11558
931.623	11482
