Data from test_V78500241_797.txt Node
Date: Fri Mar 25 15:47:19 CST 2022
User: usil
Spectrometer: V785-0024
Trigger mode: 0
Integration Time (sec): 4.000000E-1
Scans to average: 1
Nonlinearity correction enabled: false
Boxcar width: 0
Storing dark spectrum: false
XAxis mode: Wavelengths
Number of Pixels in Spectrum: 1024
>>>>>Begin Spectral Data<<<<<
801.071	27679
801.214	27587
801.356	27458
801.499	27150
801.641	27093
801.783	27176
801.926	27348
802.068	27249
802.211	27150
802.353	27047
802.496	26864
802.638	26906
802.78	26830
802.923	26727
803.065	26830
803.208	26762
803.35	27005
803.492	26960
803.635	26895
803.777	26902
803.919	27039
804.061	27310
804.204	26944
804.346	27192
804.488	26937
804.63	26910
804.773	26971
804.915	27066
805.057	27226
805.199	27039
805.341	27093
805.483	27211
805.626	27096
805.768	27157
805.91	27165
806.052	27116
806.194	27058
806.336	27344
806.478	27302
806.62	27192
806.762	27355
806.904	27458
807.046	27808
807.188	27652
807.33	27500
807.472	27720
807.614	27466
807.756	27450
807.898	27462
808.04	27416
808.182	27291
808.324	27412
808.465	27412
808.607	27576
808.749	27770
808.891	27972
809.033	27998
809.174	27797
809.316	27793
809.458	27709
809.6	27808
809.741	27911
809.883	28040
810.025	28097
810.166	28070
810.308	28109
810.45	27991
810.591	27892
810.733	27823
810.875	27743
811.016	27797
811.158	27774
811.299	27949
811.441	27953
811.582	28032
811.724	27819
811.865	27762
812.007	27789
812.148	27663
812.29	27808
812.431	28013
812.573	27998
812.714	28226
812.855	28341
812.997	28401
813.138	28542
813.279	28436
813.421	28379
813.562	28219
813.703	28093
813.845	28055
813.986	27785
814.127	27599
814.268	27568
814.41	27618
814.551	27329
814.692	27622
814.833	27382
814.974	27534
815.115	27481
815.256	27382
815.397	27351
815.539	27199
815.68	27287
815.821	27150
815.962	27370
816.103	27412
816.244	27142
816.385	27226
816.526	27188
816.666	26883
816.807	26857
816.948	26853
817.089	26826
817.23	26769
817.371	26705
817.512	26792
817.653	26746
817.793	26689
817.934	26746
818.075	26769
818.216	26739
818.356	26629
818.497	26701
818.638	26549
818.778	26427
818.919	26457
819.06	26609
819.2	26530
819.341	26743
819.481	26849
819.622	26910
819.762	27062
819.903	26990
820.043	27017
820.184	26796
820.324	26785
820.465	27074
820.605	26861
820.746	26998
820.886	26861
821.026	26834
821.167	26750
821.307	26982
821.447	26830
821.588	26838
821.728	26590
821.868	26446
822.008	26343
822.149	26191
822.289	26221
822.429	25906
822.569	25906
822.709	25913
822.849	25715
822.99	25704
823.13	25727
823.27	25693
823.41	25575
823.55	25597
823.69	25491
823.83	25746
823.97	25438
824.11	25464
824.25	25369
824.389	25426
824.529	25491
824.669	25365
824.809	25521
824.949	25419
825.089	25384
825.228	25457
825.368	25228
825.508	25213
825.648	25183
825.787	25324
825.927	25251
826.067	25236
826.206	25179
826.346	25312
826.485	25053
826.625	25187
826.765	25445
826.904	25240
827.044	24909
827.183	25069
827.323	24905
827.462	25019
827.601	24954
827.741	25008
827.88	25015
828.02	24867
828.159	24992
828.298	24894
828.437	25038
828.577	24878
828.716	24970
828.855	24951
828.994	24528
829.134	24604
829.273	24741
829.412	24570
829.551	24658
829.69	24650
829.829	24707
829.968	24760
830.107	24681
830.246	24783
830.385	24532
830.524	24429
830.663	24422
830.802	24441
830.941	24171
831.08	24319
831.219	24437
831.357	24285
831.496	24585
831.635	24338
831.774	24247
831.913	24155
832.051	24003
832.19	23988
832.329	24072
832.467	23889
832.606	23802
832.744	23878
832.883	23931
833.022	23901
833.16	23904
833.299	23893
833.437	23904
833.576	24007
833.714	23855
833.852	23992
833.991	24102
834.129	24098
834.267	23996
834.406	23988
834.544	24102
834.682	24038
834.821	24007
834.959	24072
835.097	23813
835.235	24045
835.373	23832
835.511	23992
835.65	23794
835.788	23813
835.926	23786
836.064	23634
836.202	23748
836.34	23908
836.478	23897
836.615	23882
836.753	23798
836.891	23847
837.029	23756
837.167	23843
837.305	23790
837.443	23642
837.58	23687
837.718	23779
837.856	23699
837.993	23551
838.131	23623
838.269	23551
838.406	23524
838.544	23452
838.681	23330
838.819	23296
838.956	23090
839.094	23109
839.231	23090
839.369	23303
839.506	23509
839.643	23307
839.781	23121
839.918	23003
840.055	23064
840.193	23075
840.33	22923
840.467	22873
840.604	23003
840.742	23337
840.879	22972
841.016	22915
841.153	22961
841.29	23166
841.427	23079
841.564	23090
841.701	23010
841.838	22987
841.975	22896
842.112	22949
842.249	22858
842.385	22850
842.522	22904
842.659	22900
842.796	22630
842.933	22809
843.069	22805
843.206	22645
843.343	22828
843.479	22683
843.616	22641
843.752	22573
843.889	22588
844.025	22687
844.162	22615
844.298	22565
844.435	22573
844.571	22573
844.708	22500
844.844	22706
844.98	22672
845.117	22538
845.253	22622
845.389	22474
845.525	22478
845.661	22440
845.798	22421
845.934	22417
846.07	22234
846.206	22333
846.342	22341
846.478	22158
846.614	22074
846.75	21918
846.886	22010
847.022	22070
847.158	21991
847.294	22055
847.429	22200
847.565	21861
847.701	22284
847.837	21709
847.972	21728
848.108	21888
848.244	21892
848.379	21583
848.515	21660
848.65	21614
848.786	21713
848.921	21641
849.057	21587
849.192	21705
849.328	21583
849.463	21511
849.598	21583
849.734	21599
849.869	21454
850.004	21389
850.14	21504
850.275	21458
850.41	21428
850.545	21226
850.68	21439
850.815	21466
850.95	21382
851.085	21431
851.22	21500
851.355	21374
851.49	21458
851.625	21367
851.76	21344
851.895	21382
852.03	21203
852.165	21393
852.299	21363
852.434	21473
852.569	21477
852.703	21488
852.838	21496
852.973	21515
853.107	21568
853.242	21321
853.376	21260
853.511	21150
853.645	21275
853.78	21332
853.914	21211
854.048	21233
854.183	21104
854.317	21256
854.451	21431
854.585	21203
854.72	21268
854.854	21252
854.988	21108
855.122	21146
855.256	21142
855.39	21116
855.524	21294
855.658	21142
855.792	21192
855.926	21275
856.06	21131
856.194	21272
856.327	21184
856.461	21123
856.595	21241
856.729	21173
856.862	21336
856.996	21157
857.13	21310
857.263	21325
857.397	21462
857.53	21146
857.664	21279
857.797	21218
857.931	21302
858.064	21245
858.197	21416
858.331	21184
858.464	21180
858.597	21237
858.731	21180
858.864	21233
858.997	21146
859.13	21218
859.263	21256
859.396	21291
859.529	21203
859.662	21313
859.795	21100
859.928	21188
860.061	21180
860.194	21485
860.327	21287
860.46	21321
860.592	21367
860.725	21393
860.858	21310
860.99	21313
861.123	21108
861.256	21165
861.388	21135
861.521	21854
861.653	21131
861.786	21028
861.918	21055
862.05	21119
862.183	21173
862.315	21195
862.447	21237
862.58	21096
862.712	21062
862.844	20975
862.976	20906
863.108	20986
863.24	21450
863.372	20891
863.504	20963
863.636	20933
863.768	21013
863.9	20937
864.032	20845
864.164	20998
864.296	20925
864.428	21020
864.559	20963
864.691	20994
864.823	20914
864.954	20960
865.086	20826
865.217	20921
865.349	20762
865.48	20811
865.612	20849
865.743	21020
865.875	20880
866.006	20792
866.137	20872
866.269	20887
866.4	20785
866.531	20838
866.662	20678
866.793	20773
866.924	20811
867.055	20891
867.186	20830
867.317	20750
867.448	20598
867.579	20731
867.71	20667
867.841	20659
867.972	20819
868.103	20697
868.233	20727
868.364	20773
868.495	20933
868.625	20952
868.756	21112
868.886	20929
869.017	20975
869.147	21150
869.278	21203
869.408	21093
869.539	21001
869.669	21108
869.799	21058
869.929	21131
870.06	21096
870.19	21252
870.32	21378
870.45	21393
870.58	21481
870.71	21473
870.84	21504
870.97	21370
871.1	21382
871.23	21591
871.36	21530
871.489	21447
871.619	21507
871.749	21599
871.879	21694
872.008	21884
872.138	21564
872.267	21568
872.397	21530
872.526	21435
872.656	21466
872.785	21561
872.915	21587
873.044	21618
873.173	21656
873.303	21755
873.432	21743
873.561	21739
873.69	21660
873.819	21530
873.948	21679
874.077	21618
874.206	21568
874.335	21618
874.464	21732
874.593	21819
874.722	21835
874.851	21907
874.979	21937
875.108	21869
875.237	21850
875.365	21816
875.494	21846
875.623	21926
875.751	21732
875.88	21880
876.008	22021
876.136	22059
876.265	22116
876.393	22344
876.521	22230
876.65	22291
876.778	22257
876.906	22238
877.034	22211
877.162	22093
877.29	22211
877.418	22177
877.546	22265
877.674	22128
877.802	22234
877.93	22329
878.058	22242
878.185	22128
878.313	22265
878.441	22226
878.568	21915
878.696	22051
878.824	22150
878.951	22265
879.079	22417
879.206	22512
879.333	22360
879.461	22101
879.588	22284
879.715	22303
879.842	22485
879.97	22382
880.097	22017
880.224	22063
880.351	22044
880.478	22021
880.605	22010
880.732	22040
880.859	22226
880.986	21983
881.112	22059
881.239	21876
881.366	21800
881.493	21679
881.619	21591
881.746	21701
881.872	21587
881.999	21587
882.125	21526
882.252	21633
882.378	21591
882.505	21804
882.631	21393
882.757	21302
882.883	21393
883.01	21348
883.136	21321
883.262	21188
883.388	21123
883.514	21386
883.64	21408
883.766	21131
883.892	20944
884.018	21199
884.143	21386
884.269	21329
884.395	21047
884.52	20849
884.646	20986
884.772	20933
884.897	20769
885.023	20834
885.148	21039
885.274	21085
885.399	21001
885.524	21066
885.65	20929
885.775	20963
885.9	20956
886.025	21047
886.15	21013
886.275	20727
886.4	20849
886.525	20807
886.65	20842
886.775	20834
886.9	20941
887.025	21157
887.149	20838
887.274	20872
887.399	20644
887.523	20727
887.648	20632
887.773	20625
887.897	20773
888.021	20746
888.146	20568
888.27	20788
888.395	20727
888.519	20804
888.643	20663
888.767	20933
888.891	20693
889.015	20571
889.139	20621
889.263	20465
889.387	20629
889.511	20743
889.635	20613
889.759	20568
889.883	20427
890.006	20473
890.13	20621
890.254	20389
890.377	20438
890.501	20408
890.624	20221
890.748	20278
890.871	20142
890.995	20100
891.118	19894
891.241	20054
891.364	20115
891.488	20157
891.611	20092
891.734	20119
891.857	20206
891.98	20210
892.103	20103
892.226	20122
892.349	20050
892.471	19860
892.594	19982
892.717	19951
892.839	20039
892.962	19955
893.085	20039
893.207	20081
893.33	19909
893.452	19989
893.575	19928
893.697	20001
893.819	20081
893.941	20298
894.064	20134
894.186	20035
894.308	19993
894.43	20043
894.552	20164
894.674	19993
894.796	19875
894.918	20008
895.04	19909
895.161	20012
895.283	19947
895.405	19925
895.526	19982
895.648	19974
895.769	20058
895.891	19959
896.012	20012
896.134	20077
896.255	19940
896.376	20024
896.498	19944
896.619	20142
896.74	19978
896.861	19989
896.982	20389
897.103	20571
897.224	20267
897.345	20229
897.466	20122
897.587	20301
897.708	20530
897.828	20149
897.949	20153
898.07	19928
898.19	20339
898.311	20301
898.431	20062
898.552	20256
898.672	20263
898.792	20355
898.913	20244
899.033	20065
899.153	20043
899.273	19849
899.393	20168
899.513	19963
899.633	19989
899.753	20024
899.873	19925
899.993	20020
900.113	19807
900.232	20050
900.352	19940
900.472	19761
900.591	19696
900.711	19719
900.83	19666
900.95	19856
901.069	19761
901.189	19556
901.308	19483
901.427	19407
901.546	19392
901.665	19358
901.784	19388
901.904	19190
902.023	19118
902.141	18977
902.26	18875
902.379	18996
902.498	18928
902.617	18783
902.735	18920
902.854	18848
902.973	18814
903.091	18563
903.21	18585
903.328	18555
903.446	18448
903.565	18353
903.683	18414
903.801	18190
903.919	18323
904.038	18292
904.156	18174
904.274	18235
904.392	18041
904.51	18064
904.627	18117
904.745	18091
904.863	18125
904.981	17874
905.098	17771
905.216	17813
905.334	17847
905.451	17657
905.569	17767
905.686	17729
905.803	17695
905.921	17554
906.038	17649
906.155	17566
906.272	17433
906.389	17493
906.506	17364
906.623	17360
906.74	17307
906.857	17151
906.974	17162
907.091	17303
907.208	17471
907.324	17383
907.441	17189
907.557	17083
907.674	17090
907.79	16999
907.907	16987
908.023	16953
908.139	17048
908.256	16995
908.372	16949
908.488	16900
908.604	16755
908.72	16675
908.836	16793
908.952	16809
909.068	16702
909.184	16839
909.3	16774
909.415	16805
909.531	16706
909.647	16561
909.762	16481
909.878	16508
909.993	16470
910.108	16432
910.224	16459
910.339	16398
910.454	16363
910.57	16207
910.685	16143
910.8	16443
910.915	16443
911.03	16230
911.145	16082
911.259	16105
911.374	16048
911.489	16013
911.604	15827
911.718	15827
911.833	15873
911.947	15762
912.062	15701
912.176	15732
912.291	15812
912.405	15732
912.519	15994
912.633	16032
912.748	15823
912.862	15785
912.976	15637
913.09	15443
913.204	15633
913.318	15606
913.431	15656
913.545	15755
913.659	15755
913.772	15504
913.886	15462
914	15283
914.113	15523
914.226	15549
914.34	15485
914.453	15405
914.566	15447
914.68	15367
914.793	15298
914.906	15085
915.019	14986
915.132	15051
915.245	14956
915.358	15024
915.47	15024
915.583	15020
915.696	15108
915.809	15112
915.921	15165
916.034	14986
916.146	14853
916.259	14956
916.371	14998
916.483	15047
916.595	14845
916.708	14864
916.82	14971
916.932	14842
917.044	14849
917.156	14819
917.268	14697
917.38	14663
917.491	14629
917.603	14648
917.715	14739
917.826	14800
917.938	14712
918.049	14564
918.161	14602
918.272	14746
918.384	14739
918.495	14594
918.606	14404
918.717	14366
918.828	14431
918.939	14473
919.05	14370
919.161	14370
919.272	14237
919.383	14256
919.494	14419
919.604	14701
919.715	14431
919.826	14278
919.936	14313
920.047	14522
920.157	14507
920.267	14552
920.378	14339
920.488	14347
920.598	14568
920.708	14754
920.818	14621
920.928	14590
921.038	14663
921.148	14674
921.258	14377
921.368	14240
921.477	14294
921.587	14065
921.697	14062
921.806	14210
921.916	13959
922.025	13921
922.134	13856
922.244	13689
922.353	13791
922.462	13677
922.571	13544
922.68	13499
922.789	13453
922.898	13476
923.007	13346
923.116	13460
923.224	13392
923.333	13419
923.442	13236
923.55	13320
923.659	13285
923.767	13331
923.876	13228
923.984	13240
924.092	13122
924.201	13236
924.309	13133
924.417	13179
924.525	13183
924.633	13114
924.741	13967
924.849	12973
924.956	13091
925.064	12913
925.172	12825
925.279	12863
925.387	12852
925.494	12810
925.602	12973
925.709	12924
925.816	12764
925.924	12806
926.031	12837
926.138	12795
926.245	12909
926.352	12753
926.459	12852
926.566	12829
926.673	12722
926.779	12585
926.886	12620
926.993	12513
927.099	12429
927.206	12407
927.312	12285
927.419	12517
927.525	12467
927.631	12479
927.737	12319
927.843	12277
927.95	12171
928.056	12342
928.162	12262
928.267	12311
928.373	12894
928.479	12369
928.585	12076
928.69	12273
928.796	12197
928.901	12129
929.007	11980
929.112	12155
929.218	12053
929.323	12030
929.428	12007
929.533	12129
929.638	11901
929.743	11923
929.848	11980
929.953	11897
930.058	11813
930.163	11672
930.267	11630
930.372	11817
930.477	11714
930.581	11840
930.685	11741
930.79	11581
930.894	11619
930.998	11547
931.103	11680
931.207	11307
931.311	11185
931.415	11212
931.519	10999
931.623	11010
