Data from test_V78500241_871.txt Node
Date: Fri Mar 25 15:47:50 CST 2022
User: usil
Spectrometer: V785-0024
Trigger mode: 0
Integration Time (sec): 4.000000E-1
Scans to average: 1
Nonlinearity correction enabled: false
Boxcar width: 0
Storing dark spectrum: false
XAxis mode: Wavelengths
Number of Pixels in Spectrum: 1024
>>>>>Begin Spectral Data<<<<<
801.071	27667
801.214	27633
801.356	27504
801.499	27462
801.641	27344
801.783	27420
801.926	27405
802.068	27344
802.211	27241
802.353	27230
802.496	26990
802.638	26876
802.78	26975
802.923	26967
803.065	26929
803.208	26777
803.35	26990
803.492	26906
803.635	27165
803.777	26868
803.919	27157
804.061	27519
804.204	27203
804.346	27081
804.488	27116
804.63	27116
804.773	27119
804.915	27173
805.057	27275
805.199	27214
805.341	27359
805.483	27237
805.626	27272
805.768	27142
805.91	27355
806.052	27268
806.194	27184
806.336	27329
806.478	27272
806.62	27279
806.762	27348
806.904	27690
807.046	27793
807.188	27641
807.33	27709
807.472	27739
807.614	27591
807.756	27690
807.898	27526
808.04	27439
808.182	27458
808.324	27656
808.465	27595
808.607	27736
808.749	27838
808.891	27934
809.033	28067
809.174	27987
809.316	27846
809.458	28025
809.6	27945
809.741	28036
809.883	28063
810.025	28226
810.166	28204
810.308	28185
810.45	28207
810.591	28143
810.733	27926
810.875	27972
811.016	27861
811.158	27743
811.299	27994
811.441	28204
811.582	28032
811.724	27956
811.865	27949
812.007	27949
812.148	27899
812.29	27926
812.431	27987
812.573	28329
812.714	28436
812.855	28367
812.997	28527
813.138	28725
813.279	28573
813.421	28432
813.562	28398
813.703	28356
813.845	28093
813.986	28006
814.127	27793
814.268	27614
814.41	27724
814.551	27625
814.692	27580
814.833	27629
814.974	27545
815.115	27682
815.256	27557
815.397	27450
815.539	27629
815.68	27466
815.821	27272
815.962	27427
816.103	27363
816.244	27268
816.385	27245
816.526	27256
816.666	27070
816.807	26998
816.948	26982
817.089	27142
817.23	27024
817.371	26925
817.512	26963
817.653	27017
817.793	26785
817.934	26853
818.075	26986
818.216	26971
818.356	26880
818.497	26693
818.638	26667
818.778	26743
818.919	26670
819.06	26762
819.2	26815
819.341	26910
819.481	26811
819.622	27005
819.762	27279
819.903	27161
820.043	27085
820.184	27028
820.324	26933
820.465	27165
820.605	27005
820.746	26994
820.886	26804
821.026	27051
821.167	26940
821.307	26967
821.447	26933
821.588	26819
821.728	26796
821.868	26583
822.008	26366
822.149	26362
822.289	26237
822.429	26164
822.569	26081
822.709	26065
822.849	25936
822.99	25849
823.13	25826
823.27	25746
823.41	25674
823.55	25658
823.69	25719
823.83	25689
823.97	25715
824.11	25544
824.25	25464
824.389	25468
824.529	25594
824.669	25605
824.809	25632
824.949	25533
825.089	25791
825.228	25613
825.368	25422
825.508	25415
825.648	25388
825.787	25567
825.927	25426
826.067	25285
826.206	25373
826.346	25430
826.485	25445
826.625	25369
826.765	25354
826.904	25377
827.044	25110
827.183	25065
827.323	24970
827.462	25171
827.601	25107
827.741	25080
827.88	25110
828.02	24977
828.159	25080
828.298	25137
828.437	25133
828.577	25050
828.716	25228
828.855	25076
828.994	24840
829.134	24776
829.273	24909
829.412	24738
829.551	24688
829.69	24749
829.829	24749
829.968	24909
830.107	24783
830.246	24772
830.385	24764
830.524	24608
830.663	24604
830.802	24525
830.941	24391
831.08	24350
831.219	24342
831.357	24513
831.496	24597
831.635	24414
831.774	24407
831.913	24410
832.051	24266
832.19	24220
832.329	24285
832.467	24091
832.606	24076
832.744	24057
832.883	24140
833.022	24098
833.16	24110
833.299	24068
833.437	24018
833.576	24087
833.714	24079
833.852	24178
833.991	24186
834.129	24277
834.267	24171
834.406	24133
834.544	24209
834.682	24121
834.821	24034
834.959	24262
835.097	24083
835.235	24174
835.373	24034
835.511	24136
835.65	24068
835.788	24026
835.926	23836
836.064	23767
836.202	23889
836.34	24026
836.478	24133
836.615	23935
836.753	24106
836.891	24007
837.029	24007
837.167	23942
837.305	23958
837.443	23821
837.58	23771
837.718	23931
837.856	23817
837.993	23684
838.131	23695
838.269	23771
838.406	23608
838.544	23646
838.681	23551
838.819	23345
838.956	23216
839.094	23334
839.231	23478
839.369	23425
839.506	23680
839.643	23520
839.781	23284
839.918	23151
840.055	23368
840.193	23337
840.33	23162
840.467	23318
840.604	23349
840.742	23512
840.879	23098
841.016	23109
841.153	23102
841.29	23296
841.427	23094
841.564	23204
841.701	23143
841.838	23162
841.975	23010
842.112	23185
842.249	23105
842.385	22927
842.522	23121
842.659	22976
842.796	22972
842.933	23010
843.069	22911
843.206	22904
843.343	22965
843.479	22980
843.616	23025
843.752	22725
843.889	22797
844.025	22767
844.162	22668
844.298	22919
844.435	22603
844.571	22622
844.708	22675
844.844	22946
844.98	22816
845.117	22862
845.253	22656
845.389	22626
845.525	22611
845.661	22592
845.798	22462
845.934	22557
846.07	22394
846.206	22466
846.342	22584
846.478	22432
846.614	22265
846.75	22029
846.886	22131
847.022	22192
847.158	22257
847.294	22295
847.429	22215
847.565	22200
847.701	22584
847.837	21880
847.972	21876
848.108	22082
848.244	22067
848.379	21873
848.515	21728
848.65	21675
848.786	21823
848.921	21774
849.057	21880
849.192	21854
849.328	21876
849.463	21698
849.598	21698
849.734	21656
849.869	21576
850.004	21652
850.14	21583
850.275	21469
850.41	21450
850.545	21519
850.68	21500
850.815	21496
850.95	21496
851.085	21713
851.22	21705
851.355	21511
851.49	21549
851.625	21473
851.76	21469
851.895	21443
852.03	21496
852.165	21583
852.299	21435
852.434	21633
852.569	21637
852.703	21534
852.838	21774
852.973	21599
853.107	21759
853.242	21534
853.376	21336
853.511	21401
853.645	21283
853.78	21416
853.914	21420
854.048	21351
854.183	21241
854.317	21313
854.451	21454
854.585	21313
854.72	21332
854.854	21351
854.988	21165
855.122	21370
855.256	21165
855.39	21386
855.524	21519
855.658	21355
855.792	21473
855.926	21466
856.06	21359
856.194	21397
856.327	21397
856.461	21275
856.595	21298
856.729	21348
856.862	21450
856.996	21523
857.13	21462
857.263	21420
857.397	21561
857.53	21310
857.664	21386
857.797	21370
857.931	21504
858.064	21363
858.197	21477
858.331	21374
858.464	21313
858.597	21207
858.731	21408
858.864	21310
858.997	21313
859.13	21488
859.263	21279
859.396	21473
859.529	21317
859.662	21329
859.795	21359
859.928	21420
860.061	21481
860.194	21656
860.327	21458
860.46	21348
860.592	21485
860.725	21447
860.858	21477
860.99	21462
861.123	21405
861.256	21329
861.388	21485
861.521	22032
861.653	21123
861.786	21161
861.918	21245
862.05	21211
862.183	21249
862.315	21386
862.447	21458
862.58	21302
862.712	21211
862.844	21024
862.976	21154
863.108	21108
863.24	21473
863.372	21051
863.504	21096
863.636	21093
863.768	21142
863.9	21051
864.032	21043
864.164	21039
864.296	21131
864.428	21230
864.559	21127
864.691	21222
864.823	21043
864.954	21089
865.086	21070
865.217	20975
865.349	20982
865.48	20914
865.612	21096
865.743	21039
865.875	20960
866.006	20902
866.137	20952
866.269	21104
866.4	20971
866.531	21089
866.662	20883
866.793	20906
866.924	20956
867.055	20918
867.186	21070
867.317	20883
867.448	20788
867.579	20849
867.71	20819
867.841	20777
867.972	20815
868.103	20876
868.233	20975
868.364	20929
868.495	21074
868.625	21184
868.756	21222
868.886	21169
869.017	21199
869.147	21211
869.278	21344
869.408	21264
869.539	21081
869.669	21268
869.799	21154
869.929	21233
870.06	21154
870.19	21519
870.32	21382
870.45	21344
870.58	21523
870.71	21583
870.84	21671
870.97	21526
871.1	21500
871.23	21816
871.36	21667
871.489	21648
871.619	21690
871.749	21682
871.879	21728
872.008	21766
872.138	21793
872.267	21732
872.397	21595
872.526	21534
872.656	21504
872.785	21542
872.915	21789
873.044	21808
873.173	21816
873.303	21698
873.432	21934
873.561	21766
873.69	21713
873.819	21751
873.948	21907
874.077	21728
874.206	21698
874.335	21755
874.464	21892
874.593	21968
874.722	22059
874.851	22059
874.979	21994
875.108	22086
875.237	21945
875.365	21937
875.494	21922
875.623	22086
875.751	21884
875.88	22101
876.008	22185
876.136	22139
876.265	22276
876.393	22386
876.521	22565
876.65	22493
876.778	22478
876.906	22379
877.034	22223
877.162	22318
877.29	22268
877.418	22352
877.546	22333
877.674	22325
877.802	22356
877.93	22382
878.058	22390
878.185	22173
878.313	22333
878.441	22405
878.568	22185
878.696	22367
878.824	22265
878.951	22531
879.079	22527
879.206	22599
879.333	22523
879.461	22409
879.588	22527
879.715	22481
879.842	22489
879.97	22402
880.097	22135
880.224	22200
880.351	22261
880.478	22055
880.605	22078
880.732	22287
880.859	22398
880.986	22188
881.112	22341
881.239	22002
881.366	21915
881.493	21865
881.619	21743
881.746	21789
881.872	21732
881.999	21808
882.125	21701
882.252	21751
882.378	21652
882.505	21781
882.631	21538
882.757	21564
882.883	21393
883.01	21317
883.136	21321
883.262	21462
883.388	21306
883.514	21370
883.64	21488
883.766	21382
883.892	21230
884.018	21332
884.143	21443
884.269	21458
884.395	21211
884.52	20944
884.646	21138
884.772	21028
884.897	20990
885.023	21017
885.148	21199
885.274	21222
885.399	21138
885.524	21096
885.65	21176
885.775	21173
885.9	21017
886.025	21173
886.15	21051
886.275	21028
886.4	20944
886.525	21081
886.65	20994
886.775	20952
886.9	21070
887.025	21283
887.149	21036
887.274	20941
887.399	20891
887.523	20971
887.648	20712
887.773	20670
887.897	21020
888.021	20929
888.146	20796
888.27	20921
888.395	20960
888.519	20868
888.643	20861
888.767	20914
888.891	20777
889.015	20609
889.139	20678
889.263	20575
889.387	20792
889.511	20830
889.635	20788
889.759	20678
889.883	20640
890.006	20697
890.13	20796
890.254	20568
890.377	20590
890.501	20488
890.624	20336
890.748	20396
890.871	20275
890.995	20191
891.118	20111
891.241	20183
891.364	20252
891.488	20328
891.611	20229
891.734	20214
891.857	20218
891.98	20225
892.103	20259
892.226	20183
892.349	20138
892.471	20016
892.594	20172
892.717	20240
892.839	20122
892.962	20138
893.085	20191
893.207	20084
893.33	20058
893.452	20180
893.575	20069
893.697	20081
893.819	20313
893.941	20149
894.064	20252
894.186	20005
894.308	20168
894.43	20202
894.552	20290
894.674	20145
894.796	20142
894.918	20092
895.04	20046
895.161	20142
895.283	20199
895.405	20103
895.526	20157
895.648	20054
895.769	20077
895.891	20157
896.012	20214
896.134	20206
896.255	20134
896.376	20103
896.498	20153
896.619	20138
896.74	20168
896.861	20168
896.982	20503
897.103	20541
897.224	20309
897.345	20358
897.466	20252
897.587	20286
897.708	20533
897.828	20328
897.949	20252
898.07	20176
898.19	20328
898.311	20461
898.431	20244
898.552	20347
898.672	20336
898.792	20358
898.913	20332
899.033	20138
899.153	20195
899.273	20126
899.393	20077
899.513	20122
899.633	20024
899.753	20107
899.873	20153
899.993	20027
900.113	20005
900.232	20054
900.352	19997
900.472	19963
900.591	19807
900.711	19906
900.83	19868
900.95	19936
901.069	19890
901.189	19700
901.308	19540
901.427	19422
901.546	19441
901.665	19491
901.784	19388
901.904	19255
902.023	19244
902.141	19107
902.26	18935
902.379	19099
902.498	19031
902.617	18954
902.735	18993
902.854	18905
902.973	18928
903.091	18646
903.21	18711
903.328	18593
903.446	18582
903.565	18509
903.683	18433
903.801	18353
903.919	18433
904.038	18388
904.156	18258
904.274	18277
904.392	18239
904.51	18216
904.627	18125
904.745	18121
904.863	18201
904.981	18003
905.098	17878
905.216	17935
905.334	17954
905.451	17950
905.569	17798
905.686	17897
905.803	17885
905.921	17638
906.038	17752
906.155	17714
906.272	17737
906.389	17630
906.506	17429
906.623	17455
906.74	17478
906.857	17258
906.974	17258
907.091	17440
907.208	17547
907.324	17421
907.441	17284
907.557	17132
907.674	17212
907.79	17102
907.907	17067
908.023	17098
908.139	17151
908.256	17010
908.372	17105
908.488	16957
908.604	16820
908.72	16877
908.836	16797
908.952	16793
909.068	16721
909.184	17048
909.3	16771
909.415	16805
909.531	16885
909.647	16580
909.762	16546
909.878	16691
909.993	16611
910.108	16558
910.224	16455
910.339	16493
910.454	16402
910.57	16287
910.685	16341
910.8	16538
910.915	16634
911.03	16382
911.145	16226
911.259	16158
911.374	16131
911.489	16090
911.604	16017
911.718	15953
911.833	15888
911.947	15732
912.062	15720
912.176	15975
912.291	16048
912.405	15937
912.519	16105
912.633	16071
912.748	15960
912.862	15915
912.976	15774
913.09	15667
913.204	15656
913.318	15660
913.431	15800
913.545	15793
913.659	15770
913.772	15656
913.886	15519
914	15481
914.113	15610
914.226	15572
914.34	15603
914.453	15435
914.566	15580
914.68	15332
914.793	15325
914.906	15249
915.019	15074
915.132	15032
915.245	15123
915.358	15135
915.47	15157
915.583	15150
915.696	15180
915.809	15192
915.921	15302
916.034	15047
916.146	15047
916.259	15009
916.371	15066
916.483	15047
916.595	15005
916.708	15005
916.82	15009
916.932	14883
917.044	14929
917.156	14998
917.268	14773
917.38	14765
917.491	14731
917.603	14727
917.715	14823
917.826	14807
917.938	14773
918.049	14579
918.161	14701
918.272	14857
918.384	14838
918.495	14697
918.606	14469
918.717	14473
918.828	14606
918.939	14644
919.05	14434
919.161	14533
919.272	14278
919.383	14415
919.494	14552
919.604	14708
919.715	14522
919.826	14366
919.936	14438
920.047	14511
920.157	14518
920.267	14697
920.378	14571
920.488	14503
920.598	14617
920.708	14819
920.818	14629
920.928	14610
921.038	14815
921.148	14727
921.258	14465
921.368	14374
921.477	14153
921.587	14191
921.697	14126
921.806	14214
921.916	14035
922.025	13925
922.134	13826
922.244	13856
922.353	13917
922.462	13750
922.571	13715
922.68	13499
922.789	13578
922.898	13483
923.007	13480
923.116	13628
923.224	13499
923.333	13422
923.442	13407
923.55	13327
923.659	13278
923.767	13514
923.876	13247
923.984	13327
924.092	13190
924.201	13259
924.309	13213
924.417	13381
924.525	13259
924.633	13228
924.741	14153
924.849	13015
924.956	13118
925.064	12939
925.172	12825
925.279	12932
925.387	12897
925.494	12920
925.602	13107
925.709	12928
925.816	12848
925.924	12928
926.031	12962
926.138	12837
926.245	12913
926.352	12837
926.459	12928
926.566	12947
926.673	12833
926.779	12722
926.886	12734
926.993	12559
927.099	12479
927.206	12528
927.312	12437
927.419	12502
927.525	12467
927.631	12585
927.737	12369
927.843	12407
927.95	12300
928.056	12308
928.162	12372
928.267	12319
928.373	12924
928.479	12369
928.585	12190
928.69	12292
928.796	12281
928.901	12178
929.007	12064
929.112	12197
929.218	12175
929.323	12159
929.428	12129
929.533	12262
929.638	11980
929.743	11984
929.848	12110
929.953	12045
930.058	11954
930.163	11798
930.267	11767
930.372	11866
930.477	11691
930.581	11931
930.685	11684
930.79	11691
930.894	11661
930.998	11596
931.103	11710
931.207	11444
931.311	11318
931.415	11201
931.519	11064
931.623	11045
