Data from test_V78500241_196.txt Node
Date: Fri Mar 25 15:43:09 CST 2022
User: usil
Spectrometer: V785-0024
Trigger mode: 0
Integration Time (sec): 4.000000E-1
Scans to average: 1
Nonlinearity correction enabled: false
Boxcar width: 0
Storing dark spectrum: false
XAxis mode: Wavelengths
Number of Pixels in Spectrum: 1024
>>>>>Begin Spectral Data<<<<<
801.071	29570
801.214	29345
801.356	29261
801.499	29235
801.641	29159
801.783	29105
801.926	29132
802.068	29162
802.211	29060
802.353	29052
802.496	28938
802.638	28729
802.78	28790
802.923	28592
803.065	28778
803.208	28786
803.35	28729
803.492	28934
803.635	28885
803.777	28763
803.919	28930
804.061	29189
804.204	28824
804.346	28687
804.488	28892
804.63	28835
804.773	28824
804.915	28843
805.057	28942
805.199	28755
805.341	28961
805.483	28953
805.626	28949
805.768	28953
805.91	28946
806.052	28923
806.194	29025
806.336	29193
806.478	29003
806.62	29185
806.762	29083
806.904	29204
807.046	29315
807.188	29349
807.33	29433
807.472	29471
807.614	29220
807.756	29258
807.898	29246
808.04	29140
808.182	29212
808.324	29181
808.465	29273
808.607	29345
808.749	29554
808.891	29684
809.033	29771
809.174	29653
809.316	29566
809.458	29398
809.6	29395
809.741	29737
809.883	29642
810.025	29790
810.166	29809
810.308	29764
810.45	29687
810.591	29630
810.733	29646
810.875	29535
811.016	29501
811.158	29330
811.299	29535
811.441	29824
811.582	29726
811.724	29490
811.865	29406
812.007	29539
812.148	29501
812.29	29566
812.431	29668
812.573	29794
812.714	29889
812.855	29977
812.997	30155
813.138	30079
813.279	30178
813.421	29912
813.562	29874
813.703	29878
813.845	29684
813.986	29398
814.127	29250
814.268	29246
814.41	29303
814.551	29090
814.692	29353
814.833	29166
814.974	29094
815.115	29117
815.256	28946
815.397	29143
815.539	28934
815.68	28911
815.821	28721
815.962	28854
816.103	28915
816.244	28733
816.385	28683
816.526	28672
816.666	28432
816.807	28265
816.948	28398
817.089	28489
817.23	28120
817.371	28261
817.512	28200
817.653	28268
817.793	28173
817.934	28211
818.075	28348
818.216	28299
818.356	28291
818.497	28135
818.638	28032
818.778	27899
818.919	28051
819.06	28150
819.2	28112
819.341	28177
819.481	28272
819.622	28295
819.762	28607
819.903	28333
820.043	28573
820.184	28405
820.324	28356
820.465	28341
820.605	28348
820.746	28211
820.886	28181
821.026	28185
821.167	28238
821.307	28219
821.447	28211
821.588	28078
821.728	27861
821.868	27755
822.008	27656
822.149	27656
822.289	27705
822.429	27416
822.569	27336
822.709	27450
822.849	27096
822.99	26986
823.13	27150
823.27	27108
823.41	26929
823.55	26769
823.69	27001
823.83	26933
823.97	26899
824.11	26819
824.25	26735
824.389	26727
824.529	26731
824.669	26632
824.809	26864
824.949	26754
825.089	26762
825.228	26682
825.368	26682
825.508	26606
825.648	26609
825.787	26587
825.927	26659
826.067	26431
826.206	26655
826.346	26533
826.485	26594
826.625	26438
826.765	26606
826.904	26670
827.044	26271
827.183	26301
827.323	26176
827.462	26294
827.601	26206
827.741	26107
827.88	26214
828.02	26001
828.159	26180
828.298	26210
828.437	26183
828.577	25947
828.716	26282
828.855	26092
828.994	25940
829.134	25849
829.273	25807
829.412	25921
829.551	25693
829.69	25822
829.829	25894
829.968	25849
830.107	25940
830.246	25795
830.385	25696
830.524	25651
830.663	25537
830.802	25556
830.941	25422
831.08	25381
831.219	25495
831.357	25514
831.496	25731
831.635	25499
831.774	25194
831.913	25171
832.051	25247
832.19	25160
832.329	25213
832.467	25065
832.606	25023
832.744	25072
832.883	25122
833.022	24996
833.16	25091
833.299	25107
833.437	25053
833.576	25183
833.714	25053
833.852	25148
833.991	25251
834.129	25152
834.267	25133
834.406	25061
834.544	25122
834.682	25145
834.821	25031
834.959	25148
835.097	24996
835.235	25050
835.373	25148
835.511	25046
835.65	24901
835.788	24935
835.926	24635
836.064	24661
836.202	24802
836.34	24882
836.478	24905
836.615	24821
836.753	24878
836.891	24924
837.029	24932
837.167	24867
837.305	24852
837.443	24776
837.58	24764
837.718	24821
837.856	24627
837.993	24536
838.131	24631
838.269	24559
838.406	24589
838.544	24426
838.681	24308
838.819	24247
838.956	24091
839.094	24045
839.231	24068
839.369	24281
839.506	24525
839.643	24304
839.781	24079
839.918	24011
840.055	24129
840.193	23908
840.33	24018
840.467	24102
840.604	23992
840.742	24292
840.879	23847
841.016	23977
841.153	23847
841.29	24026
841.427	24003
841.564	24053
841.701	23958
841.838	23874
841.975	24011
842.112	23836
842.249	23885
842.385	23699
842.522	23927
842.659	23859
842.796	23836
842.933	23710
843.069	23680
843.206	23615
843.343	23680
843.479	23695
843.616	23615
843.752	23558
843.889	23414
844.025	23554
844.162	23341
844.298	23493
844.435	23326
844.571	23311
844.708	23486
844.844	23608
844.98	23528
845.117	23490
845.253	23273
845.389	23166
845.525	23189
845.661	23227
845.798	23132
845.934	23162
846.07	23109
846.206	23174
846.342	23280
846.478	23048
846.614	22919
846.75	22831
846.886	22942
847.022	22942
847.158	22889
847.294	22858
847.429	22934
847.565	22843
847.701	23094
847.837	22557
847.972	22516
848.108	22607
848.244	22596
848.379	22516
848.515	22455
848.65	22333
848.786	22352
848.921	22417
849.057	22455
849.192	22417
849.328	22519
849.463	22367
849.598	22390
849.734	22181
849.869	22226
850.004	22086
850.14	22097
850.275	22261
850.41	22006
850.545	22055
850.68	22070
850.815	22226
850.95	22215
851.085	22287
851.22	22181
851.355	22105
851.49	22070
851.625	22006
851.76	22086
851.895	22067
852.03	22048
852.165	22074
852.299	22166
852.434	22158
852.569	22147
852.703	22082
852.838	22196
852.973	22188
853.107	22253
853.242	22021
853.376	21854
853.511	21785
853.645	21827
853.78	22025
853.914	21895
854.048	21899
854.183	21911
854.317	21899
854.451	22055
854.585	21831
854.72	21945
854.854	21884
854.988	21755
855.122	21797
855.256	21789
855.39	21895
855.524	22013
855.658	21994
855.792	22021
855.926	21975
856.06	21926
856.194	22109
856.327	21789
856.461	21831
856.595	21739
856.729	21854
856.862	22010
856.996	21926
857.13	21994
857.263	21873
857.397	21953
857.53	21876
857.664	21911
857.797	21819
857.931	22013
858.064	21759
858.197	21934
858.331	21857
858.464	21720
858.597	21675
858.731	21793
858.864	21766
858.997	21762
859.13	21953
859.263	21797
859.396	21934
859.529	21812
859.662	21774
859.795	21827
859.928	21751
860.061	21937
860.194	21941
860.327	21827
860.46	21861
860.592	21972
860.725	21934
860.858	22010
860.99	21873
861.123	21846
861.256	21778
861.388	21781
861.521	22470
861.653	21629
861.786	21545
861.918	21652
862.05	21861
862.183	21857
862.315	21671
862.447	21972
862.58	21755
862.712	21534
862.844	21492
862.976	21458
863.108	21652
863.24	21854
863.372	21382
863.504	21549
863.636	21401
863.768	21500
863.9	21568
864.032	21488
864.164	21500
864.296	21424
864.428	21469
864.559	21542
864.691	21644
864.823	21553
864.954	21359
865.086	21458
865.217	21359
865.349	21283
865.48	21416
865.612	21370
865.743	21507
865.875	21382
866.006	21363
866.137	21374
866.269	21401
866.4	21367
866.531	21344
866.662	21325
866.793	21264
866.924	21332
867.055	21370
867.186	21378
867.317	21492
867.448	21222
867.579	21279
867.71	21203
867.841	21287
867.972	21283
868.103	21325
868.233	21363
868.364	21313
868.495	21526
868.625	21477
868.756	21663
868.886	21534
869.017	21526
869.147	21690
869.278	21557
869.408	21603
869.539	21591
869.669	21633
869.799	21614
869.929	21774
870.06	21816
870.19	21812
870.32	21816
870.45	21838
870.58	21934
870.71	22067
870.84	22120
870.97	21953
871.1	22029
871.23	22135
871.36	22268
871.489	22086
871.619	22013
871.749	22166
871.879	22215
872.008	22333
872.138	22192
872.267	22230
872.397	21956
872.526	22010
872.656	22219
872.785	21975
872.915	22226
873.044	22234
873.173	22147
873.303	22261
873.432	22234
873.561	22527
873.69	22238
873.819	22348
873.948	22261
874.077	22215
874.206	22200
874.335	22192
874.464	22352
874.593	22493
874.722	22314
874.851	22478
874.979	22508
875.108	22455
875.237	22413
875.365	22363
875.494	22379
875.623	22421
875.751	22287
875.88	22451
876.008	22535
876.136	22660
876.265	22850
876.393	22999
876.521	22896
876.65	22831
876.778	22942
876.906	22641
877.034	22793
877.162	22740
877.29	22637
877.418	22801
877.546	22831
877.674	22812
877.802	22801
877.93	22729
878.058	22790
878.185	22580
878.313	22812
878.441	22607
878.568	22603
878.696	22733
878.824	22786
878.951	22725
879.079	23037
879.206	22991
879.333	22949
879.461	22866
879.588	22858
879.715	22995
879.842	23071
879.97	22877
880.097	22713
880.224	22691
880.351	22653
880.478	22519
880.605	22542
880.732	22618
880.859	22805
880.986	22603
881.112	22592
881.239	22599
881.366	22341
881.493	22299
881.619	22192
881.746	22246
881.872	22128
881.999	22109
882.125	22116
882.252	22204
882.378	22196
882.505	22204
882.631	22025
882.757	22002
882.883	21918
883.01	21846
883.136	21789
883.262	21701
883.388	21705
883.514	21953
883.64	21838
883.766	21876
883.892	21561
884.018	21720
884.143	21816
884.269	21937
884.395	21538
884.52	21553
884.646	21473
884.772	21291
884.897	21348
885.023	21488
885.148	21507
885.274	21633
885.399	21504
885.524	21515
885.65	21492
885.775	21473
885.9	21610
886.025	21511
886.15	21694
886.275	21374
886.4	21283
886.525	21363
886.65	21481
886.775	21389
886.9	21583
887.025	21743
887.149	21397
887.274	21268
887.399	21146
887.523	21283
887.648	21211
887.773	21112
887.897	21340
888.021	21195
888.146	21142
888.27	21348
888.395	21298
888.519	21268
888.643	21389
888.767	21329
888.891	21180
889.015	20982
889.139	20963
889.263	20975
889.387	21100
889.511	21070
889.635	21233
889.759	20918
889.883	20933
890.006	20963
890.13	20956
890.254	20902
890.377	20998
890.501	20705
890.624	20758
890.748	20739
890.871	20678
890.995	20549
891.118	20541
891.241	20503
891.364	20659
891.488	20606
891.611	20609
891.734	20575
891.857	20583
891.98	20609
892.103	20648
892.226	20617
892.349	20545
892.471	20438
892.594	20343
892.717	20609
892.839	20377
892.962	20495
893.085	20522
893.207	20503
893.33	20351
893.452	20377
893.575	20514
893.697	20518
893.819	20667
893.941	20651
894.064	20522
894.186	20358
894.308	20381
894.43	20503
894.552	20625
894.674	20560
894.796	20290
894.918	20511
895.04	20522
895.161	20579
895.283	20393
895.405	20450
895.526	20495
895.648	20511
895.769	20465
895.891	20495
896.012	20587
896.134	20552
896.255	20495
896.376	20461
896.498	20465
896.619	20556
896.74	20469
896.861	20621
896.982	20864
897.103	20990
897.224	20750
897.345	20724
897.466	20758
897.587	20758
897.708	20724
897.828	20788
897.949	20617
898.07	20442
898.19	20598
898.311	20750
898.431	20632
898.552	20693
898.672	20777
898.792	20659
898.913	20701
899.033	20617
899.153	20480
899.273	20355
899.393	20336
899.513	20404
899.633	20434
899.753	20454
899.873	20328
899.993	20438
900.113	20225
900.232	20438
900.352	20233
900.472	20176
900.591	20062
900.711	20161
900.83	20039
900.95	20290
901.069	20275
901.189	20157
901.308	19902
901.427	19750
901.546	19757
901.665	19833
901.784	19788
901.904	19624
902.023	19575
902.141	19449
902.26	19247
902.379	19358
902.498	19179
902.617	19247
902.735	19278
902.854	19034
902.973	19095
903.091	18821
903.21	19004
903.328	18894
903.446	18764
903.565	18730
903.683	18738
903.801	18627
903.919	18589
904.038	18589
904.156	18437
904.274	18528
904.392	18361
904.51	18429
904.627	18452
904.745	18433
904.863	18494
904.981	18266
905.098	18095
905.216	18178
905.334	18102
905.451	18167
905.569	18087
905.686	18053
905.803	18114
905.921	17904
906.038	17908
906.155	17874
906.272	17821
906.389	17855
906.506	17699
906.623	17748
906.74	17661
906.857	17585
906.974	17600
907.091	17733
907.208	17760
907.324	17615
907.441	17452
907.557	17429
907.674	17402
907.79	17155
907.907	17166
908.023	17425
908.139	17372
908.256	17280
908.372	17075
908.488	17159
908.604	17071
908.72	17010
908.836	16968
908.952	16881
909.068	17045
909.184	17170
909.3	16953
909.415	16995
909.531	16946
909.647	16683
909.762	16694
909.878	16755
909.993	16797
910.108	16656
910.224	16744
910.339	16702
910.454	16523
910.57	16447
910.685	16466
910.8	16675
910.915	16622
911.03	16402
911.145	16223
911.259	16291
911.374	16314
911.489	16253
911.604	16131
911.718	16090
911.833	16044
911.947	15941
912.062	15823
912.176	16055
912.291	16044
912.405	16105
912.519	16287
912.633	16188
912.748	16044
912.862	15994
912.976	15926
913.09	15660
913.204	15869
913.318	15816
913.431	15907
913.545	15930
913.659	15915
913.772	15949
913.886	15728
914	15599
914.113	15835
914.226	15778
914.34	15732
914.453	15614
914.566	15736
914.68	15530
914.793	15492
914.906	15310
915.019	15313
915.132	15203
915.245	15157
915.358	15245
915.47	15218
915.583	15157
915.696	15230
915.809	15264
915.921	15264
916.034	15146
916.146	15020
916.259	15085
916.371	15241
916.483	15097
916.595	15066
916.708	15028
916.82	15036
916.932	14971
917.044	14891
917.156	15032
917.268	14891
917.38	14963
917.491	14769
917.603	14838
917.715	14811
917.826	14929
917.938	14792
918.049	14735
918.161	14857
918.272	14948
918.384	15051
918.495	14796
918.606	14625
918.717	14655
918.828	14629
918.939	14701
919.05	14594
919.161	14552
919.272	14374
919.383	14419
919.494	14678
919.604	14731
919.715	14560
919.826	14423
919.936	14446
920.047	14602
920.157	14579
920.267	14693
920.378	14598
920.488	14583
920.598	14758
920.708	14823
920.818	14648
920.928	14655
921.038	14830
921.148	14785
921.258	14514
921.368	14434
921.477	14370
921.587	14221
921.697	14164
921.806	14374
921.916	14069
922.025	13951
922.134	13849
922.244	13921
922.353	13906
922.462	13742
922.571	13647
922.68	13556
922.789	13506
922.898	13514
923.007	13460
923.116	13468
923.224	13506
923.333	13521
923.442	13438
923.55	13335
923.659	13480
923.767	13419
923.876	13331
923.984	13392
924.092	13270
924.201	13327
924.309	13293
924.417	13373
924.525	13198
924.633	13232
924.741	13917
924.849	12924
924.956	13129
925.064	12924
925.172	12909
925.279	12890
925.387	12905
925.494	13076
925.602	13076
925.709	12977
925.816	12882
925.924	12886
926.031	12939
926.138	12859
926.245	12894
926.352	12787
926.459	12962
926.566	12996
926.673	12840
926.779	12787
926.886	12684
926.993	12639
927.099	12494
927.206	12426
927.312	12479
927.419	12620
927.525	12506
927.631	12559
927.737	12357
927.843	12323
927.95	12338
928.056	12247
928.162	12342
928.267	12452
928.373	12951
928.479	12365
928.585	12121
928.69	12327
928.796	12292
928.901	12155
929.007	12049
929.112	12209
929.218	12171
929.323	12068
929.428	12057
929.533	12228
929.638	11923
929.743	11988
929.848	12068
929.953	12057
930.058	11885
930.163	11718
930.267	11764
930.372	11863
930.477	11642
930.581	11927
930.685	11771
930.79	11505
930.894	11600
930.998	11642
931.103	11764
931.207	11402
931.311	11246
931.415	11220
931.519	10942
931.623	11018
