Data from test_V78500241_2499.txt Node
Date: Fri Mar 25 15:59:06 CST 2022
User: usil
Spectrometer: V785-0024
Trigger mode: 0
Integration Time (sec): 4.000000E-1
Scans to average: 1
Nonlinearity correction enabled: false
Boxcar width: 0
Storing dark spectrum: false
XAxis mode: Wavelengths
Number of Pixels in Spectrum: 1024
>>>>>Begin Spectral Data<<<<<
801.071	28561
801.214	28443
801.356	28226
801.499	28215
801.641	28101
801.783	28059
801.926	28074
802.068	28048
802.211	28105
802.353	27979
802.496	27911
802.638	27797
802.78	27766
802.923	27812
803.065	27641
803.208	27732
803.35	27747
803.492	27865
803.635	28074
803.777	27812
803.919	28013
804.061	28459
804.204	27987
804.346	27884
804.488	27914
804.63	27968
804.773	27983
804.915	28002
805.057	28188
805.199	27979
805.341	28207
805.483	28200
805.626	28173
805.768	28162
805.91	28204
806.052	28143
806.194	28070
806.336	28261
806.478	28082
806.62	28204
806.762	28257
806.904	28447
807.046	28679
807.188	28459
807.33	28687
807.472	28592
807.614	28580
807.756	28588
807.898	28417
808.04	28443
808.182	28401
808.324	28557
808.465	28508
808.607	28569
808.749	28801
808.891	28847
809.033	28942
809.174	28953
809.316	28771
809.458	28835
809.6	28759
809.741	28896
809.883	28858
810.025	29189
810.166	29193
810.308	29242
810.45	29117
810.591	29041
810.733	28809
810.875	28828
811.016	28847
811.158	28713
811.299	28953
811.441	29022
811.582	29010
811.724	28771
811.865	28923
812.007	28729
812.148	28847
812.29	28839
812.431	29083
812.573	29174
812.714	29277
812.855	29524
812.997	29402
813.138	29638
813.279	29436
813.421	29349
813.562	29284
813.703	29181
813.845	29022
813.986	28869
814.127	28649
814.268	28687
814.41	28561
814.551	28470
814.692	28641
814.833	28447
814.974	28447
815.115	28557
815.256	28421
815.397	28360
815.539	28421
815.68	28363
815.821	28363
815.962	28242
816.103	28242
816.244	28097
816.385	28230
816.526	28166
816.666	27895
816.807	27850
816.948	27979
817.089	27945
817.23	27816
817.371	27827
817.512	27762
817.653	27861
817.793	27899
817.934	27827
818.075	27789
818.216	27857
818.356	27781
818.497	27785
818.638	27656
818.778	27431
818.919	27709
819.06	27564
819.2	27747
819.341	27823
819.481	27903
819.622	28017
819.762	28287
819.903	28086
820.043	28070
820.184	28036
820.324	27831
820.465	28090
820.605	28002
820.746	28055
820.886	27812
821.026	27838
821.167	27850
821.307	27930
821.447	27819
821.588	27835
821.728	27583
821.868	27427
822.008	27386
822.149	27329
822.289	27329
822.429	27005
822.569	27070
822.709	27131
822.849	26861
822.99	26807
823.13	26804
823.27	26750
823.41	26667
823.55	26598
823.69	26598
823.83	26667
823.97	26606
824.11	26499
824.25	26453
824.389	26461
824.529	26655
824.669	26518
824.809	26564
824.949	26629
825.089	26431
825.228	26530
825.368	26412
825.508	26415
825.648	26446
825.787	26301
825.927	26381
826.067	26355
826.206	26465
826.346	26556
826.485	26377
826.625	26305
826.765	26499
826.904	26366
827.044	26187
827.183	26107
827.323	26115
827.462	26138
827.601	26115
827.741	26054
827.88	26062
828.02	26096
828.159	25982
828.298	26024
828.437	26058
828.577	26050
828.716	26107
828.855	26058
828.994	25887
829.134	25841
829.273	25731
829.412	25700
829.551	25696
829.69	25841
829.829	25548
829.968	25860
830.107	25864
830.246	25769
830.385	25818
830.524	25677
830.663	25567
830.802	25388
830.941	25346
831.08	25190
831.219	25457
831.357	25537
831.496	25590
831.635	25278
831.774	25324
831.913	25346
832.051	25042
832.19	25221
832.329	25225
832.467	25091
832.606	24947
832.744	25034
832.883	25126
833.022	24996
833.16	25031
833.299	25069
833.437	25046
833.576	25034
833.714	25046
833.852	25179
833.991	25164
834.129	25015
834.267	25133
834.406	25107
834.544	25103
834.682	25160
834.821	25145
834.959	25225
835.097	25103
835.235	25118
835.373	25034
835.511	25065
835.65	25027
835.788	24981
835.926	24954
836.064	24669
836.202	24669
836.34	24852
836.478	25072
836.615	24802
836.753	24901
836.891	24909
837.029	24859
837.167	24913
837.305	24920
837.443	24734
837.58	24817
837.718	24738
837.856	24749
837.993	24901
838.131	24700
838.269	24547
838.406	24669
838.544	24700
838.681	24471
838.819	24304
838.956	24239
839.094	24296
839.231	24209
839.369	24296
839.506	24593
839.643	24452
839.781	24228
839.918	24106
840.055	24262
840.193	24190
840.33	24125
840.467	24060
840.604	24148
840.742	24391
840.879	24098
841.016	24038
841.153	24068
841.29	24133
841.427	24098
841.564	24136
841.701	24224
841.838	23954
841.975	24030
842.112	24121
842.249	23828
842.385	23817
842.522	24136
842.659	23935
842.796	23882
842.933	23897
843.069	23771
843.206	23767
843.343	23942
843.479	23912
843.616	23889
843.752	23604
843.889	23714
844.025	23748
844.162	23608
844.298	23767
844.435	23630
844.571	23611
844.708	23687
844.844	23859
844.98	23729
845.117	23680
845.253	23619
845.389	23539
845.525	23535
845.661	23410
845.798	23383
845.934	23543
846.07	23341
846.206	23402
846.342	23539
846.478	23440
846.614	23216
846.75	23003
846.886	23094
847.022	23178
847.158	23155
847.294	23022
847.429	23216
847.565	23022
847.701	23330
847.837	22858
847.972	22828
848.108	22850
848.244	22957
848.379	22721
848.515	22656
848.65	22550
848.786	22759
848.921	22672
849.057	22736
849.192	22778
849.328	22733
849.463	22763
849.598	22554
849.734	22596
849.869	22535
850.004	22325
850.14	22542
850.275	22455
850.41	22481
850.545	22379
850.68	22531
850.815	22523
850.95	22432
851.085	22599
851.22	22592
851.355	22569
851.49	22409
851.625	22352
851.76	22436
851.895	22322
852.03	22341
852.165	22580
852.299	22500
852.434	22478
852.569	22478
852.703	22603
852.838	22455
852.973	22550
853.107	22641
853.242	22409
853.376	22348
853.511	22173
853.645	22261
853.78	22371
853.914	22291
854.048	22219
854.183	22200
854.317	22287
854.451	22508
854.585	22234
854.72	22348
854.854	22417
854.988	22143
855.122	22276
855.256	22207
855.39	22318
855.524	22421
855.658	22367
855.792	22185
855.926	22230
856.06	22188
856.194	22375
856.327	22215
856.461	22242
856.595	22325
856.729	22280
856.862	22390
856.996	22310
857.13	22192
857.263	22375
857.397	22272
857.53	22348
857.664	22306
857.797	22318
857.931	22428
858.064	22215
858.197	22413
858.331	22265
858.464	22188
858.597	22154
858.731	22204
858.864	22280
858.997	22207
859.13	22291
859.263	22257
859.396	22337
859.529	22219
859.662	22268
859.795	22299
859.928	22322
860.061	22485
860.194	22402
860.327	22413
860.46	22246
860.592	22390
860.725	22504
860.858	22500
860.99	22318
861.123	22268
861.256	22181
861.388	22268
861.521	23079
861.653	22154
861.786	22105
861.918	22070
862.05	22169
862.183	22173
862.315	22200
862.447	22356
862.58	22196
862.712	22021
862.844	21953
862.976	21998
863.108	22169
863.24	22424
863.372	21926
863.504	22025
863.636	21964
863.768	22044
863.9	21945
864.032	21842
864.164	22017
864.296	21994
864.428	22105
864.559	22044
864.691	22040
864.823	21937
864.954	22010
865.086	21991
865.217	21941
865.349	21854
865.48	21717
865.612	21994
865.743	21949
865.875	21823
866.006	21861
866.137	21888
866.269	21892
866.4	21827
866.531	21713
866.662	21739
866.793	21823
866.924	21949
867.055	21724
867.186	21827
867.317	21717
867.448	21698
867.579	21812
867.71	21819
867.841	21686
867.972	21770
868.103	21728
868.233	21720
868.364	21759
868.495	21975
868.625	22082
868.756	22055
868.886	21949
869.017	22074
869.147	22158
869.278	22154
869.408	22029
869.539	22131
869.669	22150
869.799	22101
869.929	22139
870.06	22154
870.19	22382
870.32	22276
870.45	22379
870.58	22413
870.71	22497
870.84	22607
870.97	22428
871.1	22398
871.23	22626
871.36	22733
871.489	22428
871.619	22584
871.749	22577
871.879	22740
872.008	22626
872.138	22752
872.267	22653
872.397	22512
872.526	22421
872.656	22504
872.785	22493
872.915	22634
873.044	22698
873.173	22683
873.303	22717
873.432	22733
873.561	22767
873.69	22668
873.819	22687
873.948	22812
874.077	22584
874.206	22596
874.335	22611
874.464	22729
874.593	22904
874.722	22740
874.851	23014
874.979	22786
875.108	22927
875.237	22889
875.365	22854
875.494	22748
875.623	22915
875.751	22752
875.88	22801
876.008	23037
876.136	23064
876.265	23242
876.393	23372
876.521	23395
876.65	23303
876.778	23254
876.906	23273
877.034	23200
877.162	23250
877.29	23265
877.418	23162
877.546	23166
877.674	23273
877.802	23155
877.93	23204
878.058	23052
878.185	23018
878.313	23284
878.441	23235
878.568	23029
878.696	23292
878.824	23258
878.951	23330
879.079	23406
879.206	23452
879.333	23417
879.461	23223
879.588	23318
879.715	23398
879.842	23558
879.97	23143
880.097	23006
880.224	23022
880.351	23067
880.478	23006
880.605	22984
880.732	23029
880.859	23231
880.986	22976
881.112	23128
881.239	22927
881.366	22698
881.493	22713
881.619	22561
881.746	22596
881.872	22637
881.999	22611
882.125	22557
882.252	22660
882.378	22592
882.505	22641
882.631	22508
882.757	22253
882.883	22318
883.01	22253
883.136	22230
883.262	22143
883.388	22082
883.514	22310
883.64	22223
883.766	22143
883.892	22074
884.018	21998
884.143	22249
884.269	22337
884.395	21994
884.52	21865
884.646	21895
884.772	21884
884.897	21686
885.023	21975
885.148	21987
885.274	21960
885.399	21994
885.524	21937
885.65	21846
885.775	21915
885.9	21922
886.025	22070
886.15	21903
886.275	21835
886.4	21854
886.525	21892
886.65	21857
886.775	21660
886.9	22025
887.025	21953
887.149	21835
887.274	21743
887.399	21724
887.523	21690
887.648	21682
887.773	21583
887.897	21816
888.021	21739
888.146	21568
888.27	21720
888.395	21797
888.519	21671
888.643	21717
888.767	21728
888.891	21538
889.015	21511
889.139	21561
889.263	21515
889.387	21622
889.511	21739
889.635	21610
889.759	21370
889.883	21466
890.006	21454
890.13	21580
890.254	21443
890.377	21382
890.501	21336
890.624	21112
890.748	21287
890.871	21123
890.995	20956
891.118	20975
891.241	21096
891.364	20975
891.488	20982
891.611	21108
891.734	20967
891.857	21062
891.98	21047
892.103	21119
892.226	20963
892.349	20952
892.471	20785
892.594	20986
892.717	20967
892.839	20925
892.962	20883
893.085	20883
893.207	20929
893.33	20773
893.452	20636
893.575	20910
893.697	20918
893.819	21138
893.941	21188
894.064	21001
894.186	20864
894.308	20807
894.43	21066
894.552	21058
894.674	20963
894.796	20800
894.918	20883
895.04	20876
895.161	20918
895.283	20921
895.405	20845
895.526	21047
895.648	20914
895.769	20971
895.891	20960
896.012	20963
896.134	20937
896.255	20998
896.376	20853
896.498	20929
896.619	20994
896.74	20929
896.861	20952
896.982	21184
897.103	21321
897.224	21096
897.345	21051
897.466	21051
897.587	21093
897.708	21180
897.828	21074
897.949	21123
898.07	21001
898.19	21028
898.311	21131
898.431	21085
898.552	21058
898.672	21116
898.792	21085
898.913	21070
899.033	20971
899.153	20853
899.273	20807
899.393	20788
899.513	20868
899.633	20781
899.753	20815
899.873	20815
899.993	20861
900.113	20625
900.232	20819
900.352	20716
900.472	20731
900.591	20560
900.711	20632
900.83	20518
900.95	20739
901.069	20727
901.189	20495
901.308	20240
901.427	20134
901.546	20275
901.665	20237
901.784	20153
901.904	19993
902.023	20016
902.141	19757
902.26	19582
902.379	19795
902.498	19594
902.617	19655
902.735	19742
902.854	19719
902.973	19483
903.091	19388
903.21	19335
903.328	19343
903.446	19293
903.565	19160
903.683	19088
903.801	19038
903.919	19080
904.038	19042
904.156	18958
904.274	18920
904.392	18829
904.51	18882
904.627	18859
904.745	18890
904.863	19004
904.981	18677
905.098	18479
905.216	18547
905.334	18627
905.451	18544
905.569	18528
905.686	18707
905.803	18498
905.921	18361
906.038	18437
906.155	18296
906.272	18338
906.389	18155
906.506	18194
906.623	18057
906.74	18121
906.857	17901
906.974	17946
907.091	18091
907.208	18228
907.324	18041
907.441	17999
907.557	17836
907.674	17775
907.79	17653
907.907	17703
908.023	17817
908.139	17855
908.256	17718
908.372	17646
908.488	17722
908.604	17600
908.72	17512
908.836	17592
908.952	17501
909.068	17509
909.184	17562
909.3	17448
909.415	17551
909.531	17440
909.647	17269
909.762	17254
909.878	17109
909.993	17174
910.108	17113
910.224	17174
910.339	17162
910.454	17113
910.57	17025
910.685	16881
910.8	17193
910.915	17220
911.03	16965
911.145	16877
911.259	16778
911.374	16812
911.489	16630
911.604	16710
911.718	16596
911.833	16554
911.947	16344
912.062	16394
912.176	16603
912.291	16470
912.405	16531
912.519	16733
912.633	16736
912.748	16512
912.862	16443
912.976	16325
913.09	16246
913.204	16204
913.318	16440
913.431	16398
913.545	16371
913.659	16295
913.772	16325
913.886	16192
914	16128
914.113	16234
914.226	16272
914.34	16036
914.453	16086
914.566	16173
914.68	16002
914.793	16013
914.906	15854
915.019	15686
915.132	15580
915.245	15557
915.358	15766
915.47	15732
915.583	15778
915.696	15766
915.809	15785
915.921	15994
916.034	15679
916.146	15625
916.259	15576
916.371	15682
916.483	15701
916.595	15660
916.708	15507
916.82	15572
916.932	15561
917.044	15519
917.156	15458
917.268	15378
917.38	15435
917.491	15370
917.603	15416
917.715	15420
917.826	15428
917.938	15336
918.049	15195
918.161	15340
918.272	15336
918.384	15393
918.495	15363
918.606	15169
918.717	15127
918.828	15176
918.939	15104
919.05	14971
919.161	15081
919.272	14902
919.383	14895
919.494	15123
919.604	15294
919.715	15017
919.826	14929
919.936	15070
920.047	15043
920.157	15055
920.267	15226
920.378	15100
920.488	15028
920.598	15233
920.708	15363
920.818	15062
920.928	15195
921.038	15351
921.148	15313
921.258	14971
921.368	14861
921.477	14838
921.587	14743
921.697	14667
921.806	14849
921.916	14617
922.025	14434
922.134	14431
922.244	14370
922.353	14431
922.462	14301
922.571	14309
922.68	14081
922.789	14161
922.898	13993
923.007	13875
923.116	14138
923.224	13932
923.333	13989
923.442	13887
923.55	13906
923.659	14001
923.767	13932
923.876	13772
923.984	13921
924.092	13761
924.201	13814
924.309	13822
924.417	13750
924.525	13670
924.633	13662
924.741	14533
924.849	13521
924.956	13685
925.064	13609
925.172	13476
925.279	13373
925.387	13468
925.494	13430
925.602	13457
925.709	13499
925.816	13415
925.924	13403
926.031	13529
926.138	13430
926.245	13400
926.352	13331
926.459	13388
926.566	13480
926.673	13255
926.779	13156
926.886	13145
926.993	13027
927.099	13008
927.206	12920
927.312	12932
927.419	12909
927.525	13050
927.631	13019
927.737	12825
927.843	12867
927.95	12711
928.056	12833
928.162	12791
928.267	12810
928.373	13499
928.479	12863
928.585	12597
928.69	12757
928.796	12798
928.901	12684
929.007	12509
929.112	12639
929.218	12662
929.323	12574
929.428	12429
929.533	12662
929.638	12433
929.743	12445
929.848	12555
929.953	12471
930.058	12426
930.163	12216
930.267	12201
930.372	12410
930.477	12110
930.581	12395
930.685	12079
930.79	12110
930.894	12125
930.998	12068
931.103	12140
931.207	11760
931.311	11813
931.415	11642
931.519	11452
931.623	11391
