Data from test_V78500241_2152.txt Node
Date: Fri Mar 25 15:56:42 CST 2022
User: usil
Spectrometer: V785-0024
Trigger mode: 0
Integration Time (sec): 4.000000E-1
Scans to average: 1
Nonlinearity correction enabled: false
Boxcar width: 0
Storing dark spectrum: false
XAxis mode: Wavelengths
Number of Pixels in Spectrum: 1024
>>>>>Begin Spectral Data<<<<<
801.071	28809
801.214	28664
801.356	28588
801.499	28550
801.641	28394
801.783	28344
801.926	28424
802.068	28432
802.211	28382
802.353	28360
802.496	28177
802.638	27991
802.78	28097
802.923	28147
803.065	28131
803.208	27991
803.35	28074
803.492	28310
803.635	28329
803.777	28257
803.919	28405
804.061	28615
804.204	28352
804.346	28257
804.488	28242
804.63	28421
804.773	28375
804.915	28367
805.057	28512
805.199	28333
805.341	28462
805.483	28462
805.626	28550
805.768	28287
805.91	28470
806.052	28424
806.194	28417
806.336	28641
806.478	28398
806.62	28508
806.762	28561
806.904	28672
807.046	28919
807.188	28869
807.33	28908
807.472	28987
807.614	28938
807.756	28984
807.898	28831
808.04	28645
808.182	28782
808.324	28790
808.465	28782
808.607	28999
808.749	29197
808.891	29288
809.033	29345
809.174	29231
809.316	29140
809.458	29083
809.6	29022
809.741	29185
809.883	29273
810.025	29337
810.166	29353
810.308	29288
810.45	29280
810.591	29391
810.733	29330
810.875	29105
811.016	29155
811.158	29193
811.299	29261
811.441	29299
811.582	29353
811.724	29223
811.865	29208
812.007	29223
812.148	29288
812.29	29208
812.431	29277
812.573	29520
812.714	29539
812.855	29649
812.997	29817
813.138	29893
813.279	29786
813.421	29767
813.562	29718
813.703	29467
813.845	29356
813.986	29178
814.127	29010
814.268	28854
814.41	28908
814.551	28843
814.692	29014
814.833	28908
814.974	28888
815.115	28862
815.256	28824
815.397	28774
815.539	28710
815.68	28752
815.821	28599
815.962	28675
816.103	28656
816.244	28592
816.385	28424
816.526	28538
816.666	28261
816.807	28135
816.948	28295
817.089	28363
817.23	28284
817.371	28128
817.512	28215
817.653	28135
817.793	28162
817.934	28093
818.075	28204
818.216	28268
818.356	28131
818.497	28013
818.638	27876
818.778	27869
818.919	27903
819.06	28010
819.2	28025
819.341	28181
819.481	28219
819.622	28360
819.762	28508
819.903	28592
820.043	28413
820.184	28299
820.324	28398
820.465	28519
820.605	28375
820.746	28295
820.886	28150
821.026	28371
821.167	28257
821.307	28341
821.447	28322
821.588	28120
821.728	28021
821.868	27819
822.008	27720
822.149	27720
822.289	27823
822.429	27268
822.569	27222
822.709	27542
822.849	27161
822.99	27131
823.13	27199
823.27	27222
823.41	27058
823.55	26883
823.69	27028
823.83	26952
823.97	26986
824.11	26838
824.25	26872
824.389	26781
824.529	27058
824.669	26887
824.809	26921
824.949	26940
825.089	26921
825.228	26868
825.368	26804
825.508	26522
825.648	26720
825.787	26838
825.927	26838
826.067	26693
826.206	26609
826.346	26769
826.485	26762
826.625	26731
826.765	26864
826.904	26781
827.044	26659
827.183	26393
827.323	26450
827.462	26476
827.601	26374
827.741	26442
827.88	26431
828.02	26286
828.159	26526
828.298	26469
828.437	26412
828.577	26457
828.716	26568
828.855	26374
828.994	26107
829.134	26134
829.273	26202
829.412	26142
829.551	25982
829.69	26107
829.829	26043
829.968	26111
830.107	26286
830.246	26199
830.385	26122
830.524	26092
830.663	25959
830.802	25795
830.941	25776
831.08	25822
831.219	25868
831.357	25811
831.496	25864
831.635	25746
831.774	25651
831.913	25563
832.051	25453
832.19	25544
832.329	25567
832.467	25297
832.606	25396
832.744	25403
832.883	25426
833.022	25213
833.16	25438
833.299	25297
833.437	25411
833.576	25335
833.714	25392
833.852	25476
833.991	25571
834.129	25521
834.267	25601
834.406	25491
834.544	25533
834.682	25483
834.821	25449
834.959	25521
835.097	25434
835.235	25434
835.373	25567
835.511	25415
835.65	25293
835.788	25259
835.926	25160
836.064	25187
836.202	25160
836.34	25415
836.478	25377
836.615	25297
836.753	25225
836.891	25236
837.029	25331
837.167	25156
837.305	25164
837.443	25228
837.58	25133
837.718	25126
837.856	25103
837.993	25008
838.131	25050
838.269	25053
838.406	24932
838.544	24871
838.681	24798
838.819	24791
838.956	24566
839.094	24502
839.231	24578
839.369	24806
839.506	24924
839.643	24768
839.781	24532
839.918	24521
840.055	24551
840.193	24456
840.33	24422
840.467	24483
840.604	24471
840.742	24734
840.879	24395
841.016	24403
841.153	24334
841.29	24627
841.427	24384
841.564	24471
841.701	24342
841.838	24494
841.975	24292
842.112	24475
842.249	24277
842.385	24171
842.522	24475
842.659	24254
842.796	24220
842.933	24243
843.069	24171
843.206	24232
843.343	24095
843.479	24308
843.616	24296
843.752	24007
843.889	23973
844.025	24133
844.162	24034
844.298	24102
844.435	23984
844.571	24011
844.708	24095
844.844	24144
844.98	24095
845.117	24095
845.253	23939
845.389	23733
845.525	23874
845.661	23737
845.798	23733
845.934	23775
846.07	23657
846.206	23870
846.342	23870
846.478	23805
846.614	23478
846.75	23471
846.886	23463
847.022	23592
847.158	23417
847.294	23307
847.429	23562
847.565	23353
847.701	23687
847.837	23258
847.972	23014
848.108	23269
848.244	23166
848.379	23029
848.515	23052
848.65	23003
848.786	22919
848.921	23037
849.057	23140
849.192	23109
849.328	23022
849.463	23083
849.598	23010
849.734	22854
849.869	22923
850.004	22854
850.14	22748
850.275	22774
850.41	22679
850.545	22763
850.68	22641
850.815	22801
850.95	22725
851.085	23033
851.22	22942
851.355	22748
851.49	22717
851.625	22763
851.76	22748
851.895	22615
852.03	22660
852.165	22755
852.299	22858
852.434	22835
852.569	22744
852.703	22862
852.838	22793
852.973	22957
853.107	22866
853.242	22824
853.376	22546
853.511	22318
853.645	22641
853.78	22824
853.914	22664
854.048	22485
854.183	22569
854.317	22565
854.451	22847
854.585	22588
854.72	22557
854.854	22717
854.988	22615
855.122	22687
855.256	22466
855.39	22512
855.524	22660
855.658	22668
855.792	22573
855.926	22694
856.06	22672
856.194	22679
856.327	22599
856.461	22702
856.595	22622
856.729	22554
856.862	22694
856.996	22554
857.13	22691
857.263	22748
857.397	22721
857.53	22626
857.664	22698
857.797	22702
857.931	22812
858.064	22710
858.197	22634
858.331	22569
858.464	22698
858.597	22554
858.731	22577
858.864	22550
858.997	22653
859.13	22649
859.263	22546
859.396	22729
859.529	22637
859.662	22542
859.795	22428
859.928	22630
860.061	22797
860.194	22812
860.327	22683
860.46	22683
860.592	22797
860.725	22835
860.858	22839
860.99	22592
861.123	22580
861.256	22466
861.388	22531
861.521	23326
861.653	22527
861.786	22318
861.918	22398
862.05	22516
862.183	22424
862.315	22447
862.447	22535
862.58	22516
862.712	22341
862.844	22272
862.976	22318
863.108	22371
863.24	22797
863.372	22230
863.504	22280
863.636	22398
863.768	22242
863.9	22246
864.032	22204
864.164	22375
864.296	22306
864.428	22344
864.559	22462
864.691	22280
864.823	22337
864.954	22333
865.086	22257
865.217	22185
865.349	22097
865.48	22188
865.612	22261
865.743	22322
865.875	22367
866.006	22101
866.137	22253
866.269	22139
866.4	22200
866.531	22139
866.662	22147
866.793	22226
866.924	22150
867.055	22211
867.186	22109
867.317	22010
867.448	21964
867.579	22090
867.71	22093
867.841	22173
867.972	22158
868.103	22032
868.233	22150
868.364	22093
868.495	22131
868.625	22299
868.756	22478
868.886	22337
869.017	22356
869.147	22542
869.278	22527
869.408	22428
869.539	22276
869.669	22318
869.799	22341
869.929	22535
870.06	22394
870.19	22653
870.32	22634
870.45	22649
870.58	22824
870.71	22839
870.84	22828
870.97	22736
871.1	22713
871.23	22938
871.36	22812
871.489	22824
871.619	22934
871.749	22900
871.879	22949
872.008	23033
872.138	22972
872.267	22995
872.397	22877
872.526	22877
872.656	22721
872.785	22889
872.915	22987
873.044	23102
873.173	22938
873.303	23052
873.432	23132
873.561	23159
873.69	22984
873.819	22934
873.948	22995
874.077	22904
874.206	22927
874.335	22889
874.464	23060
874.593	23311
874.722	23261
874.851	23258
874.979	23250
875.108	23227
875.237	23064
875.365	23166
875.494	23102
875.623	23261
875.751	23159
875.88	23181
876.008	23364
876.136	23356
876.265	23680
876.393	23581
876.521	23638
876.65	23707
876.778	23737
876.906	23615
877.034	23547
877.162	23615
877.29	23471
877.418	23627
877.546	23566
877.674	23573
877.802	23604
877.93	23581
878.058	23493
878.185	23512
878.313	23547
878.441	23554
878.568	23299
878.696	23497
878.824	23634
878.951	23767
879.079	23687
879.206	23889
879.333	23703
879.461	23505
879.588	23687
879.715	23665
879.842	23657
879.97	23623
880.097	23425
880.224	23364
880.351	23379
880.478	23303
880.605	23292
880.732	23417
880.859	23615
880.986	23292
881.112	23220
881.239	23227
881.366	23064
881.493	23010
881.619	23029
881.746	22953
881.872	22915
881.999	22835
882.125	22923
882.252	22949
882.378	22934
882.505	22972
882.631	22721
882.757	22634
882.883	22820
883.01	22554
883.136	22694
883.262	22470
883.388	22363
883.514	22603
883.64	22634
883.766	22577
883.892	22379
884.018	22432
884.143	22607
884.269	22649
884.395	22405
884.52	22131
884.646	22143
884.772	22048
884.897	22120
885.023	22322
885.148	22386
885.274	22508
885.399	22242
885.524	22215
885.65	22291
885.775	22276
885.9	22154
886.025	22379
886.15	22272
886.275	22234
886.4	22086
886.525	22291
886.65	22150
886.775	22265
886.9	22299
887.025	22375
887.149	22318
887.274	22116
887.399	21979
887.523	22017
887.648	21892
887.773	21819
887.897	22063
888.021	22021
888.146	21979
888.27	22109
888.395	22036
888.519	22025
888.643	22025
888.767	21972
888.891	21876
889.015	21720
889.139	21732
889.263	21766
889.387	21778
889.511	21922
889.635	21831
889.759	21789
889.883	21694
890.006	21774
890.13	21884
890.254	21709
890.377	21663
890.501	21572
890.624	21469
890.748	21561
890.871	21374
890.995	21302
891.118	21275
891.241	21294
891.364	21462
891.488	21431
891.611	21431
891.734	21367
891.857	21420
891.98	21340
892.103	21321
892.226	21359
892.349	21264
892.471	21089
892.594	21150
892.717	21249
892.839	21173
892.962	21249
893.085	21237
893.207	21325
893.33	21077
893.452	21169
893.575	21268
893.697	21211
893.819	21389
893.941	21332
894.064	21359
894.186	21138
894.308	21135
894.43	21241
894.552	21462
894.674	21317
894.796	21043
894.918	21256
895.04	21089
895.161	21192
895.283	21283
895.405	21131
895.526	21218
895.648	21165
895.769	21233
895.891	21188
896.012	21291
896.134	21169
896.255	21165
896.376	21020
896.498	21237
896.619	21207
896.74	21329
896.861	21249
896.982	21595
897.103	21618
897.224	21401
897.345	21401
897.466	21370
897.587	21329
897.708	21507
897.828	21431
897.949	21397
898.07	21317
898.19	21294
898.311	21466
898.431	21287
898.552	21401
898.672	21428
898.792	21507
898.913	21450
899.033	21199
899.153	21241
899.273	21085
899.393	21123
899.513	21184
899.633	21192
899.753	21127
899.873	21116
899.993	21211
900.113	21024
900.232	21207
900.352	21135
900.472	20982
900.591	20826
900.711	20906
900.83	20746
900.95	21028
901.069	20956
901.189	20845
901.308	20587
901.427	20438
901.546	20343
901.665	20552
901.784	20465
901.904	20324
902.023	20237
902.141	20054
902.26	20005
902.379	20054
902.498	20027
902.617	19932
902.735	19925
902.854	19784
902.973	19822
903.091	19723
903.21	19616
903.328	19590
903.446	19552
903.565	19293
903.683	19430
903.801	19407
903.919	19491
904.038	19240
904.156	19183
904.274	19194
904.392	19225
904.51	19133
904.627	19133
904.745	19179
904.863	19190
904.981	18962
905.098	18844
905.216	18833
905.334	18897
905.451	18833
905.569	18829
905.686	18939
905.803	18783
905.921	18631
906.038	18631
906.155	18593
906.272	18486
906.389	18604
906.506	18388
906.623	18407
906.74	18365
906.857	18201
906.974	18182
907.091	18289
907.208	18448
907.324	18361
907.441	18152
907.557	18015
907.674	18022
907.79	17992
907.907	18102
908.023	18083
908.139	18064
908.256	18034
908.372	17901
908.488	17836
908.604	17824
908.72	17653
908.836	17805
908.952	17627
909.068	17733
909.184	17817
909.3	17722
909.415	17767
909.531	17863
909.647	17551
909.762	17505
909.878	17383
909.993	17516
910.108	17398
910.224	17436
910.339	17471
910.454	17322
910.57	17318
910.685	17128
910.8	17596
910.915	17482
911.03	17242
911.145	17071
911.259	16984
911.374	17105
911.489	16900
911.604	16911
911.718	16801
911.833	16824
911.947	16687
912.062	16626
912.176	16771
912.291	16786
912.405	16843
912.519	16949
912.633	16957
912.748	16805
912.862	16809
912.976	16611
913.09	16440
913.204	16546
913.318	16561
913.431	16691
913.545	16694
913.659	16569
913.772	16470
913.886	16417
914	16329
914.113	16474
914.226	16493
914.34	16466
914.453	16284
914.566	16360
914.68	16318
914.793	16219
914.906	16093
915.019	15968
915.132	15857
915.245	15953
915.358	15930
915.47	15998
915.583	15937
915.696	16051
915.809	16067
915.921	15991
916.034	15857
916.146	15850
916.259	15724
916.371	15953
916.483	15926
916.595	15819
916.708	15835
916.82	15804
916.932	15739
917.044	15679
917.156	15652
917.268	15504
917.38	15584
917.491	15515
917.603	15603
917.715	15538
917.826	15694
917.938	15477
918.049	15477
918.161	15450
918.272	15549
918.384	15599
918.495	15447
918.606	15260
918.717	15313
918.828	15367
918.939	15424
919.05	15214
919.161	15249
919.272	15051
919.383	15165
919.494	15325
919.604	15591
919.715	15359
919.826	15131
919.936	15275
920.047	15329
920.157	15310
920.267	15496
920.378	15351
920.488	15260
920.598	15363
920.708	15492
920.818	15450
920.928	15332
921.038	15538
921.148	15405
921.258	15188
921.368	15085
921.477	14948
921.587	14963
921.697	14960
921.806	14941
921.916	14792
922.025	14674
922.134	14670
922.244	14583
922.353	14720
922.462	14473
922.571	14514
922.68	14275
922.789	14248
922.898	14252
923.007	14195
923.116	14252
923.224	14278
923.333	14309
923.442	14119
923.55	13986
923.659	14111
923.767	14172
923.876	14077
923.984	14050
924.092	13955
924.201	13997
924.309	13989
924.417	13963
924.525	13936
924.633	13860
924.741	14697
924.849	13681
924.956	13799
925.064	13662
925.172	13563
925.279	13575
925.387	13712
925.494	13658
925.602	13693
925.709	13662
925.816	13438
925.924	13601
926.031	13613
926.138	13677
926.245	13719
926.352	13510
926.459	13578
926.566	13601
926.673	13453
926.779	13434
926.886	13308
926.993	13263
927.099	13236
927.206	13126
927.312	13091
927.419	13251
927.525	13198
927.631	13145
927.737	13080
927.843	13008
927.95	12951
928.056	12962
928.162	13061
928.267	13031
928.373	13529
928.479	13023
928.585	12802
928.69	12882
928.796	12943
928.901	12875
929.007	12711
929.112	12825
929.218	12890
929.323	12745
929.428	12654
929.533	12837
929.638	12589
929.743	12578
929.848	12688
929.953	12673
930.058	12471
930.163	12426
930.267	12342
930.372	12536
930.477	12277
930.581	12589
930.685	12357
930.79	12243
930.894	12228
930.998	12117
931.103	12342
931.207	11973
931.311	11923
931.415	11897
931.519	11680
931.623	11577
