Data from test_V78500241_1190.txt Node
Date: Fri Mar 25 15:50:02 CST 2022
User: usil
Spectrometer: V785-0024
Trigger mode: 0
Integration Time (sec): 4.000000E-1
Scans to average: 1
Nonlinearity correction enabled: false
Boxcar width: 0
Storing dark spectrum: false
XAxis mode: Wavelengths
Number of Pixels in Spectrum: 1024
>>>>>Begin Spectral Data<<<<<
801.071	28580
801.214	28466
801.356	28181
801.499	28120
801.641	28200
801.783	28006
801.926	28177
802.068	27972
802.211	28002
802.353	28090
802.496	27720
802.638	27751
802.78	27739
802.923	27827
803.065	27766
803.208	27682
803.35	27739
803.492	27747
803.635	27934
803.777	27926
803.919	27850
804.061	28223
804.204	28112
804.346	27979
804.488	28029
804.63	27975
804.773	27797
804.915	28017
805.057	28166
805.199	28032
805.341	28120
805.483	28158
805.626	28219
805.768	28207
805.91	28234
806.052	28356
806.194	28226
806.336	28497
806.478	28188
806.62	28249
806.762	28284
806.904	28615
807.046	28774
807.188	28516
807.33	28672
807.472	28702
807.614	28596
807.756	28603
807.898	28508
808.04	28386
808.182	28375
808.324	28725
808.465	28516
808.607	28759
808.749	28835
808.891	29041
809.033	29128
809.174	28866
809.316	28957
809.458	28942
809.6	28892
809.741	29025
809.883	29086
810.025	29204
810.166	29147
810.308	29083
810.45	29086
810.591	29117
810.733	28915
810.875	28908
811.016	28881
811.158	28805
811.299	28976
811.441	29189
811.582	29086
811.724	28999
811.865	28881
812.007	28888
812.148	28877
812.29	29003
812.431	29132
812.573	29277
812.714	29440
812.855	29379
812.997	29421
813.138	29649
813.279	29703
813.421	29459
813.562	29395
813.703	29200
813.845	29117
813.986	28778
814.127	28713
814.268	28531
814.41	28733
814.551	28542
814.692	28713
814.833	28554
814.974	28679
815.115	28618
815.256	28470
815.397	28451
815.539	28565
815.68	28466
815.821	28348
815.962	28401
816.103	28363
816.244	28276
816.385	28242
816.526	28249
816.666	28051
816.807	27949
816.948	27956
817.089	27903
817.23	28010
817.371	28010
817.512	28006
817.653	27827
817.793	27876
817.934	27953
818.075	27949
818.216	27831
818.356	27861
818.497	27819
818.638	27599
818.778	27743
818.919	27686
819.06	27812
819.2	27728
819.341	28093
819.481	27797
819.622	28162
819.762	28158
819.903	28143
820.043	28070
820.184	28036
820.324	28017
820.465	28215
820.605	28040
820.746	27937
820.886	27869
821.026	28143
821.167	28139
821.307	28067
821.447	27922
821.588	27869
821.728	27686
821.868	27580
822.008	27450
822.149	27458
822.289	27389
822.429	27256
822.569	27116
822.709	27104
822.849	26998
822.99	26910
823.13	26834
823.27	26883
823.41	26697
823.55	26625
823.69	26823
823.83	26811
823.97	26667
824.11	26526
824.25	26476
824.389	26667
824.529	26659
824.669	26659
824.809	26568
824.949	26545
825.089	26575
825.228	26583
825.368	26492
825.508	26358
825.648	26511
825.787	26575
825.927	26507
826.067	26457
826.206	26442
826.346	26549
826.485	26495
826.625	26457
826.765	26583
826.904	26590
827.044	26138
827.183	26244
827.323	26050
827.462	26263
827.601	26206
827.741	26225
827.88	26221
828.02	26096
828.159	26100
828.298	26233
828.437	26244
828.577	26176
828.716	26081
828.855	26145
828.994	25932
829.134	25818
829.273	25879
829.412	25925
829.551	25913
829.69	25955
829.829	25784
829.968	25993
830.107	25890
830.246	26024
830.385	25772
830.524	25727
830.663	25597
830.802	25624
830.941	25430
831.08	25479
831.219	25597
831.357	25525
831.496	25769
831.635	25411
831.774	25339
831.913	25434
832.051	25263
832.19	25171
832.329	25289
832.467	25164
832.606	25133
832.744	25171
832.883	25183
833.022	25084
833.16	25168
833.299	25118
833.437	25145
833.576	25122
833.714	25217
833.852	25202
833.991	25027
834.129	25270
834.267	25274
834.406	25270
834.544	25259
834.682	25198
834.821	25072
834.959	25434
835.097	25259
835.235	25209
835.373	25198
835.511	25114
835.65	25004
835.788	24909
835.926	25019
836.064	24951
836.202	24848
836.34	24943
836.478	25206
836.615	24939
836.753	25004
836.891	25103
837.029	24996
837.167	24901
837.305	24916
837.443	24798
837.58	24890
837.718	24890
837.856	24878
837.993	24852
838.131	24867
838.269	24798
838.406	24878
838.544	24665
838.681	24604
838.819	24452
838.956	24224
839.094	24483
839.231	24361
839.369	24475
839.506	24726
839.643	24536
839.781	24342
839.918	24361
840.055	24319
840.193	24228
840.33	24064
840.467	24220
840.604	24327
840.742	24502
840.879	24072
841.016	24152
841.153	24159
841.29	24262
841.427	24140
841.564	24285
841.701	24209
841.838	24201
841.975	24140
842.112	24034
842.249	24018
842.385	23954
842.522	24232
842.659	24076
842.796	23920
842.933	24117
843.069	23973
843.206	24022
843.343	23954
843.479	23950
843.616	23973
843.752	23752
843.889	23870
844.025	23855
844.162	23676
844.298	23855
844.435	23783
844.571	23710
844.708	23691
844.844	23939
844.98	23939
845.117	23866
845.253	23619
845.389	23756
845.525	23551
845.661	23615
845.798	23573
845.934	23570
846.07	23429
846.206	23436
846.342	23676
846.478	23589
846.614	23200
846.75	23052
846.886	23178
847.022	23239
847.158	23303
847.294	23242
847.429	23174
847.565	23117
847.701	23398
847.837	22949
847.972	22843
848.108	22900
848.244	22961
848.379	22721
848.515	22771
848.65	22694
848.786	22778
848.921	22816
849.057	22919
849.192	22908
849.328	22763
849.463	22710
849.598	22679
849.734	22611
849.869	22694
850.004	22565
850.14	22557
850.275	22519
850.41	22508
850.545	22512
850.68	22421
850.815	22713
850.95	22542
851.085	22736
851.22	22611
851.355	22516
851.49	22607
851.625	22588
851.76	22504
851.895	22489
852.03	22462
852.165	22649
852.299	22607
852.434	22611
852.569	22615
852.703	22478
852.838	22641
852.973	22645
853.107	22554
853.242	22531
853.376	22341
853.511	22295
853.645	22344
853.78	22516
853.914	22413
854.048	22363
854.183	22272
854.317	22462
854.451	22557
854.585	22306
854.72	22394
854.854	22424
854.988	22363
855.122	22322
855.256	22352
855.39	22344
855.524	22424
855.658	22322
855.792	22363
855.926	22306
856.06	22310
856.194	22508
856.327	22447
856.461	22234
856.595	22325
856.729	22356
856.862	22360
856.996	22405
857.13	22417
857.263	22508
857.397	22474
857.53	22402
857.664	22371
857.797	22409
857.931	22440
858.064	22352
858.197	22478
858.331	22356
858.464	22405
858.597	22173
858.731	22348
858.864	22268
858.997	22478
859.13	22337
859.263	22481
859.396	22474
859.529	22306
859.662	22402
859.795	22375
859.928	22375
860.061	22611
860.194	22470
860.327	22360
860.46	22466
860.592	22466
860.725	22538
860.858	22630
860.99	22421
861.123	22379
861.256	22223
861.388	22375
861.521	23060
861.653	22226
861.786	22078
861.918	22120
862.05	22207
862.183	22329
862.315	22394
862.447	22424
862.58	22268
862.712	22204
862.844	22017
862.976	22112
863.108	22192
863.24	22485
863.372	21979
863.504	22090
863.636	22116
863.768	22086
863.9	22139
864.032	22090
864.164	21953
864.296	22169
864.428	22090
864.559	22063
864.691	22169
864.823	22051
864.954	22166
865.086	22032
865.217	22093
865.349	21903
865.48	21926
865.612	21956
865.743	22051
865.875	21956
866.006	21888
866.137	21888
866.269	21895
866.4	21945
866.531	21865
866.662	21842
866.793	21968
866.924	21949
867.055	21865
867.186	21819
867.317	21907
867.448	21812
867.579	21823
867.71	21766
867.841	21903
867.972	21869
868.103	21751
868.233	21934
868.364	21937
868.495	21823
868.625	22166
868.756	22097
868.886	22112
869.017	22257
869.147	22120
869.278	22169
869.408	22177
869.539	22101
869.669	22105
869.799	22200
869.929	22211
870.06	22360
870.19	22424
870.32	22409
870.45	22512
870.58	22413
870.71	22561
870.84	22679
870.97	22493
871.1	22489
871.23	22603
871.36	22767
871.489	22519
871.619	22641
871.749	22706
871.879	22759
872.008	22892
872.138	22668
872.267	22603
872.397	22664
872.526	22455
872.656	22459
872.785	22660
872.915	22748
873.044	22885
873.173	22774
873.303	22786
873.432	22828
873.561	22938
873.69	22820
873.819	22786
873.948	22752
874.077	22702
874.206	22668
874.335	22721
874.464	22771
874.593	23010
874.722	22953
874.851	22976
874.979	22942
875.108	23014
875.237	22854
875.365	22805
875.494	22942
875.623	22965
875.751	22976
875.88	23083
876.008	22976
876.136	23079
876.265	23349
876.393	23421
876.521	23486
876.65	23353
876.778	23288
876.906	23307
877.034	23296
877.162	23280
877.29	23284
877.418	23490
877.546	23318
877.674	23265
877.802	23372
877.93	23200
878.058	23197
878.185	23128
878.313	23296
878.441	23212
878.568	23140
878.696	23265
878.824	23239
878.951	23322
879.079	23551
879.206	23505
879.333	23463
879.461	23277
879.588	23330
879.715	23406
879.842	23581
879.97	23318
880.097	23212
880.224	23117
880.351	23117
880.478	23185
880.605	23124
880.732	22976
880.859	23379
880.986	23086
881.112	23079
881.239	23003
881.366	22923
881.493	22843
881.619	22748
881.746	22702
881.872	22755
881.999	22702
882.125	22630
882.252	22668
882.378	22675
882.505	22793
882.631	22557
882.757	22310
882.883	22459
883.01	22367
883.136	22314
883.262	22207
883.388	22188
883.514	22405
883.64	22409
883.766	22329
883.892	22090
884.018	22192
884.143	22310
884.269	22367
884.395	22017
884.52	21892
884.646	21975
884.772	21907
884.897	21850
885.023	22063
885.148	22082
885.274	22036
885.399	22082
885.524	21918
885.65	21930
885.775	21975
885.9	21899
886.025	21975
886.15	22139
886.275	22093
886.4	21922
886.525	21964
886.65	21816
886.775	21937
886.9	22166
887.025	22090
887.149	21842
887.274	21778
887.399	21812
887.523	21797
887.648	21656
887.773	21622
887.897	21804
888.021	21846
888.146	21564
888.27	21827
888.395	21892
888.519	21793
888.643	21709
888.767	21705
888.891	21656
889.015	21481
889.139	21633
889.263	21412
889.387	21667
889.511	21603
889.635	21557
889.759	21580
889.883	21523
890.006	21511
890.13	21637
890.254	21393
890.377	21412
890.501	21272
890.624	21279
890.748	21359
890.871	21142
890.995	21013
891.118	21119
891.241	21043
891.364	21157
891.488	21279
891.611	21218
891.734	21108
891.857	21062
891.98	20986
892.103	21188
892.226	21108
892.349	21062
892.471	20998
892.594	20967
892.717	21058
892.839	21001
892.962	20979
893.085	21051
893.207	20887
893.33	20883
893.452	20914
893.575	21032
893.697	20990
893.819	21127
893.941	21180
894.064	21020
894.186	20948
894.308	20883
894.43	21005
894.552	21241
894.674	21036
894.796	20838
894.918	20948
895.04	20868
895.161	21020
895.283	21123
895.405	20868
895.526	21028
895.648	21024
895.769	21032
895.891	21112
896.012	21005
896.134	21047
896.255	21119
896.376	20891
896.498	20941
896.619	21138
896.74	20986
896.861	21104
896.982	21233
897.103	21443
897.224	21188
897.345	21150
897.466	21199
897.587	21165
897.708	21287
897.828	21230
897.949	21173
898.07	21020
898.19	21180
898.311	21302
898.431	21142
898.552	21150
898.672	21207
898.792	21214
898.913	21291
899.033	21142
899.153	20998
899.273	20967
899.393	20887
899.513	20986
899.633	20975
899.753	20853
899.873	20895
899.993	20933
900.113	20906
900.232	20838
900.352	20819
900.472	20727
900.591	20674
900.711	20716
900.83	20636
900.95	20727
901.069	20800
901.189	20602
901.308	20423
901.427	20275
901.546	20271
901.665	20339
901.784	20244
901.904	20016
902.023	19947
902.141	19902
902.26	19795
902.379	19868
902.498	19830
902.617	19715
902.735	19776
902.854	19780
902.973	19670
903.091	19403
903.21	19434
903.328	19453
903.446	19308
903.565	19316
903.683	19213
903.801	19107
903.919	19221
904.038	19148
904.156	18920
904.274	19015
904.392	19034
904.51	18871
904.627	18947
904.745	19031
904.863	19057
904.981	18776
905.098	18593
905.216	18669
905.334	18684
905.451	18612
905.569	18616
905.686	18646
905.803	18555
905.921	18399
906.038	18426
906.155	18426
906.272	18338
906.389	18380
906.506	18239
906.623	18163
906.74	18239
906.857	17999
906.974	18053
907.091	18194
907.208	18281
907.324	18201
907.441	18091
907.557	17942
907.674	17824
907.79	17760
907.907	17775
908.023	17851
908.139	17866
908.256	17832
908.372	17805
908.488	17707
908.604	17581
908.72	17646
908.836	17585
908.952	17581
909.068	17623
909.184	17741
909.3	17707
909.415	17611
909.531	17493
909.647	17395
909.762	17330
909.878	17318
909.993	17307
910.108	17185
910.224	17303
910.339	17284
910.454	17204
910.57	17098
910.685	17014
910.8	17368
910.915	17208
911.03	17094
911.145	16854
911.259	16885
911.374	16900
911.489	16820
911.604	16759
911.718	16634
911.833	16679
911.947	16618
912.062	16535
912.176	16706
912.291	16649
912.405	16679
912.519	16843
912.633	16797
912.748	16736
912.862	16546
912.976	16516
913.09	16386
913.204	16512
913.318	16459
913.431	16569
913.545	16485
913.659	16493
913.772	16382
913.886	16310
914	16158
914.113	16306
914.226	16284
914.34	16291
914.453	16029
914.566	16265
914.68	16036
914.793	16109
914.906	15842
915.019	15732
915.132	15747
915.245	15835
915.358	15899
915.47	15850
915.583	15778
915.696	15812
915.809	15930
915.921	15888
916.034	15755
916.146	15599
916.259	15717
916.371	15759
916.483	15823
916.595	15591
916.708	15591
916.82	15622
916.932	15549
917.044	15591
917.156	15553
917.268	15355
917.38	15458
917.491	15294
917.603	15454
917.715	15515
917.826	15428
917.938	15329
918.049	15336
918.161	15458
918.272	15450
918.384	15500
918.495	15252
918.606	15313
918.717	15097
918.828	15161
918.939	15192
919.05	15097
919.161	15154
919.272	14982
919.383	14956
919.494	15097
919.604	15386
919.715	15127
919.826	15093
919.936	15085
920.047	15192
920.157	15119
920.267	15279
920.378	15104
920.488	15058
920.598	15317
920.708	15443
920.818	15268
920.928	15150
921.038	15424
921.148	15306
921.258	14986
921.368	15051
921.477	14902
921.587	14807
921.697	14720
921.806	14906
921.916	14701
922.025	14545
922.134	14511
922.244	14495
922.353	14598
922.462	14381
922.571	14393
922.68	14115
922.789	14153
922.898	14126
923.007	14062
923.116	14161
923.224	14134
923.333	14069
923.442	13955
923.55	13875
923.659	13932
923.767	13997
923.876	13936
923.984	13959
924.092	13784
924.201	13849
924.309	13868
924.417	13864
924.525	13700
924.633	13723
924.741	14579
924.849	13548
924.956	13727
925.064	13495
925.172	13453
925.279	13430
925.387	13510
925.494	13434
925.602	13715
925.709	13578
925.816	13430
925.924	13502
926.031	13460
926.138	13453
926.245	13441
926.352	13255
926.459	13430
926.566	13426
926.673	13282
926.779	13259
926.886	13149
926.993	13072
927.099	13080
927.206	13031
927.312	13088
927.419	13072
927.525	13000
927.631	13057
927.737	12859
927.843	12935
927.95	12768
928.056	12882
928.162	12856
928.267	12882
928.373	13613
928.479	12928
928.585	12722
928.69	12810
928.796	12817
928.901	12658
929.007	12616
929.112	12707
929.218	12700
929.323	12536
929.428	12585
929.533	12760
929.638	12528
929.743	12445
929.848	12608
929.953	12486
930.058	12475
930.163	12251
930.267	12285
930.372	12403
930.477	12224
930.581	12422
930.685	12277
930.79	12175
930.894	12171
930.998	12152
931.103	12277
931.207	11828
931.311	11802
931.415	11745
931.519	11467
931.623	11532
