Data from test_V78500241_3713.txt Node
Date: Fri Mar 25 16:07:31 CST 2022
User: usil
Spectrometer: V785-0024
Trigger mode: 0
Integration Time (sec): 4.000000E-1
Scans to average: 1
Nonlinearity correction enabled: false
Boxcar width: 0
Storing dark spectrum: false
XAxis mode: Wavelengths
Number of Pixels in Spectrum: 1024
>>>>>Begin Spectral Data<<<<<
801.071	28135
801.214	28067
801.356	27979
801.499	27785
801.641	27720
801.783	27713
801.926	27819
802.068	27625
802.211	27644
802.353	27507
802.496	27473
802.638	27500
802.78	27458
802.923	27355
803.065	27336
803.208	27370
803.35	27481
803.492	27660
803.635	27606
803.777	27488
803.919	27648
804.061	27892
804.204	27622
804.346	27549
804.488	27504
804.63	27603
804.773	27477
804.915	27610
805.057	27804
805.199	27595
805.341	27747
805.483	27812
805.626	27690
805.768	27743
805.91	27736
806.052	27705
806.194	27736
806.336	27934
806.478	27823
806.62	27762
806.762	27903
806.904	28147
807.046	28192
807.188	28268
807.33	28230
807.472	28276
807.614	28093
807.756	28143
807.898	28040
808.04	27934
808.182	27899
808.324	27899
808.465	28143
808.607	28325
808.749	28398
808.891	28500
809.033	28527
809.174	28466
809.316	28325
809.458	28386
809.6	28348
809.741	28497
809.883	28603
810.025	28733
810.166	28702
810.308	28748
810.45	28664
810.591	28565
810.733	28405
810.875	28470
811.016	28367
811.158	28348
811.299	28504
811.441	28596
811.582	28577
811.724	28447
811.865	28318
812.007	28306
812.148	28554
812.29	28493
812.431	28592
812.573	28862
812.714	28862
812.855	28877
812.997	29060
813.138	29159
813.279	29003
813.421	28839
813.562	28908
813.703	28694
813.845	28702
813.986	28516
814.127	28154
814.268	28181
814.41	28200
814.551	28120
814.692	28265
814.833	28040
814.974	28131
815.115	28070
815.256	28029
815.397	27975
815.539	28010
815.68	27994
815.821	27774
815.962	27949
816.103	27884
816.244	27797
816.385	27770
816.526	27694
816.666	27500
816.807	27382
816.948	27447
817.089	27515
817.23	27481
817.371	27477
817.512	27473
817.653	27393
817.793	27458
817.934	27363
818.075	27454
818.216	27412
818.356	27359
818.497	27256
818.638	27119
818.778	27173
818.919	27245
819.06	27230
819.2	27241
819.341	27405
819.481	27291
819.622	27523
819.762	27660
819.903	27759
820.043	27545
820.184	27500
820.324	27576
820.465	27732
820.605	27504
820.746	27644
820.886	27538
821.026	27386
821.167	27416
821.307	27583
821.447	27393
821.588	27252
821.728	27154
821.868	27176
822.008	26963
822.149	26933
822.289	26845
822.429	26674
822.569	26522
822.709	26568
822.849	26389
822.99	26473
823.13	26396
823.27	26412
823.41	26248
823.55	26100
823.69	26191
823.83	26157
823.97	26145
824.11	25925
824.25	25913
824.389	26046
824.529	26069
824.669	26046
824.809	26259
824.949	26096
825.089	26058
825.228	26058
825.368	25913
825.508	25913
825.648	26035
825.787	25887
825.927	25909
826.067	25909
826.206	25776
826.346	25951
826.485	26027
826.625	25955
826.765	26062
826.904	25974
827.044	25571
827.183	25757
827.323	25674
827.462	25613
827.601	25715
827.741	25605
827.88	25651
828.02	25571
828.159	25639
828.298	25609
828.437	25635
828.577	25518
828.716	25727
828.855	25700
828.994	25350
829.134	25362
829.273	25449
829.412	25263
829.551	25217
829.69	25228
829.829	25445
829.968	25438
830.107	25476
830.246	25457
830.385	25316
830.524	25187
830.663	25187
830.802	25095
830.941	25031
831.08	24985
831.219	25103
831.357	25065
831.496	25225
831.635	24924
831.774	24749
831.913	24886
832.051	24711
832.19	24741
832.329	24658
832.467	24650
832.606	24616
832.744	24498
832.883	24540
833.022	24475
833.16	24654
833.299	24616
833.437	24681
833.576	24650
833.714	24711
833.852	24734
833.991	24840
834.129	24924
834.267	24753
834.406	24741
834.544	24707
834.682	24711
834.821	24764
834.959	24875
835.097	24787
835.235	24646
835.373	24631
835.511	24631
835.65	24426
835.788	24582
835.926	24456
836.064	24369
836.202	24319
836.34	24380
836.478	24547
836.615	24426
836.753	24350
836.891	24654
837.029	24563
837.167	24346
837.305	24380
837.443	24452
837.58	24281
837.718	24410
837.856	24346
837.993	24270
838.131	24319
838.269	24194
838.406	24251
838.544	24155
838.681	24022
838.819	23999
838.956	23809
839.094	23767
839.231	23718
839.369	23893
839.506	24174
839.643	24098
839.781	23859
839.918	23824
840.055	23828
840.193	23767
840.33	23653
840.467	23684
840.604	23771
840.742	23992
840.879	23627
841.016	23589
841.153	23646
841.29	23817
841.427	23642
841.564	23878
841.701	23646
841.838	23745
841.975	23703
842.112	23600
842.249	23558
842.385	23417
842.522	23604
842.659	23516
842.796	23391
842.933	23417
843.069	23406
843.206	23467
843.343	23509
843.479	23524
843.616	23608
843.752	23288
843.889	23353
844.025	23402
844.162	23223
844.298	23364
844.435	23269
844.571	23098
844.708	23372
844.844	23501
844.98	23421
845.117	23280
845.253	23178
845.389	23113
845.525	23109
845.661	22980
845.798	22908
845.934	22968
846.07	22968
846.206	22946
846.342	23315
846.478	22919
846.614	22797
846.75	22618
846.886	22778
847.022	22812
847.158	22835
847.294	22831
847.429	22774
847.565	22694
847.701	22923
847.837	22466
847.972	22485
848.108	22550
848.244	22519
848.379	22348
848.515	22322
848.65	22276
848.786	22398
848.921	22291
849.057	22455
849.192	22428
849.328	22474
849.463	22386
849.598	22219
849.734	22150
849.869	22131
850.004	22131
850.14	22105
850.275	22147
850.41	21975
850.545	22078
850.68	22158
850.815	22029
850.95	22105
851.085	22234
851.22	22192
851.355	22166
851.49	22097
851.625	22055
851.76	22055
851.895	22059
852.03	22070
852.165	22044
852.299	22169
852.434	22223
852.569	22158
852.703	22105
852.838	22097
852.973	22181
853.107	22082
853.242	22048
853.376	21762
853.511	21854
853.645	21800
853.78	22006
853.914	21945
854.048	21903
854.183	21934
854.317	21922
854.451	22150
854.585	22021
854.72	21812
854.854	21930
854.988	21960
855.122	21838
855.256	21842
855.39	21827
855.524	21926
855.658	21922
855.792	21930
855.926	21884
856.06	21983
856.194	21854
856.327	21960
856.461	21907
856.595	21808
856.729	21991
856.862	22036
856.996	21979
857.13	21975
857.263	21899
857.397	22002
857.53	21956
857.664	21972
857.797	21819
857.931	21960
858.064	21994
858.197	22010
858.331	21770
858.464	21934
858.597	21869
858.731	21918
858.864	21926
858.997	21903
859.13	21903
859.263	21937
859.396	22017
859.529	21846
859.662	21991
859.795	21835
859.928	21884
860.061	22006
860.194	22086
860.327	22044
860.46	21903
860.592	22010
860.725	22048
860.858	22120
860.99	21918
861.123	21755
861.256	21766
861.388	21895
861.521	22535
861.653	21724
861.786	21656
861.918	21854
862.05	21869
862.183	21793
862.315	21918
862.447	21934
862.58	21743
862.712	21591
862.844	21679
862.976	21629
863.108	21686
863.24	21983
863.372	21614
863.504	21652
863.636	21572
863.768	21580
863.9	21515
864.032	21519
864.164	21671
864.296	21595
864.428	21705
864.559	21629
864.691	21736
864.823	21606
864.954	21682
865.086	21618
865.217	21580
865.349	21443
865.48	21408
865.612	21523
865.743	21679
865.875	21526
866.006	21485
866.137	21435
866.269	21469
866.4	21454
866.531	21450
866.662	21370
866.793	21439
866.924	21332
867.055	21507
867.186	21374
867.317	21454
867.448	21370
867.579	21431
867.71	21367
867.841	21428
867.972	21473
868.103	21359
868.233	21477
868.364	21397
868.495	21557
868.625	21656
868.756	21747
868.886	21545
869.017	21728
869.147	21732
869.278	21899
869.408	21816
869.539	21534
869.669	21804
869.799	21755
869.929	21854
870.06	21903
870.19	22006
870.32	22029
870.45	21934
870.58	22116
870.71	22150
870.84	22173
870.97	22063
871.1	22086
871.23	22246
871.36	22299
871.489	22242
871.619	22200
871.749	22169
871.879	22280
872.008	22299
872.138	22265
872.267	22234
872.397	22143
872.526	22002
872.656	22131
872.785	22177
872.915	22230
873.044	22436
873.173	22341
873.303	22337
873.432	22459
873.561	22314
873.69	22265
873.819	22154
873.948	22367
874.077	22257
874.206	22356
874.335	22379
874.464	22409
874.593	22443
874.722	22481
874.851	22542
874.979	22519
875.108	22611
875.237	22481
875.365	22363
875.494	22546
875.623	22649
875.751	22535
875.88	22379
876.008	22603
876.136	22599
876.265	22999
876.393	23064
876.521	22976
876.65	22984
876.778	22930
876.906	22752
877.034	22930
877.162	22835
877.29	22790
877.418	22885
877.546	22923
877.674	22904
877.802	22725
877.93	22889
878.058	22866
878.185	22683
878.313	22843
878.441	22915
878.568	22706
878.696	22771
878.824	22930
878.951	22995
879.079	22946
879.206	23174
879.333	22968
879.461	22934
879.588	23025
879.715	23181
879.842	23102
879.97	22889
880.097	22649
880.224	22721
880.351	22698
880.478	22767
880.605	22706
880.732	22500
880.859	22923
880.986	22645
881.112	22729
881.239	22618
881.366	22432
881.493	22306
881.619	22230
881.746	22333
881.872	22253
881.999	22139
882.125	22128
882.252	22417
882.378	22204
882.505	22268
882.631	22131
882.757	21991
882.883	22021
883.01	21991
883.136	21823
883.262	21842
883.388	21770
883.514	21892
883.64	21953
883.766	21819
883.892	21644
884.018	21846
884.143	21835
884.269	21975
884.395	21591
884.52	21580
884.646	21614
884.772	21553
884.897	21466
885.023	21580
885.148	21778
885.274	21728
885.399	21690
885.524	21663
885.65	21660
885.775	21599
885.9	21553
886.025	21583
886.15	21682
886.275	21447
886.4	21538
886.525	21458
886.65	21367
886.775	21500
886.9	21682
887.025	21671
887.149	21454
887.274	21397
887.399	21298
887.523	21416
887.648	21169
887.773	21252
887.897	21302
888.021	21359
888.146	21272
888.27	21420
888.395	21397
888.519	21317
888.643	21439
888.767	21393
888.891	21203
889.015	21161
889.139	21218
889.263	21093
889.387	21157
889.511	21405
889.635	21154
889.759	21176
889.883	21058
890.006	21157
890.13	21222
890.254	21089
890.377	21047
890.501	20845
890.624	20849
890.748	20895
890.871	20754
890.995	20651
891.118	20587
891.241	20670
891.364	20731
891.488	20765
891.611	20590
891.734	20720
891.857	20731
891.98	20720
892.103	20670
892.226	20701
892.349	20708
892.471	20549
892.594	20602
892.717	20644
892.839	20648
892.962	20568
893.085	20530
893.207	20602
893.33	20415
893.452	20492
893.575	20648
893.697	20583
893.819	20739
893.941	20804
894.064	20636
894.186	20537
894.308	20415
894.43	20682
894.552	20765
894.674	20758
894.796	20552
894.918	20465
895.04	20533
895.161	20724
895.283	20689
895.405	20495
895.526	20518
895.648	20609
895.769	20727
895.891	20629
896.012	20693
896.134	20712
896.255	20659
896.376	20522
896.498	20587
896.619	20686
896.74	20644
896.861	20575
896.982	20693
897.103	21043
897.224	20819
897.345	20792
897.466	20735
897.587	20727
897.708	20891
897.828	20746
897.949	20716
898.07	20636
898.19	20773
898.311	20807
898.431	20636
898.552	20773
898.672	20796
898.792	20853
898.913	20701
899.033	20720
899.153	20708
899.273	20537
899.393	20473
899.513	20484
899.633	20507
899.753	20568
899.873	20526
899.993	20473
900.113	20480
900.232	20518
900.352	20400
900.472	20336
900.591	20381
900.711	20370
900.83	20187
900.95	20309
901.069	20370
901.189	20111
901.308	19947
901.427	19811
901.546	19925
901.665	19997
901.784	20020
901.904	19871
902.023	19605
902.141	19464
902.26	19422
902.379	19556
902.498	19350
902.617	19411
902.735	19480
902.854	19369
902.973	19278
903.091	19038
903.21	19042
903.328	19034
903.446	18989
903.565	18772
903.683	18878
903.801	18783
903.919	18745
904.038	18856
904.156	18593
904.274	18677
904.392	18582
904.51	18540
904.627	18563
904.745	18817
904.863	18616
904.981	18448
905.098	18319
905.216	18296
905.334	18273
905.451	18281
905.569	18281
905.686	18304
905.803	18300
905.921	18041
906.038	18049
906.155	18110
906.272	17954
906.389	17973
906.506	17828
906.623	17817
906.74	17874
906.857	17798
906.974	17741
907.091	17927
907.208	17874
907.324	17870
907.441	17695
907.557	17623
907.674	17516
907.79	17452
907.907	17368
908.023	17455
908.139	17433
908.256	17364
908.372	17410
908.488	17360
908.604	17200
908.72	17303
908.836	17330
908.952	17174
909.068	17296
909.184	17341
909.3	17216
909.415	17258
909.531	17140
909.647	16949
909.762	17029
909.878	16934
909.993	16934
910.108	16919
910.224	16847
910.339	16980
910.454	16911
910.57	16850
910.685	16755
910.8	16987
910.915	16900
911.03	16675
911.145	16611
911.259	16481
911.374	16512
911.489	16443
911.604	16344
911.718	16295
911.833	16314
911.947	16139
912.062	16154
912.176	16329
912.291	16280
912.405	16352
912.519	16428
912.633	16550
912.748	16287
912.862	16310
912.976	16177
913.09	16029
913.204	15979
913.318	16147
913.431	16143
913.545	16211
913.659	16238
913.772	16029
913.886	15979
914	15911
914.113	15915
914.226	15953
914.34	15926
914.453	15812
914.566	16013
914.68	15808
914.793	15690
914.906	15606
915.019	15542
915.132	15420
915.245	15477
915.358	15504
915.47	15386
915.583	15412
915.696	15511
915.809	15564
915.921	15572
916.034	15473
916.146	15473
916.259	15374
916.371	15447
916.483	15408
916.595	15340
916.708	15405
916.82	15412
916.932	15249
917.044	15249
917.156	15237
917.268	15085
917.38	15119
917.491	15013
917.603	15154
917.715	15108
917.826	15104
917.938	15020
918.049	15036
918.161	15062
918.272	15131
918.384	15195
918.495	14998
918.606	14830
918.717	14769
918.828	14925
918.939	14811
919.05	14811
919.161	14857
919.272	14644
919.383	14705
919.494	14929
919.604	15085
919.715	14906
919.826	14670
919.936	14804
920.047	14906
920.157	14800
920.267	14952
920.378	14857
920.488	14834
920.598	14944
920.708	15161
920.818	14986
920.928	14994
921.038	15135
921.148	15089
921.258	14811
921.368	14796
921.477	14514
921.587	14549
921.697	14533
921.806	14503
921.916	14343
922.025	14347
922.134	14240
922.244	14126
922.353	14221
922.462	14031
922.571	14058
922.68	13902
922.789	13799
922.898	13799
923.007	13856
923.116	13837
923.224	13814
923.333	13776
923.442	13639
923.55	13677
923.659	13700
923.767	13753
923.876	13662
923.984	13609
924.092	13491
924.201	13624
924.309	13529
924.417	13514
924.525	13518
924.633	13559
924.741	14377
924.849	13324
924.956	13422
925.064	13304
925.172	13164
925.279	13179
925.387	13236
925.494	13225
925.602	13346
925.709	13236
925.816	13164
925.924	13187
926.031	13171
926.138	13187
926.245	13183
926.352	13072
926.459	13247
926.566	13255
926.673	13061
926.779	12985
926.886	12966
926.993	12894
927.099	12833
927.206	12692
927.312	12783
927.419	12867
927.525	12787
927.631	12928
927.737	12749
927.843	12608
927.95	12490
928.056	12593
928.162	12532
928.267	12582
928.373	13301
928.479	12745
928.585	12384
928.69	12555
928.796	12544
928.901	12525
929.007	12304
929.112	12475
929.218	12494
929.323	12448
929.428	12372
929.533	12433
929.638	12327
929.743	12243
929.848	12262
929.953	12251
930.058	12095
930.163	12022
930.267	12003
930.372	12087
930.477	11939
930.581	12178
930.685	12049
930.79	11950
930.894	11916
930.998	11863
931.103	12060
931.207	11634
931.311	11524
931.415	11524
931.519	11337
931.623	11223
