Data from test_V78500241_425.txt Node
Date: Fri Mar 25 15:44:44 CST 2022
User: usil
Spectrometer: V785-0024
Trigger mode: 0
Integration Time (sec): 4.000000E-1
Scans to average: 1
Nonlinearity correction enabled: false
Boxcar width: 0
Storing dark spectrum: false
XAxis mode: Wavelengths
Number of Pixels in Spectrum: 1024
>>>>>Begin Spectral Data<<<<<
801.071	28607
801.214	28188
801.356	28135
801.499	27979
801.641	27945
801.783	28006
801.926	27926
802.068	27930
802.211	27804
802.353	27766
802.496	27644
802.638	27572
802.78	27473
802.923	27447
803.065	27564
803.208	27507
803.35	27580
803.492	27443
803.635	27641
803.777	27557
803.919	27652
804.061	27979
804.204	27736
804.346	27511
804.488	27606
804.63	27618
804.773	27511
804.915	27561
805.057	27724
805.199	27679
805.341	27732
805.483	27797
805.626	27686
805.768	27576
805.91	27644
806.052	27682
806.194	27766
806.336	27918
806.478	27698
806.62	27724
806.762	27835
806.904	28105
807.046	28238
807.188	28120
807.33	28147
807.472	28333
807.614	28226
807.756	28131
807.898	28010
808.04	27880
808.182	28097
808.324	27949
808.465	27934
808.607	28188
808.749	28150
808.891	28352
809.033	28500
809.174	28375
809.316	28436
809.458	28348
809.6	28360
809.741	28489
809.883	28481
810.025	28653
810.166	28653
810.308	28519
810.45	28713
810.591	28542
810.733	28519
810.875	28234
811.016	28291
811.158	28257
811.299	28421
811.441	28546
811.582	28462
811.724	28261
811.865	28341
812.007	28265
812.148	28280
812.29	28398
812.431	28554
812.573	28694
812.714	28862
812.855	28923
812.997	28972
813.138	29162
813.279	28927
813.421	28885
813.562	28675
813.703	28656
813.845	28508
813.986	28261
814.127	28002
814.268	28059
814.41	28006
814.551	27884
814.692	27998
814.833	27922
814.974	27903
815.115	27930
815.256	27789
815.397	27899
815.539	27911
815.68	27892
815.821	27739
815.962	27698
816.103	27641
816.244	27473
816.385	27580
816.526	27454
816.666	27355
816.807	27275
816.948	27317
817.089	27367
817.23	27348
817.371	27302
817.512	27298
817.653	27188
817.793	27173
817.934	27184
818.075	27272
818.216	27260
818.356	27131
818.497	27036
818.638	26929
818.778	26929
818.919	27032
819.06	26861
819.2	27085
819.341	27211
819.481	27169
819.622	27279
819.762	27530
819.903	27363
820.043	27363
820.184	27363
820.324	27351
820.465	27397
820.605	27367
820.746	27260
820.886	27199
821.026	27348
821.167	27245
821.307	27317
821.447	27161
821.588	27077
821.728	27146
821.868	26739
822.008	26663
822.149	26765
822.289	26701
822.429	26347
822.569	26309
822.709	26267
822.849	26172
822.99	26142
823.13	26145
823.27	26119
823.41	25955
823.55	25795
823.69	25982
823.83	25940
823.97	25814
824.11	25769
824.25	25700
824.389	25811
824.529	25871
824.669	25674
824.809	25807
824.949	25841
825.089	25719
825.228	25807
825.368	25662
825.508	25674
825.648	25586
825.787	25742
825.927	25643
826.067	25582
826.206	25594
826.346	25708
826.485	25651
826.625	25556
826.765	25746
826.904	25628
827.044	25350
827.183	25270
827.323	25228
827.462	25244
827.601	25289
827.741	25225
827.88	25251
828.02	25095
828.159	25247
828.298	25411
828.437	25312
828.577	25190
828.716	25388
828.855	25008
828.994	25004
829.134	25038
829.273	24939
829.412	25080
829.551	24840
829.69	24867
829.829	24973
829.968	24913
830.107	24989
830.246	24878
830.385	24909
830.524	24817
830.663	24726
830.802	24658
830.941	24673
831.08	24540
831.219	24574
831.357	24563
831.496	24863
831.635	24475
831.774	24464
831.913	24422
832.051	24281
832.19	24262
832.329	24262
832.467	24266
832.606	24152
832.744	24247
832.883	24133
833.022	24140
833.16	24133
833.299	24258
833.437	24148
833.576	24239
833.714	24357
833.852	24239
833.991	24144
834.129	24273
834.267	24285
834.406	24197
834.544	24281
834.682	24159
834.821	24266
834.959	24365
835.097	24144
835.235	24235
835.373	24079
835.511	24110
835.65	24045
835.788	24068
835.926	24003
836.064	23783
836.202	23931
836.34	24159
836.478	23999
836.615	24026
836.753	23973
836.891	24041
837.029	23999
837.167	23813
837.305	23874
837.443	23954
837.58	23824
837.718	23843
837.856	23984
837.993	23805
838.131	23805
838.269	23642
838.406	23710
838.544	23676
838.681	23543
838.819	23490
838.956	23277
839.094	23330
839.231	23337
839.369	23395
839.506	23722
839.643	23558
839.781	23250
839.918	23220
840.055	23307
840.193	23166
840.33	23155
840.467	23277
840.604	23299
840.742	23592
840.879	23147
841.016	23235
841.153	23033
841.29	23280
841.427	23029
841.564	23261
841.701	23181
841.838	23029
841.975	23071
842.112	23090
842.249	23010
842.385	22831
842.522	23193
842.659	23083
842.796	22923
842.933	22949
843.069	22881
843.206	23006
843.343	22904
843.479	22938
843.616	22911
843.752	22641
843.889	22702
844.025	22850
844.162	22489
844.298	22752
844.435	22622
844.571	22569
844.708	22687
844.844	22774
844.98	22828
845.117	22778
845.253	22637
845.389	22516
845.525	22538
845.661	22588
845.798	22325
845.934	22379
846.07	22310
846.206	22432
846.342	22508
846.478	22344
846.614	22169
846.75	22166
846.886	22059
847.022	22219
847.158	22280
847.294	22139
847.429	22139
847.565	22051
847.701	22356
847.837	21884
847.972	21861
848.108	21937
848.244	21979
848.379	21778
848.515	21618
848.65	21713
848.786	21629
848.921	21679
849.057	21743
849.192	21743
849.328	21709
849.463	21671
849.598	21675
849.734	21526
849.869	21481
850.004	21523
850.14	21428
850.275	21587
850.41	21294
850.545	21348
850.68	21374
850.815	21458
850.95	21386
851.085	21591
851.22	21652
851.355	21435
851.49	21462
851.625	21340
851.76	21431
851.895	21317
852.03	21268
852.165	21435
852.299	21587
852.434	21454
852.569	21485
852.703	21507
852.838	21496
852.973	21561
853.107	21568
853.242	21332
853.376	21298
853.511	21093
853.645	21230
853.78	21348
853.914	21313
854.048	21241
854.183	21154
854.317	21245
854.451	21348
854.585	21245
854.72	21252
854.854	21272
854.988	21222
855.122	21218
855.256	21146
855.39	21119
855.524	21252
855.658	21241
855.792	21245
855.926	21203
856.06	21245
856.194	21306
856.327	21195
856.461	21287
856.595	21230
856.729	21317
856.862	21188
856.996	21313
857.13	21313
857.263	21306
857.397	21367
857.53	21119
857.664	21363
857.797	21218
857.931	21287
858.064	21207
858.197	21302
858.331	21260
858.464	21127
858.597	21146
858.731	21188
858.864	21245
858.997	21154
859.13	21294
859.263	21211
859.396	21252
859.529	21135
859.662	21298
859.795	21180
859.928	21135
860.061	21363
860.194	21370
860.327	21192
860.46	21150
860.592	21256
860.725	21431
860.858	21287
860.99	21169
861.123	21146
861.256	21150
861.388	21066
861.521	21781
861.653	21047
861.786	21096
861.918	21070
862.05	21127
862.183	21199
862.315	21237
862.447	21268
862.58	21017
862.712	21036
862.844	20868
862.976	20994
863.108	21074
863.24	21382
863.372	20826
863.504	20963
863.636	20979
863.768	20899
863.9	20925
864.032	20960
864.164	20899
864.296	20845
864.428	20910
864.559	20918
864.691	20902
864.823	20887
864.954	20883
865.086	20906
865.217	20785
865.349	20644
865.48	20743
865.612	20849
865.743	20876
865.875	20800
866.006	20868
866.137	20773
866.269	20845
866.4	20830
866.531	20701
866.662	20705
866.793	20708
866.924	20701
867.055	20883
867.186	20849
867.317	20750
867.448	20674
867.579	20796
867.71	20693
867.841	20735
867.972	20769
868.103	20800
868.233	20773
868.364	20773
868.495	20819
868.625	20948
868.756	21070
868.886	20857
869.017	21017
869.147	20971
869.278	21074
869.408	20956
869.539	20975
869.669	20994
869.799	20994
869.929	21093
870.06	21100
870.19	21294
870.32	21287
870.45	21332
870.58	21260
870.71	21447
870.84	21336
870.97	21321
871.1	21306
871.23	21496
871.36	21606
871.489	21458
871.619	21515
871.749	21564
871.879	21671
872.008	21648
872.138	21523
872.267	21648
872.397	21450
872.526	21336
872.656	21401
872.785	21431
872.915	21542
873.044	21549
873.173	21511
873.303	21637
873.432	21603
873.561	21747
873.69	21694
873.819	21698
873.948	21644
874.077	21534
874.206	21420
874.335	21599
874.464	21542
874.593	21842
874.722	21736
874.851	21888
874.979	21816
875.108	21842
875.237	21675
875.365	21587
875.494	21709
875.623	21873
875.751	21831
875.88	21842
876.008	21934
876.136	22002
876.265	22173
876.393	22329
876.521	22447
876.65	22314
876.778	22192
876.906	22120
877.034	22131
877.162	22051
877.29	22177
877.418	22139
877.546	22124
877.674	22211
877.802	22242
877.93	22120
878.058	22143
878.185	22040
878.313	22246
878.441	22150
878.568	21972
878.696	22268
878.824	22249
878.951	22341
879.079	22375
879.206	22504
879.333	22322
879.461	22234
879.588	22322
879.715	22322
879.842	22386
879.97	22287
880.097	21987
880.224	21850
880.351	21892
880.478	21975
880.605	21964
880.732	22006
880.859	22215
880.986	21911
881.112	22090
881.239	21975
881.366	21686
881.493	21629
881.619	21545
881.746	21603
881.872	21538
881.999	21568
882.125	21492
882.252	21557
882.378	21606
882.505	21572
882.631	21454
882.757	21332
882.883	21340
883.01	21272
883.136	21287
883.262	21184
883.388	21100
883.514	21188
883.64	21287
883.766	21260
883.892	21058
884.018	21123
884.143	21321
884.269	21325
884.395	21043
884.52	20864
884.646	21024
884.772	20906
884.897	20952
885.023	20948
885.148	20986
885.274	20979
885.399	20902
885.524	20861
885.65	21013
885.775	20845
885.9	20811
886.025	21077
886.15	20899
886.275	20921
886.4	20887
886.525	20895
886.65	20838
886.775	20921
886.9	21032
887.025	21119
887.149	20853
887.274	20724
887.399	20727
887.523	20701
887.648	20598
887.773	20556
887.897	20712
888.021	20701
888.146	20651
888.27	20758
888.395	20838
888.519	20762
888.643	20746
888.767	20667
888.891	20594
889.015	20469
889.139	20511
889.263	20488
889.387	20522
889.511	20587
889.635	20621
889.759	20454
889.883	20473
890.006	20370
890.13	20507
890.254	20347
890.377	20419
890.501	20275
890.624	20187
890.748	20278
890.871	20062
890.995	19928
891.118	19898
891.241	20062
891.364	20073
891.488	20237
891.611	20035
891.734	20081
891.857	20050
891.98	20092
892.103	19993
892.226	20096
892.349	20016
892.471	19765
892.594	19902
892.717	19978
892.839	19932
892.962	19902
893.085	20035
893.207	19902
893.33	19780
893.452	19841
893.575	20001
893.697	19921
893.819	20100
893.941	20054
894.064	20081
894.186	19936
894.308	19871
894.43	20035
894.552	20084
894.674	19982
894.796	19921
894.918	19974
895.04	19864
895.161	20088
895.283	19932
895.405	19894
895.526	19970
895.648	19978
895.769	19993
895.891	20073
896.012	20065
896.134	20008
896.255	20027
896.376	19913
896.498	20024
896.619	20115
896.74	20096
896.861	19993
896.982	20278
897.103	20454
897.224	20240
897.345	20122
897.466	20134
897.587	20221
897.708	20328
897.828	20225
897.949	20195
898.07	20031
898.19	20065
898.311	20355
898.431	20142
898.552	20138
898.672	20210
898.792	20221
898.913	20183
899.033	20046
899.153	20016
899.273	19898
899.393	19917
899.513	19963
899.633	19951
899.753	20001
899.873	19818
899.993	19993
900.113	19852
900.232	19856
900.352	19799
900.472	19791
900.591	19616
900.711	19746
900.83	19620
900.95	19757
901.069	19677
901.189	19643
901.308	19354
901.427	19259
901.546	19232
901.665	19251
901.784	19285
901.904	19202
902.023	19160
902.141	18871
902.26	18894
902.379	18916
902.498	18875
902.617	18711
902.735	19004
902.854	18703
902.973	18692
903.091	18441
903.21	18498
903.328	18475
903.446	18285
903.565	18342
903.683	18319
903.801	18205
903.919	18270
904.038	18296
904.156	18026
904.274	18148
904.392	18121
904.51	17992
904.627	18095
904.745	18049
904.863	18167
904.981	17843
905.098	17642
905.216	17668
905.334	17786
905.451	17821
905.569	17729
905.686	17695
905.803	17672
905.921	17444
906.038	17665
906.155	17592
906.272	17474
906.389	17376
906.506	17303
906.623	17174
906.74	17216
906.857	17052
906.974	17048
907.091	17242
907.208	17398
907.324	17204
907.441	17151
907.557	16987
907.674	16938
907.79	16938
907.907	16843
908.023	17006
908.139	16824
908.256	16854
908.372	16919
908.488	16752
908.604	16702
908.72	16630
908.836	16744
908.952	16596
909.068	16637
909.184	16717
909.3	16740
909.415	16698
909.531	16592
909.647	16424
909.762	16386
909.878	16333
909.993	16348
910.108	16329
910.224	16261
910.339	16325
910.454	16116
910.57	16173
910.685	16032
910.8	16363
910.915	16306
911.03	16025
911.145	15960
911.259	15915
911.374	16036
911.489	15892
911.604	15827
911.718	15720
911.833	15701
911.947	15576
912.062	15580
912.176	15732
912.291	15751
912.405	15789
912.519	15918
912.633	15945
912.748	15701
912.862	15606
912.976	15507
913.09	15466
913.204	15374
913.318	15443
913.431	15549
913.545	15549
913.659	15663
913.772	15355
913.886	15302
914	15233
914.113	15340
914.226	15511
914.34	15359
914.453	15291
914.566	15268
914.68	15218
914.793	15150
914.906	14971
915.019	14826
915.132	14804
915.245	14971
915.358	14994
915.47	14941
915.583	14956
915.696	14941
915.809	15017
915.921	14994
916.034	14796
916.146	14902
916.259	14781
916.371	14902
916.483	14895
916.595	14674
916.708	14762
916.82	14701
916.932	14758
917.044	14663
917.156	14667
917.268	14629
917.38	14674
917.491	14476
917.603	14575
917.715	14686
917.826	14617
917.938	14434
918.049	14484
918.161	14640
918.272	14781
918.384	14617
918.495	14568
918.606	14366
918.717	14259
918.828	14347
918.939	14511
919.05	14263
919.161	14244
919.272	14111
919.383	14191
919.494	14298
919.604	14476
919.715	14343
919.826	14191
919.936	14191
920.047	14339
920.157	14248
920.267	14381
920.378	14206
920.488	14233
920.598	14381
920.708	14602
920.818	14396
920.928	14351
921.038	14640
921.148	14530
921.258	14172
921.368	14176
921.477	14020
921.587	14107
921.697	13932
921.806	14058
921.916	13769
922.025	13795
922.134	13674
922.244	13647
922.353	13693
922.462	13521
922.571	13491
922.68	13430
922.789	13266
922.898	13320
923.007	13266
923.116	13411
923.224	13316
923.333	13244
923.442	13099
923.55	13209
923.659	13198
923.767	13209
923.876	13076
923.984	13179
924.092	12958
924.201	13080
924.309	12989
924.417	13061
924.525	13034
924.633	13023
924.741	13807
924.849	12852
924.956	12924
925.064	12757
925.172	12669
925.279	12772
925.387	12753
925.494	12719
925.602	12882
925.709	12806
925.816	12715
925.924	12662
926.031	12840
926.138	12681
926.245	12783
926.352	12544
926.459	12768
926.566	12684
926.673	12555
926.779	12574
926.886	12506
926.993	12467
927.099	12289
927.206	12323
927.312	12247
927.419	12251
927.525	12262
927.631	12292
927.737	12228
927.843	12201
927.95	12072
928.056	12136
928.162	12117
928.267	12125
928.373	12764
928.479	12216
928.585	12015
928.69	12125
928.796	12053
928.901	11958
929.007	11885
929.112	11942
929.218	11927
929.323	11931
929.428	11870
929.533	11980
929.638	11794
929.743	11901
929.848	11843
929.953	11809
930.058	11729
930.163	11524
930.267	11596
930.372	11756
930.477	11493
930.581	11684
930.685	11581
930.79	11414
930.894	11440
930.998	11467
931.103	11577
931.207	11231
931.311	11124
931.415	10927
931.519	10839
931.623	10797
