Data from test_V78500241_2343.txt Node
Date: Fri Mar 25 15:58:01 CST 2022
User: usil
Spectrometer: V785-0024
Trigger mode: 0
Integration Time (sec): 4.000000E-1
Scans to average: 1
Nonlinearity correction enabled: false
Boxcar width: 0
Storing dark spectrum: false
XAxis mode: Wavelengths
Number of Pixels in Spectrum: 1024
>>>>>Begin Spectral Data<<<<<
801.071	28752
801.214	28683
801.356	28371
801.499	28276
801.641	28253
801.783	28131
801.926	28226
802.068	28219
802.211	28276
802.353	28101
802.496	28109
802.638	27861
802.78	27884
802.923	27842
803.065	27895
803.208	27926
803.35	28040
803.492	28128
803.635	28291
803.777	28211
803.919	28173
804.061	28474
804.204	28242
804.346	28169
804.488	28040
804.63	28287
804.773	28246
804.915	28139
805.057	28341
805.199	28173
805.341	28303
805.483	28363
805.626	28284
805.768	28299
805.91	28261
806.052	28306
806.194	28257
806.336	28569
806.478	28493
806.62	28276
806.762	28592
806.904	28569
807.046	28919
807.188	28850
807.33	28748
807.472	28748
807.614	28687
807.756	28679
807.898	28592
808.04	28489
808.182	28649
808.324	28755
808.465	28615
808.607	28923
808.749	28896
808.891	29098
809.033	29231
809.174	28987
809.316	28919
809.458	28854
809.6	28850
809.741	29117
809.883	29147
810.025	29189
810.166	29288
810.308	29235
810.45	29162
810.591	29121
810.733	29178
810.875	28953
811.016	28904
811.158	28999
811.299	28999
811.441	29109
811.582	29250
811.724	29079
811.865	29003
812.007	29022
812.148	29029
812.29	29250
812.431	29102
812.573	29337
812.714	29356
812.855	29440
812.997	29691
813.138	29843
813.279	29619
813.421	29551
813.562	29512
813.703	29379
813.845	29258
813.986	28862
814.127	28862
814.268	28858
814.41	28755
814.551	28664
814.692	28858
814.833	28611
814.974	28607
815.115	28835
815.256	28580
815.397	28679
815.539	28546
815.68	28531
815.821	28443
815.962	28424
816.103	28436
816.244	28382
816.385	28070
816.526	28276
816.666	28021
816.807	28143
816.948	28040
817.089	28257
817.23	28086
817.371	28048
817.512	28059
817.653	27994
817.793	27850
817.934	28078
818.075	27983
818.216	27998
818.356	27987
818.497	27842
818.638	27747
818.778	27709
818.919	27736
819.06	27831
819.2	28010
819.341	28048
819.481	28010
819.622	28162
819.762	28447
819.903	28082
820.043	28329
820.184	28158
820.324	28242
820.465	28044
820.605	28230
820.746	28272
820.886	27953
821.026	28204
821.167	28181
821.307	28223
821.447	28196
821.588	27960
821.728	27846
821.868	27641
822.008	27595
822.149	27542
822.289	27530
822.429	27237
822.569	27104
822.709	27066
822.849	26921
822.99	27138
823.13	27036
823.27	26781
823.41	26872
823.55	26765
823.69	26861
823.83	26743
823.97	26727
824.11	26636
824.25	26686
824.389	26579
824.529	26773
824.669	26678
824.809	26800
824.949	26758
825.089	26629
825.228	26716
825.368	26560
825.508	26556
825.648	26571
825.787	26575
825.927	26674
826.067	26442
826.206	26545
826.346	26560
826.485	26621
826.625	26560
826.765	26659
826.904	26587
827.044	26362
827.183	26233
827.323	26275
827.462	26298
827.601	26278
827.741	26172
827.88	26252
828.02	26157
828.159	26275
828.298	26191
828.437	26412
828.577	26077
828.716	26240
828.855	26233
828.994	25849
829.134	26031
829.273	26039
829.412	25997
829.551	25811
829.69	25917
829.829	25966
829.968	26096
830.107	26126
830.246	25970
830.385	25868
830.524	25708
830.663	25845
830.802	25693
830.941	25635
831.08	25441
831.219	25548
831.357	25529
831.496	25651
831.635	25525
831.774	25422
831.913	25453
832.051	25247
832.19	25247
832.329	25282
832.467	25190
832.606	25183
832.744	25202
832.883	25129
833.022	25110
833.16	25152
833.299	25160
833.437	25324
833.576	25221
833.714	25266
833.852	25335
833.991	25293
834.129	25362
834.267	25422
834.406	25213
834.544	25308
834.682	25346
834.821	25312
834.959	25438
835.097	25247
835.235	25278
835.373	25251
835.511	25225
835.65	25171
835.788	25141
835.926	24909
836.064	24935
836.202	24901
836.34	24935
836.478	25164
836.615	24951
836.753	25034
836.891	25187
837.029	25122
837.167	25122
837.305	24966
837.443	24966
837.58	25069
837.718	24924
837.856	24981
837.993	24935
838.131	24840
838.269	24749
838.406	24696
838.544	24779
838.681	24627
838.819	24597
838.956	24407
839.094	24418
839.231	24445
839.369	24665
839.506	24688
839.643	24639
839.781	24388
839.918	24350
840.055	24319
840.193	24353
840.33	24323
840.467	24334
840.604	24372
840.742	24521
840.879	24167
841.016	24220
841.153	24167
841.29	24384
841.427	24186
841.564	24433
841.701	24266
841.838	24224
841.975	24266
842.112	24361
842.249	24068
842.385	24003
842.522	24300
842.659	24049
842.796	24007
842.933	24114
843.069	24038
843.206	23836
843.343	24064
843.479	24144
843.616	23874
843.752	23908
843.889	23878
844.025	24034
844.162	23745
844.298	23889
844.435	23809
844.571	23726
844.708	23961
844.844	23897
844.98	23969
845.117	23912
845.253	23748
845.389	23638
845.525	23589
845.661	23672
845.798	23474
845.934	23630
846.07	23531
846.206	23653
846.342	23680
846.478	23368
846.614	23356
846.75	23128
846.886	23334
847.022	23334
847.158	23277
847.294	23265
847.429	23311
847.565	23246
847.701	23478
847.837	22915
847.972	22862
848.108	23239
848.244	23083
848.379	22881
848.515	22847
848.65	22927
848.786	22862
848.921	22881
849.057	22919
849.192	23018
849.328	22904
849.463	22873
849.598	22896
849.734	22702
849.869	22797
850.004	22550
850.14	22630
850.275	22630
850.41	22542
850.545	22596
850.68	22561
850.815	22672
850.95	22637
851.085	22767
851.22	22744
851.355	22550
851.49	22721
851.625	22656
851.76	22561
851.895	22531
852.03	22542
852.165	22672
852.299	22466
852.434	22755
852.569	22580
852.703	22626
852.838	22771
852.973	22554
853.107	22683
853.242	22656
853.376	22550
853.511	22470
853.645	22440
853.78	22611
853.914	22523
854.048	22333
854.183	22367
854.317	22360
854.451	22630
854.585	22607
854.72	22329
854.854	22379
854.988	22432
855.122	22462
855.256	22417
855.39	22542
855.524	22546
855.658	22462
855.792	22493
855.926	22390
856.06	22443
856.194	22546
856.327	22348
856.461	22371
856.595	22310
856.729	22493
856.862	22668
856.996	22318
857.13	22554
857.263	22733
857.397	22588
857.53	22413
857.664	22432
857.797	22504
857.931	22573
858.064	22405
858.197	22580
858.331	22413
858.464	22379
858.597	22329
858.731	22379
858.864	22344
858.997	22466
859.13	22436
859.263	22436
859.396	22382
859.529	22402
859.662	22318
859.795	22394
859.928	22451
860.061	22447
860.194	22557
860.327	22402
860.46	22538
860.592	22481
860.725	22565
860.858	22554
860.99	22386
861.123	22367
861.256	22424
861.388	22379
861.521	23083
861.653	22284
861.786	22226
861.918	22379
862.05	22314
862.183	22409
862.315	22344
862.447	22493
862.58	22310
862.712	22105
862.844	22059
862.976	22238
863.108	22226
863.24	22592
863.372	22128
863.504	22139
863.636	22139
863.768	22154
863.9	22139
864.032	22169
864.164	22032
864.296	22154
864.428	22261
864.559	22215
864.691	22207
864.823	22177
864.954	22055
865.086	22150
865.217	22021
865.349	22021
865.48	21987
865.612	21987
865.743	22139
865.875	21964
866.006	21899
866.137	22032
866.269	21903
866.4	22078
866.531	21926
866.662	21922
866.793	21964
866.924	22017
867.055	21983
867.186	22021
867.317	21911
867.448	21831
867.579	21960
867.71	21842
867.841	21937
867.972	21972
868.103	21945
868.233	21949
868.364	22006
868.495	22013
868.625	22158
868.756	22322
868.886	22143
869.017	22105
869.147	22280
869.278	22303
869.408	22204
869.539	22143
869.669	22265
869.799	22223
869.929	22481
870.06	22284
870.19	22535
870.32	22409
870.45	22565
870.58	22466
870.71	22645
870.84	22687
870.97	22554
871.1	22466
871.23	22694
871.36	22767
871.489	22622
871.619	22733
871.749	22778
871.879	22858
872.008	22957
872.138	22755
872.267	22729
872.397	22774
872.526	22607
872.656	22694
872.785	22645
872.915	22725
873.044	22774
873.173	22759
873.303	22889
873.432	22892
873.561	22911
873.69	22774
873.819	22869
873.948	22919
874.077	22877
874.206	22752
874.335	22736
874.464	22908
874.593	23067
874.722	22850
874.851	22949
874.979	23003
875.108	23105
875.237	22961
875.365	22934
875.494	22862
875.623	23105
875.751	23022
875.88	22980
876.008	23105
876.136	23189
876.265	23379
876.393	23604
876.521	23535
876.65	23608
876.778	23429
876.906	23231
877.034	23242
877.162	23376
877.29	23178
877.418	23349
877.546	23387
877.674	23280
877.802	23425
877.93	23337
878.058	23273
878.185	23303
878.313	23242
878.441	23261
878.568	23250
878.696	23231
878.824	23334
878.951	23493
879.079	23535
879.206	23577
879.333	23551
879.461	23349
879.588	23368
879.715	23539
879.842	23615
879.97	23452
880.097	23166
880.224	23075
880.351	23246
880.478	23155
880.605	23064
880.732	23121
880.859	23387
880.986	23246
881.112	23155
881.239	22927
881.366	22949
881.493	22797
881.619	22748
881.746	22694
881.872	22603
881.999	22664
882.125	22615
882.252	22725
882.378	22691
882.505	22877
882.631	22542
882.757	22497
882.883	22424
883.01	22371
883.136	22280
883.262	22188
883.388	22188
883.514	22299
883.64	22466
883.766	22314
883.892	22124
884.018	22196
884.143	22375
884.269	22485
884.395	22230
884.52	22147
884.646	22078
884.772	22040
884.897	21994
885.023	22101
885.148	22139
885.274	22040
885.399	22139
885.524	21975
885.65	22032
885.775	22002
885.9	22032
886.025	22143
886.15	22051
886.275	21972
886.4	21823
886.525	21975
886.65	21945
886.775	21956
886.9	22143
887.025	22318
887.149	21915
887.274	21831
887.399	21911
887.523	21785
887.648	21838
887.773	21694
887.897	21956
888.021	21941
888.146	21686
888.27	21903
888.395	21953
888.519	21793
888.643	21865
888.767	21747
888.891	21739
889.015	21534
889.139	21736
889.263	21637
889.387	21667
889.511	21831
889.635	21728
889.759	21610
889.883	21485
890.006	21614
890.13	21690
890.254	21507
890.377	21378
890.501	21378
890.624	21298
890.748	21355
890.871	21287
890.995	21150
891.118	21100
891.241	21184
891.364	21173
891.488	21146
891.611	21157
891.734	21142
891.857	21135
891.98	21150
892.103	21245
892.226	21203
892.349	21055
892.471	20906
892.594	21047
892.717	21112
892.839	21001
892.962	21051
893.085	21142
893.207	21001
893.33	20925
893.452	20910
893.575	21112
893.697	21020
893.819	21192
893.941	21222
894.064	21161
894.186	20975
894.308	21074
894.43	21093
894.552	21173
894.674	21165
894.796	20880
894.918	20990
895.04	20941
895.161	20925
895.283	21074
895.405	20944
895.526	20944
895.648	20979
895.769	20979
895.891	21036
896.012	21058
896.134	21043
896.255	21001
896.376	20868
896.498	20960
896.619	21001
896.74	20998
896.861	21032
896.982	21249
897.103	21481
897.224	21378
897.345	21214
897.466	21055
897.587	21317
897.708	21370
897.828	21313
897.949	21173
898.07	21150
898.19	21108
898.311	21237
898.431	21127
898.552	21233
898.672	21222
898.792	21279
898.913	21161
899.033	21214
899.153	20963
899.273	20765
899.393	20914
899.513	21066
899.633	20838
899.753	21028
899.873	20975
899.993	20998
900.113	20857
900.232	20834
900.352	20864
900.472	20743
900.591	20758
900.711	20777
900.83	20686
900.95	20785
901.069	20891
901.189	20469
901.308	20396
901.427	20271
901.546	20328
901.665	20301
901.784	20332
901.904	20202
902.023	20016
902.141	19799
902.26	19822
902.379	19750
902.498	19826
902.617	19776
902.735	19791
902.854	19887
902.973	19647
903.091	19506
903.21	19453
903.328	19453
903.446	19343
903.565	19251
903.683	19293
903.801	19171
903.919	19175
904.038	19244
904.156	19072
904.274	19137
904.392	19072
904.51	19061
904.627	18859
904.745	19015
904.863	19023
904.981	18829
905.098	18677
905.216	18753
905.334	18616
905.451	18566
905.569	18650
905.686	18650
905.803	18688
905.921	18547
906.038	18502
906.155	18464
906.272	18334
906.389	18448
906.506	18251
906.623	18163
906.74	18228
906.857	18038
906.974	18083
907.091	18342
907.208	18399
907.324	18243
907.441	18091
907.557	18003
907.674	17935
907.79	17954
907.907	17866
908.023	17832
908.139	18034
908.256	17767
908.372	17779
908.488	17870
908.604	17691
908.72	17543
908.836	17630
908.952	17634
909.068	17752
909.184	17729
909.3	17611
909.415	17570
909.531	17547
909.647	17383
909.762	17299
909.878	17216
909.993	17280
910.108	17265
910.224	17284
910.339	17193
910.454	17151
910.57	17067
910.685	17064
910.8	17261
910.915	17231
911.03	17060
911.145	16896
911.259	16831
911.374	16869
911.489	16763
911.604	16778
911.718	16702
911.833	16565
911.947	16459
912.062	16451
912.176	16683
912.291	16637
912.405	16618
912.519	16873
912.633	16755
912.748	16531
912.862	16630
912.976	16436
913.09	16382
913.204	16440
913.318	16508
913.431	16519
913.545	16554
913.659	16481
913.772	16424
913.886	16215
914	16265
914.113	16371
914.226	16280
914.34	16265
914.453	16109
914.566	16242
914.68	16154
914.793	16071
914.906	15899
915.019	15846
915.132	15671
915.245	15732
915.358	15835
915.47	15827
915.583	15846
915.696	15846
915.809	15899
915.921	15865
916.034	15774
916.146	15724
916.259	15728
916.371	15751
916.483	15759
916.595	15568
916.708	15709
916.82	15728
916.932	15618
917.044	15606
917.156	15603
917.268	15576
917.38	15447
917.491	15515
917.603	15386
917.715	15553
917.826	15629
917.938	15397
918.049	15230
918.161	15424
918.272	15469
918.384	15492
918.495	15401
918.606	15180
918.717	15150
918.828	15214
918.939	15237
919.05	14975
919.161	15104
919.272	14979
919.383	14986
919.494	15154
919.604	15370
919.715	15108
919.826	15051
919.936	15138
920.047	15150
920.157	15199
920.267	15313
920.378	15135
920.488	15062
920.598	15237
920.708	15458
920.818	15272
920.928	15180
921.038	15386
921.148	15348
921.258	14998
921.368	14937
921.477	14876
921.587	14872
921.697	14651
921.806	14785
921.916	14708
922.025	14575
922.134	14419
922.244	14358
922.353	14564
922.462	14396
922.571	14339
922.68	14233
922.789	14134
922.898	14157
923.007	14001
923.116	14229
923.224	14168
923.333	14050
923.442	13986
923.55	13898
923.659	13963
923.767	14081
923.876	13871
923.984	13993
924.092	13833
924.201	13940
924.309	13906
924.417	13791
924.525	13780
924.633	13803
924.741	14629
924.849	13609
924.956	13799
925.064	13567
925.172	13502
925.279	13419
925.387	13483
925.494	13438
925.602	13578
925.709	13552
925.816	13373
925.924	13411
926.031	13563
926.138	13441
926.245	13575
926.352	13369
926.459	13476
926.566	13495
926.673	13354
926.779	13213
926.886	13209
926.993	13061
927.099	13160
927.206	12985
927.312	12939
927.419	13076
927.525	13088
927.631	13076
927.737	12894
927.843	12783
927.95	12715
928.056	12894
928.162	12932
928.267	12875
928.373	13506
928.479	13019
928.585	12650
928.69	12764
928.796	12897
928.901	12772
929.007	12547
929.112	12738
929.218	12677
929.323	12620
929.428	12555
929.533	12642
929.638	12540
929.743	12578
929.848	12582
929.953	12479
930.058	12441
930.163	12247
930.267	12330
930.372	12426
930.477	12201
930.581	12361
930.685	12243
930.79	12102
930.894	12041
930.998	12079
931.103	12243
931.207	11859
931.311	11741
931.415	11729
931.519	11532
931.623	11505
