Data from test_V78500241_879.txt Node
Date: Fri Mar 25 15:47:53 CST 2022
User: usil
Spectrometer: V785-0024
Trigger mode: 0
Integration Time (sec): 4.000000E-1
Scans to average: 1
Nonlinearity correction enabled: false
Boxcar width: 0
Storing dark spectrum: false
XAxis mode: Wavelengths
Number of Pixels in Spectrum: 1024
>>>>>Begin Spectral Data<<<<<
801.071	27793
801.214	27580
801.356	27458
801.499	27443
801.641	27260
801.783	27233
801.926	27329
802.068	27192
802.211	27195
802.353	27093
802.496	27039
802.638	26861
802.78	27005
802.923	26998
803.065	26918
803.208	26952
803.35	26952
803.492	26971
803.635	26864
803.777	27028
803.919	27112
804.061	27363
804.204	27199
804.346	27020
804.488	27039
804.63	27119
804.773	27039
804.915	27146
805.057	27287
805.199	27116
805.341	27389
805.483	27241
805.626	27298
805.768	27188
805.91	27066
806.052	27355
806.194	27298
806.336	27523
806.478	27386
806.62	27256
806.762	27450
806.904	27557
807.046	27606
807.188	27603
807.33	27747
807.472	27667
807.614	27747
807.756	27660
807.898	27637
808.04	27488
808.182	27545
808.324	27614
808.465	27679
808.607	27682
808.749	27865
808.891	27949
809.033	28051
809.174	28086
809.316	27972
809.458	27903
809.6	27892
809.741	28120
809.883	27983
810.025	28310
810.166	28295
810.308	28177
810.45	28128
810.591	28082
810.733	27888
810.875	27876
811.016	27720
811.158	27808
811.299	28074
811.441	28112
811.582	28112
811.724	27869
811.865	27949
812.007	27903
812.148	28040
812.29	27838
812.431	28219
812.573	28211
812.714	28417
812.855	28481
812.997	28390
813.138	28740
813.279	28588
813.421	28462
813.562	28504
813.703	28230
813.845	28284
813.986	27793
814.127	27778
814.268	27591
814.41	27488
814.551	27526
814.692	27667
814.833	27576
814.974	27549
815.115	27462
815.256	27515
815.397	27507
815.539	27382
815.68	27348
815.821	27264
815.962	27450
816.103	27462
816.244	27378
816.385	27203
816.526	27108
816.666	27032
816.807	26880
816.948	27051
817.089	27047
817.23	27020
817.371	27047
817.512	26902
817.653	26902
817.793	26948
817.934	26876
818.075	26960
818.216	26891
818.356	26830
818.497	26857
818.638	26495
818.778	26579
818.919	26651
819.06	26731
819.2	26765
819.341	26914
819.481	26845
819.622	27127
819.762	27249
819.903	27032
820.043	27249
820.184	26998
820.324	26940
820.465	27047
820.605	26967
820.746	26979
820.886	26940
821.026	26921
821.167	27013
821.307	26956
821.447	26998
821.588	26838
821.728	26716
821.868	26568
822.008	26404
822.149	26377
822.289	26210
822.429	26126
822.569	26065
822.709	26050
822.849	25833
822.99	25913
823.13	25818
823.27	25807
823.41	25708
823.55	25559
823.69	25700
823.83	25651
823.97	25700
824.11	25693
824.25	25468
824.389	25464
824.529	25590
824.669	25601
824.809	25613
824.949	25548
825.089	25632
825.228	25578
825.368	25400
825.508	25369
825.648	25441
825.787	25499
825.927	25510
826.067	25384
826.206	25514
826.346	25441
826.485	25411
826.625	25354
826.765	25464
826.904	25343
827.044	25183
827.183	25270
827.323	25061
827.462	25069
827.601	25198
827.741	25103
827.88	25061
828.02	24871
828.159	25038
828.298	24966
828.437	25091
828.577	24924
828.716	25129
828.855	25050
828.994	24833
829.134	24764
829.273	24700
829.412	24684
829.551	24760
829.69	24795
829.829	24764
829.968	24867
830.107	24878
830.246	24757
830.385	24798
830.524	24612
830.663	24532
830.802	24528
830.941	24296
831.08	24403
831.219	24483
831.357	24517
831.496	24578
831.635	24342
831.774	24456
831.913	24197
832.051	24121
832.19	24133
832.329	24232
832.467	24102
832.606	23961
832.744	24045
832.883	23961
833.022	23965
833.16	24136
833.299	24254
833.437	24114
833.576	24133
833.714	24174
833.852	24194
833.991	24087
834.129	24197
834.267	24289
834.406	24095
834.544	24194
834.682	24087
834.821	24072
834.959	24372
835.097	24030
835.235	24281
835.373	24106
835.511	24121
835.65	24045
835.788	23965
835.926	23836
836.064	23665
836.202	23703
836.34	23988
836.478	24022
836.615	23885
836.753	23832
836.891	24072
837.029	23920
837.167	23908
837.305	23863
837.443	23805
837.58	23855
837.718	23821
837.856	23859
837.993	23767
838.131	23767
838.269	23729
838.406	23718
838.544	23634
838.681	23562
838.819	23459
838.956	23334
839.094	23261
839.231	23471
839.369	23478
839.506	23657
839.643	23459
839.781	23398
839.918	23296
840.055	23326
840.193	23208
840.33	23159
840.467	23128
840.604	23197
840.742	23493
840.879	23037
841.016	23117
841.153	23155
841.29	23204
841.427	23174
841.564	23181
841.701	23261
841.838	23048
841.975	23140
842.112	23060
842.249	23071
842.385	22953
842.522	23056
842.659	23041
842.796	22934
842.933	23048
843.069	22892
843.206	22881
843.343	23067
843.479	22919
843.616	22862
843.752	22713
843.889	22801
844.025	22805
844.162	22603
844.298	22755
844.435	22717
844.571	22649
844.708	22706
844.844	22908
844.98	22957
845.117	22911
845.253	22603
845.389	22554
845.525	22645
845.661	22497
845.798	22436
845.934	22371
846.07	22352
846.206	22561
846.342	22554
846.478	22333
846.614	22337
846.75	22082
846.886	22173
847.022	22211
847.158	22185
847.294	22154
847.429	22337
847.565	22120
847.701	22344
847.837	21991
847.972	21922
848.108	22002
848.244	21907
848.379	21838
848.515	21785
848.65	21743
848.786	21953
848.921	21660
849.057	21907
849.192	21941
849.328	21842
849.463	21804
849.598	21572
849.734	21755
849.869	21671
850.004	21663
850.14	21717
850.275	21454
850.41	21469
850.545	21450
850.68	21496
850.815	21458
850.95	21545
851.085	21701
851.22	21542
851.355	21603
851.49	21485
851.625	21523
851.76	21462
851.895	21530
852.03	21420
852.165	21530
852.299	21515
852.434	21739
852.569	21519
852.703	21485
852.838	21625
852.973	21549
853.107	21622
853.242	21351
853.376	21325
853.511	21325
853.645	21443
853.78	21511
853.914	21370
854.048	21382
854.183	21180
854.317	21344
854.451	21591
854.585	21272
854.72	21291
854.854	21389
854.988	21348
855.122	21405
855.256	21131
855.39	21386
855.524	21340
855.658	21367
855.792	21340
855.926	21348
856.06	21481
856.194	21496
856.327	21317
856.461	21222
856.595	21382
856.729	21317
856.862	21435
856.996	21507
857.13	21348
857.263	21485
857.397	21492
857.53	21359
857.664	21477
857.797	21492
857.931	21530
858.064	21344
858.197	21614
858.331	21412
858.464	21329
858.597	21154
858.731	21351
858.864	21382
858.997	21256
859.13	21378
859.263	21439
859.396	21348
859.529	21492
859.662	21397
859.795	21389
859.928	21431
860.061	21591
860.194	21542
860.327	21416
860.46	21332
860.592	21580
860.725	21523
860.858	21393
860.99	21397
861.123	21291
861.256	21291
861.388	21454
861.521	22040
861.653	21237
861.786	21100
861.918	21207
862.05	21321
862.183	21245
862.315	21367
862.447	21378
862.58	21207
862.712	21180
862.844	21108
862.976	21222
863.108	21150
863.24	21466
863.372	21055
863.504	20960
863.636	20998
863.768	21017
863.9	21100
864.032	20906
864.164	21112
864.296	21077
864.428	21104
864.559	21135
864.691	21176
864.823	21093
864.954	21207
865.086	21028
865.217	21024
865.349	20842
865.48	21093
865.612	20956
865.743	21085
865.875	21157
866.006	20925
866.137	21024
866.269	20910
866.4	20823
866.531	20918
866.662	20918
866.793	20864
866.924	20941
867.055	20952
867.186	21036
867.317	20986
867.448	20838
867.579	20788
867.71	20815
867.841	20891
867.972	20868
868.103	20864
868.233	20929
868.364	20933
868.495	21017
868.625	21112
868.756	21321
868.886	21203
869.017	21298
869.147	21283
869.278	21313
869.408	21184
869.539	21188
869.669	21241
869.799	21165
869.929	21249
870.06	21195
870.19	21500
870.32	21504
870.45	21462
870.58	21572
870.71	21759
870.84	21549
870.97	21564
871.1	21599
871.23	21709
871.36	21770
871.489	21583
871.619	21679
871.749	21736
871.879	21686
872.008	21899
872.138	21816
872.267	21800
872.397	21660
872.526	21679
872.656	21663
872.785	21633
872.915	21701
873.044	21785
873.173	21755
873.303	21873
873.432	21789
873.561	21884
873.69	21660
873.819	21838
873.948	21816
874.077	21800
874.206	21869
874.335	21781
874.464	21812
874.593	22002
874.722	22093
874.851	22063
874.979	22150
875.108	22048
875.237	21903
875.365	21884
875.494	21941
875.623	22025
875.751	21911
875.88	22112
876.008	22116
876.136	22131
876.265	22363
876.393	22474
876.521	22413
876.65	22341
876.778	22360
876.906	22440
877.034	22295
877.162	22390
877.29	22318
877.418	22394
877.546	22405
877.674	22478
877.802	22333
877.93	22314
878.058	22363
878.185	22310
878.313	22265
878.441	22394
878.568	22276
878.696	22246
878.824	22432
878.951	22402
879.079	22265
879.206	22542
879.333	22538
879.461	22489
879.588	22451
879.715	22421
879.842	22588
879.97	22440
880.097	22211
880.224	22196
880.351	22318
880.478	22166
880.605	22128
880.732	22128
880.859	22337
880.986	22131
881.112	22207
881.239	22048
881.366	21953
881.493	21732
881.619	21644
881.746	21842
881.872	21701
881.999	21671
882.125	21720
882.252	21755
882.378	21759
882.505	21892
882.631	21603
882.757	21481
882.883	21519
883.01	21504
883.136	21393
883.262	21291
883.388	21321
883.514	21450
883.64	21511
883.766	21424
883.892	21294
884.018	21237
884.143	21382
884.269	21386
884.395	21211
884.52	21055
884.646	21058
884.772	21070
884.897	20921
885.023	21089
885.148	21188
885.274	21222
885.399	21207
885.524	21100
885.65	21100
885.775	21165
885.9	20994
886.025	21077
886.15	21119
886.275	21036
886.4	20937
886.525	21100
886.65	20880
886.775	21013
886.9	21264
887.025	21363
887.149	20971
887.274	20906
887.399	20864
887.523	20891
887.648	20781
887.773	20697
887.897	21001
888.021	20826
888.146	20727
888.27	20796
888.395	20929
888.519	20826
888.643	20925
888.767	20925
888.891	20815
889.015	20716
889.139	20674
889.263	20556
889.387	20785
889.511	20918
889.635	20823
889.759	20545
889.883	20701
890.006	20655
890.13	20769
890.254	20568
890.377	20621
890.501	20362
890.624	20374
890.748	20393
890.871	20240
890.995	20195
891.118	20210
891.241	20157
891.364	20164
891.488	20313
891.611	20278
891.734	20214
891.857	20358
891.98	20111
892.103	20320
892.226	20237
892.349	20130
892.471	20077
892.594	20054
892.717	20225
892.839	20126
892.962	20103
893.085	20233
893.207	20206
893.33	20100
893.452	20024
893.575	20244
893.697	20031
893.819	20252
893.941	20434
894.064	20282
894.186	20054
894.308	20153
894.43	20111
894.552	20343
894.674	20256
894.796	20081
894.918	20046
895.04	20214
895.161	20153
895.283	20225
895.405	20088
895.526	20172
895.648	20161
895.769	20221
895.891	20259
896.012	20256
896.134	20248
896.255	20168
896.376	20180
896.498	20119
896.619	20130
896.74	20149
896.861	20271
896.982	20507
897.103	20560
897.224	20522
897.345	20233
897.466	20355
897.587	20358
897.708	20450
897.828	20355
897.949	20309
898.07	20282
898.19	20358
898.311	20518
898.431	20320
898.552	20476
898.672	20385
898.792	20396
898.913	20396
899.033	20263
899.153	20176
899.273	20092
899.393	20244
899.513	20180
899.633	20122
899.753	20221
899.873	20035
899.993	20031
900.113	19989
900.232	19982
900.352	19955
900.472	20069
900.591	19906
900.711	19944
900.83	19841
900.95	20054
901.069	20077
901.189	19875
901.308	19582
901.427	19426
901.546	19548
901.665	19445
901.784	19514
901.904	19426
902.023	19217
902.141	19148
902.26	19008
902.379	19057
902.498	19031
902.617	18985
902.735	19042
902.854	18939
902.973	18871
903.091	18730
903.21	18669
903.328	18582
903.446	18601
903.565	18563
903.683	18551
903.801	18315
903.919	18471
904.038	18441
904.156	18251
904.274	18262
904.392	18213
904.51	18178
904.627	18235
904.745	18220
904.863	18388
904.981	18015
905.098	17889
905.216	18038
905.334	17996
905.451	17939
905.569	17904
905.686	17863
905.803	17786
905.921	17783
906.038	17863
906.155	17707
906.272	17592
906.389	17539
906.506	17436
906.623	17425
906.74	17474
906.857	17265
906.974	17417
907.091	17334
907.208	17528
907.324	17474
907.441	17417
907.557	17254
907.674	17151
907.79	17113
907.907	17071
908.023	17277
908.139	17174
908.256	17113
908.372	17128
908.488	17048
908.604	16965
908.72	16949
908.836	16904
908.952	16725
909.068	16942
909.184	17048
909.3	16869
909.415	16949
909.531	16862
909.647	16653
909.762	16554
909.878	16550
909.993	16706
910.108	16622
910.224	16516
910.339	16565
910.454	16417
910.57	16569
910.685	16284
910.8	16634
910.915	16558
911.03	16424
911.145	16261
911.259	16200
911.374	16226
911.489	16090
911.604	16120
911.718	15911
911.833	15930
911.947	15838
912.062	15808
912.176	15968
912.291	15953
912.405	15934
912.519	16101
912.633	16166
912.748	16013
912.862	15937
912.976	15812
913.09	15652
913.204	15686
913.318	15793
913.431	15884
913.545	15850
913.659	15838
913.772	15629
913.886	15557
914	15450
914.113	15709
914.226	15679
914.34	15675
914.453	15473
914.566	15591
914.68	15401
914.793	15336
914.906	15275
915.019	15161
915.132	15157
915.245	15173
915.358	15188
915.47	15135
915.583	15138
915.696	15165
915.809	15275
915.921	15275
916.034	15180
916.146	15013
916.259	15051
916.371	15055
916.483	15180
916.595	15001
916.708	14963
916.82	14910
916.932	15017
917.044	14963
917.156	14937
917.268	14800
917.38	14834
917.491	14739
917.603	14899
917.715	14826
917.826	14975
917.938	14811
918.049	14663
918.161	14754
918.272	14853
918.384	14868
918.495	14758
918.606	14587
918.717	14507
918.828	14560
918.939	14598
919.05	14511
919.161	14549
919.272	14328
919.383	14492
919.494	14727
919.604	14705
919.715	14530
919.826	14469
919.936	14533
920.047	14613
920.157	14625
920.267	14644
920.378	14537
920.488	14457
920.598	14731
920.708	14819
920.818	14602
920.928	14575
921.038	14750
921.148	14762
921.258	14427
921.368	14400
921.477	14313
921.587	14233
921.697	14062
921.806	14275
921.916	14183
922.025	13963
922.134	13970
922.244	13814
922.353	13791
922.462	13803
922.571	13769
922.68	13556
922.789	13590
922.898	13655
923.007	13480
923.116	13613
923.224	13567
923.333	13487
923.442	13419
923.55	13369
923.659	13381
923.767	13415
923.876	13320
923.984	13373
924.092	13304
924.201	13327
924.309	13301
924.417	13282
924.525	13343
924.633	13369
924.741	14088
924.849	13069
924.956	13232
925.064	13061
925.172	12913
925.279	12973
925.387	12996
925.494	12863
925.602	13091
925.709	12954
925.816	12848
925.924	12928
926.031	12985
926.138	12814
926.245	12920
926.352	12886
926.459	12970
926.566	12958
926.673	12894
926.779	12707
926.886	12741
926.993	12559
927.099	12631
927.206	12490
927.312	12357
927.419	12475
927.525	12479
927.631	12585
927.737	12391
927.843	12365
927.95	12114
928.056	12376
928.162	12361
928.267	12426
928.373	12924
928.479	12456
928.585	12224
928.69	12327
928.796	12353
928.901	12239
929.007	12121
929.112	12235
929.218	12209
929.323	12095
929.428	12095
929.533	12186
929.638	12007
929.743	12034
929.848	12079
929.953	11992
930.058	11984
930.163	11676
930.267	11802
930.372	11859
930.477	11699
930.581	11920
930.685	11794
930.79	11718
930.894	11710
930.998	11596
931.103	11741
931.207	11364
931.311	11368
931.415	11174
931.519	11083
931.623	11048
