Data from test_V78500241_1335.txt Node
Date: Fri Mar 25 15:51:02 CST 2022
User: usil
Spectrometer: V785-0024
Trigger mode: 0
Integration Time (sec): 4.000000E-1
Scans to average: 1
Nonlinearity correction enabled: false
Boxcar width: 0
Storing dark spectrum: false
XAxis mode: Wavelengths
Number of Pixels in Spectrum: 1024
>>>>>Begin Spectral Data<<<<<
801.071	27880
801.214	27888
801.356	27709
801.499	27583
801.641	27431
801.783	27355
801.926	27420
802.068	27488
802.211	27348
802.353	27427
802.496	27165
802.638	26933
802.78	27051
802.923	27066
803.065	26971
803.208	27150
803.35	27085
803.492	27184
803.635	27355
803.777	27241
803.919	27256
804.061	27667
804.204	27462
804.346	27188
804.488	27176
804.63	27256
804.773	27192
804.915	27283
805.057	27389
805.199	27340
805.341	27370
805.483	27538
805.626	27454
805.768	27420
805.91	27504
806.052	27553
806.194	27427
806.336	27789
806.478	27412
806.62	27427
806.762	27564
806.904	27675
807.046	28013
807.188	27781
807.33	27949
807.472	27960
807.614	27926
807.756	27903
807.898	27644
808.04	27724
808.182	27614
808.324	27717
808.465	27850
808.607	27983
808.749	27983
808.891	28230
809.033	28325
809.174	28253
809.316	28173
809.458	28124
809.6	28196
809.741	28082
809.883	28291
810.025	28413
810.166	28310
810.308	28417
810.45	28272
810.591	28272
810.733	28154
810.875	28162
811.016	27998
811.158	27953
811.299	28078
811.441	28257
811.582	28219
811.724	28112
811.865	28090
812.007	28040
812.148	28090
812.29	28131
812.431	28322
812.573	28535
812.714	28413
812.855	28622
812.997	28725
813.138	28668
813.279	28694
813.421	28459
813.562	28637
813.703	28367
813.845	28367
813.986	28059
814.127	27781
814.268	27793
814.41	27819
814.551	27827
814.692	27842
814.833	27644
814.974	27789
815.115	27751
815.256	27625
815.397	27599
815.539	27724
815.68	27580
815.821	27568
815.962	27492
816.103	27728
816.244	27405
816.385	27340
816.526	27416
816.666	27237
816.807	27032
816.948	27226
817.089	27214
817.23	27100
817.371	26990
817.512	27036
817.653	26971
817.793	26937
817.934	27043
818.075	27036
818.216	27131
818.356	26998
818.497	26963
818.638	26678
818.778	26811
818.919	26838
819.06	26994
819.2	26906
819.341	27169
819.481	27047
819.622	27211
819.762	27378
819.903	27321
820.043	27264
820.184	27146
820.324	27230
820.465	27298
820.605	27055
820.746	27192
820.886	26960
821.026	27169
821.167	27077
821.307	27138
821.447	27161
821.588	26963
821.728	26857
821.868	26716
822.008	26651
822.149	26427
822.289	26575
822.429	26214
822.569	26309
822.709	26290
822.849	26084
822.99	26115
823.13	26142
823.27	26016
823.41	25879
823.55	25753
823.69	25906
823.83	25925
823.97	25761
824.11	25723
824.25	25616
824.389	25582
824.529	25803
824.669	25761
824.809	25826
824.949	25651
825.089	25894
825.228	25761
825.368	25597
825.508	25506
825.648	25616
825.787	25571
825.927	25468
826.067	25521
826.206	25468
826.346	25624
826.485	25723
826.625	25674
826.765	25582
826.904	25628
827.044	25350
827.183	25373
827.323	25206
827.462	25324
827.601	25346
827.741	25228
827.88	25331
828.02	25266
828.159	25236
828.298	25129
828.437	25415
828.577	25312
828.716	25369
828.855	25179
828.994	24973
829.134	24867
829.273	25034
829.412	24966
829.551	25031
829.69	24894
829.829	25008
829.968	24970
830.107	25012
830.246	25012
830.385	24943
830.524	24856
830.663	24859
830.802	24734
830.941	24608
831.08	24536
831.219	24688
831.357	24646
831.496	24837
831.635	24646
831.774	24490
831.913	24403
832.051	24247
832.19	24296
832.329	24304
832.467	24277
832.606	24190
832.744	24197
832.883	24323
833.022	24239
833.16	24289
833.299	24281
833.437	24285
833.576	24289
833.714	24334
833.852	24372
833.991	24327
834.129	24372
834.267	24311
834.406	24361
834.544	24361
834.682	24369
834.821	24235
834.959	24369
835.097	24338
835.235	24395
835.373	24285
835.511	24350
835.65	24155
835.788	24201
835.926	24076
836.064	23950
836.202	24072
836.34	24243
836.478	24209
836.615	24057
836.753	24098
836.891	24159
837.029	24152
837.167	24060
837.305	24098
837.443	23958
837.58	24060
837.718	24110
837.856	23882
837.993	23927
838.131	23988
838.269	23824
838.406	23836
838.544	23699
838.681	23604
838.819	23570
838.956	23345
839.094	23410
839.231	23551
839.369	23710
839.506	23828
839.643	23630
839.781	23474
839.918	23322
840.055	23535
840.193	23474
840.33	23284
840.467	23406
840.604	23433
840.742	23562
840.879	23223
841.016	23383
841.153	23197
841.29	23486
841.427	23197
841.564	23497
841.701	23284
841.838	23250
841.975	23193
842.112	23189
842.249	23121
842.385	23162
842.522	23315
842.659	23121
842.796	23113
842.933	23033
843.069	23060
843.206	22869
843.343	23143
843.479	23022
843.616	23094
843.752	22786
843.889	22759
844.025	23022
844.162	22805
844.298	22972
844.435	22828
844.571	22900
844.708	22869
844.844	23029
844.98	23083
845.117	22869
845.253	22850
845.389	22752
845.525	22850
845.661	22786
845.798	22573
845.934	22641
846.07	22596
846.206	22611
846.342	22759
846.478	22691
846.614	22329
846.75	22295
846.886	22352
847.022	22284
847.158	22413
847.294	22287
847.429	22417
847.565	22261
847.701	22478
847.837	22051
847.972	22017
848.108	22226
848.244	22181
848.379	22063
848.515	21903
848.65	21941
848.786	21869
848.921	22002
849.057	21960
849.192	21972
849.328	22025
849.463	21861
849.598	21827
849.734	21915
849.869	21846
850.004	21679
850.14	21682
850.275	21686
850.41	21622
850.545	21564
850.68	21762
850.815	21663
850.95	21686
851.085	21842
851.22	21816
851.355	21663
851.49	21694
851.625	21652
851.76	21644
851.895	21564
852.03	21450
852.165	21705
852.299	21736
852.434	21743
852.569	21679
852.703	21743
852.838	21785
852.973	21732
853.107	21892
853.242	21595
853.376	21428
853.511	21401
853.645	21450
853.78	21580
853.914	21583
854.048	21458
854.183	21507
854.317	21644
854.451	21713
854.585	21447
854.72	21435
854.854	21538
854.988	21504
855.122	21530
855.256	21485
855.39	21306
855.524	21488
855.658	21580
855.792	21370
855.926	21576
856.06	21526
856.194	21675
856.327	21545
856.461	21500
856.595	21416
856.729	21591
856.862	21576
856.996	21568
857.13	21561
857.263	21637
857.397	21603
857.53	21435
857.664	21526
857.797	21488
857.931	21648
858.064	21447
858.197	21576
858.331	21526
858.464	21420
858.597	21336
858.731	21443
858.864	21515
858.997	21473
859.13	21435
859.263	21435
859.396	21622
859.529	21485
859.662	21488
859.795	21587
859.928	21526
860.061	21717
860.194	21625
860.327	21507
860.46	21542
860.592	21591
860.725	21698
860.858	21587
860.99	21473
861.123	21374
861.256	21473
861.388	21507
861.521	22150
861.653	21389
861.786	21401
861.918	21260
862.05	21283
862.183	21405
862.315	21389
862.447	21462
862.58	21405
862.712	21268
862.844	21245
862.976	21302
863.108	21226
863.24	21572
863.372	21146
863.504	21165
863.636	21252
863.768	21252
863.9	21260
864.032	21218
864.164	21161
864.296	21260
864.428	21428
864.559	21310
864.691	21264
864.823	21123
864.954	21116
865.086	21241
865.217	21123
865.349	21096
865.48	21173
865.612	21108
865.743	21230
865.875	21218
866.006	21180
866.137	21017
866.269	21135
866.4	21218
866.531	21108
866.662	21024
866.793	21013
866.924	21077
867.055	21108
867.186	21100
867.317	21024
867.448	20990
867.579	21081
867.71	20861
867.841	20986
867.972	21074
868.103	21028
868.233	21028
868.364	21074
868.495	21135
868.625	21268
868.756	21431
868.886	21192
869.017	21283
869.147	21355
869.278	21370
869.408	21268
869.539	21195
869.669	21374
869.799	21458
869.929	21370
870.06	21431
870.19	21641
870.32	21564
870.45	21622
870.58	21580
870.71	21819
870.84	21835
870.97	21709
871.1	21728
871.23	21808
871.36	21941
871.489	21751
871.619	21797
871.749	21766
871.879	21895
872.008	21911
872.138	21953
872.267	21899
872.397	21823
872.526	21694
872.656	21717
872.785	21705
872.915	21922
873.044	21926
873.173	21949
873.303	21983
873.432	22070
873.561	22074
873.69	21888
873.819	21873
873.948	21953
874.077	21892
874.206	21736
874.335	21983
874.464	21975
874.593	22318
874.722	22002
874.851	22166
874.979	22048
875.108	22318
875.237	22207
875.365	21983
875.494	22070
875.623	22322
875.751	22044
875.88	22177
876.008	22291
876.136	22318
876.265	22512
876.393	22672
876.521	22489
876.65	22645
876.778	22424
876.906	22481
877.034	22394
877.162	22459
877.29	22356
877.418	22531
877.546	22428
877.674	22504
877.802	22485
877.93	22382
878.058	22436
878.185	22314
878.313	22466
878.441	22508
878.568	22246
878.696	22474
878.824	22474
878.951	22531
879.079	22691
879.206	22866
879.333	22607
879.461	22497
879.588	22603
879.715	22717
879.842	22626
879.97	22516
880.097	22295
880.224	22249
880.351	22306
880.478	22295
880.605	22360
880.732	22276
880.859	22500
880.986	22280
881.112	22219
881.239	22177
881.366	22059
881.493	21975
881.619	21960
881.746	21865
881.872	21755
881.999	21789
882.125	21846
882.252	21945
882.378	21842
882.505	21998
882.631	21717
882.757	21580
882.883	21564
883.01	21690
883.136	21500
883.262	21492
883.388	21473
883.514	21553
883.64	21545
883.766	21458
883.892	21389
884.018	21348
884.143	21469
884.269	21523
884.395	21252
884.52	21176
884.646	21192
884.772	21085
884.897	21116
885.023	21192
885.148	21420
885.274	21336
885.399	21454
885.524	21275
885.65	21317
885.775	21272
885.9	21138
886.025	21378
886.15	21245
886.275	21127
886.4	21150
886.525	21142
886.65	21104
886.775	21089
886.9	21252
887.025	21355
887.149	21127
887.274	21001
887.399	20899
887.523	20982
887.648	21017
887.773	20796
887.897	20899
888.021	21028
888.146	20861
888.27	21127
888.395	21157
888.519	21062
888.643	21058
888.767	20971
888.891	20933
889.015	20777
889.139	20720
889.263	20697
889.387	20765
889.511	21039
889.635	20746
889.759	20750
889.883	20712
890.006	20800
890.13	20849
890.254	20678
890.377	20689
890.501	20442
890.624	20412
890.748	20575
890.871	20434
890.995	20240
891.118	20336
891.241	20431
891.364	20347
891.488	20514
891.611	20377
891.734	20282
891.857	20313
891.98	20412
892.103	20381
892.226	20229
892.349	20225
892.471	20161
892.594	20256
892.717	20282
892.839	20400
892.962	20199
893.085	20400
893.207	20187
893.33	20187
893.452	20157
893.575	20271
893.697	20206
893.819	20267
893.941	20408
894.064	20256
894.186	20126
894.308	20172
894.43	20320
894.552	20438
894.674	20294
894.796	20161
894.918	20218
895.04	20252
895.161	20278
895.283	20294
895.405	20221
895.526	20153
895.648	20168
895.769	20221
895.891	20263
896.012	20343
896.134	20244
896.255	20233
896.376	20206
896.498	20225
896.619	20282
896.74	20248
896.861	20328
896.982	20499
897.103	20689
897.224	20545
897.345	20469
897.466	20358
897.587	20507
897.708	20579
897.828	20503
897.949	20488
898.07	20332
898.19	20332
898.311	20556
898.431	20412
898.552	20423
898.672	20594
898.792	20419
898.913	20358
899.033	20271
899.153	20252
899.273	20149
899.393	20267
899.513	20191
899.633	20100
899.753	20332
899.873	20062
899.993	20164
900.113	20157
900.232	20153
900.352	20126
900.472	20046
900.591	19898
900.711	19967
900.83	19925
900.95	20077
901.069	20115
901.189	19818
901.308	19548
901.427	19499
901.546	19552
901.665	19689
901.784	19567
901.904	19285
902.023	19392
902.141	19183
902.26	19103
902.379	19232
902.498	19038
902.617	19012
902.735	19168
902.854	19069
902.973	18920
903.091	18882
903.21	18722
903.328	18817
903.446	18776
903.565	18627
903.683	18528
903.801	18479
903.919	18506
904.038	18410
904.156	18285
904.274	18399
904.392	18361
904.51	18262
904.627	18228
904.745	18384
904.863	18361
904.981	18136
905.098	18057
905.216	18007
905.334	18045
905.451	18011
905.569	17946
905.686	18049
905.803	17973
905.921	17748
906.038	18007
906.155	17809
906.272	17630
906.389	17824
906.506	17592
906.623	17490
906.74	17562
906.857	17356
906.974	17455
907.091	17581
907.208	17630
907.324	17501
907.441	17429
907.557	17296
907.674	17307
907.79	17128
907.907	17197
908.023	17235
908.139	17235
908.256	17189
908.372	17155
908.488	17140
908.604	16965
908.72	16946
908.836	16831
908.952	16854
909.068	16881
909.184	17029
909.3	16995
909.415	17037
909.531	17010
909.647	16698
909.762	16729
909.878	16519
909.993	16615
910.108	16573
910.224	16653
910.339	16675
910.454	16527
910.57	16424
910.685	16344
910.8	16687
910.915	16645
911.03	16371
911.145	16215
911.259	16284
911.374	16295
911.489	16200
911.604	16147
911.718	16013
911.833	15960
911.947	15895
912.062	15838
912.176	16063
912.291	16036
912.405	15998
912.519	16257
912.633	16150
912.748	15979
912.862	15911
912.976	15797
913.09	15652
913.204	15800
913.318	15812
913.431	15884
913.545	15873
913.659	15850
913.772	15743
913.886	15644
914	15633
914.113	15618
914.226	15804
914.34	15584
914.453	15462
914.566	15633
914.68	15416
914.793	15435
914.906	15298
915.019	15264
915.132	15207
915.245	15112
915.358	15207
915.47	15252
915.583	15176
915.696	15226
915.809	15252
915.921	15386
916.034	15131
916.146	15119
916.259	15024
916.371	15302
916.483	15131
916.595	15123
916.708	15009
916.82	15039
916.932	15043
917.044	14937
917.156	14956
917.268	14842
917.38	14826
917.491	14952
917.603	14880
917.715	14929
917.826	14899
917.938	14754
918.049	14739
918.161	14788
918.272	14982
918.384	14872
918.495	14765
918.606	14667
918.717	14610
918.828	14689
918.939	14621
919.05	14457
919.161	14613
919.272	14396
919.383	14522
919.494	14598
919.604	14868
919.715	14571
919.826	14488
919.936	14389
920.047	14724
920.157	14552
920.267	14777
920.378	14629
920.488	14473
920.598	14712
920.708	14910
920.818	14697
920.928	14617
921.038	14872
921.148	14937
921.258	14545
921.368	14469
921.477	14400
921.587	14282
921.697	14218
921.806	14320
921.916	14058
922.025	14100
922.134	13928
922.244	13906
922.353	13967
922.462	13822
922.571	13753
922.68	13594
922.789	13613
922.898	13571
923.007	13567
923.116	13575
923.224	13559
923.333	13571
923.442	13499
923.55	13308
923.659	13506
923.767	13548
923.876	13411
923.984	13533
924.092	13304
924.201	13434
924.309	13369
924.417	13320
924.525	13198
924.633	13255
924.741	14225
924.849	13217
924.956	13137
925.064	13084
925.172	13008
925.279	12993
925.387	13065
925.494	13012
925.602	13171
925.709	13000
925.816	12886
925.924	12954
926.031	13050
926.138	13034
926.245	13015
926.352	12810
926.459	13015
926.566	13103
926.673	12856
926.779	12734
926.886	12715
926.993	12578
927.099	12578
927.206	12627
927.312	12540
927.419	12669
927.525	12616
927.631	12601
927.737	12437
927.843	12429
927.95	12262
928.056	12418
928.162	12407
928.267	12441
928.373	13110
928.479	12452
928.585	12129
928.69	12395
928.796	12429
928.901	12292
929.007	12129
929.112	12270
929.218	12182
929.323	12213
929.428	12144
929.533	12205
929.638	11992
929.743	12003
929.848	12091
929.953	12068
930.058	11935
930.163	11764
930.267	11889
930.372	11901
930.477	11737
930.581	11999
930.685	11821
930.79	11649
930.894	11710
930.998	11688
931.103	11813
931.207	11410
931.311	11379
931.415	11239
931.519	11033
931.623	11064
