Data from test_V78500241_1500.txt Node
Date: Fri Mar 25 15:52:11 CST 2022
User: usil
Spectrometer: V785-0024
Trigger mode: 0
Integration Time (sec): 4.000000E-1
Scans to average: 1
Nonlinearity correction enabled: false
Boxcar width: 0
Storing dark spectrum: false
XAxis mode: Wavelengths
Number of Pixels in Spectrum: 1024
>>>>>Begin Spectral Data<<<<<
801.071	28101
801.214	27895
801.356	27717
801.499	27614
801.641	27485
801.783	27488
801.926	27496
802.068	27660
802.211	27515
802.353	27473
802.496	27214
802.638	27291
802.78	27275
802.923	27089
803.065	27058
803.208	27192
803.35	27233
803.492	27348
803.635	27466
803.777	27370
803.919	27370
804.061	27762
804.204	27507
804.346	27287
804.488	27420
804.63	27553
804.773	27298
804.915	27549
805.057	27538
805.199	27450
805.341	27469
805.483	27618
805.626	27553
805.768	27511
805.91	27553
806.052	27679
806.194	27507
806.336	27766
806.478	27587
806.62	27564
806.762	27652
806.904	27842
807.046	28158
807.188	27964
807.33	27930
807.472	28021
807.614	27895
807.756	27941
807.898	28013
808.04	27831
808.182	27937
808.324	27747
808.465	27873
808.607	28048
808.749	28303
808.891	28299
809.033	28314
809.174	28166
809.316	28280
809.458	28333
809.6	28181
809.741	28268
809.883	28352
810.025	28577
810.166	28485
810.308	28401
810.45	28466
810.591	28367
810.733	28257
810.875	28451
811.016	28010
811.158	28173
811.299	28310
811.441	28329
811.582	28485
811.724	28333
811.865	28226
812.007	28131
812.148	28143
812.29	28299
812.431	28348
812.573	28561
812.714	28588
812.855	28771
812.997	28744
813.138	28968
813.279	28938
813.421	28812
813.562	28668
813.703	28615
813.845	28481
813.986	28166
814.127	28074
814.268	27808
814.41	27987
814.551	27888
814.692	27922
814.833	27831
814.974	27876
815.115	28021
815.256	27660
815.397	27770
815.539	27808
815.68	27778
815.821	27603
815.962	27743
816.103	27637
816.244	27515
816.385	27534
816.526	27412
816.666	27363
816.807	27150
816.948	27313
817.089	27359
817.23	27211
817.371	27131
817.512	27184
817.653	27138
817.793	27138
817.934	27184
818.075	27344
818.216	27207
818.356	27081
818.497	27051
818.638	26853
818.778	26876
818.919	26979
819.06	27005
819.2	27169
819.341	27146
819.481	27085
819.622	27294
819.762	27504
819.903	27344
820.043	27477
820.184	27325
820.324	27279
820.465	27370
820.605	27279
820.746	27348
820.886	27184
821.026	27306
821.167	27382
821.307	27329
821.447	27127
821.588	27047
821.728	27005
821.868	26811
822.008	26693
822.149	26705
822.289	26632
822.429	26393
822.569	26396
822.709	26423
822.849	26218
822.99	26119
823.13	26039
823.27	26168
823.41	26020
823.55	25993
823.69	25955
823.83	26111
823.97	25951
824.11	25837
824.25	25761
824.389	25883
824.529	25849
824.669	25803
824.809	26024
824.949	25864
825.089	25902
825.228	25879
825.368	25571
825.508	25795
825.648	25719
825.787	25795
825.927	25852
826.067	25643
826.206	25616
826.346	25723
826.485	25780
826.625	25613
826.765	25761
826.904	25685
827.044	25396
827.183	25563
827.323	25373
827.462	25449
827.601	25529
827.741	25308
827.88	25392
828.02	25316
828.159	25293
828.298	25411
828.437	25365
828.577	25449
828.716	25468
828.855	25259
828.994	25095
829.134	25118
829.273	25057
829.412	24996
829.551	25042
829.69	25072
829.829	25122
829.968	25053
830.107	25308
830.246	24985
830.385	25065
830.524	24932
830.663	24924
830.802	24905
830.941	24730
831.08	24642
831.219	24817
831.357	24829
831.496	24943
831.635	24696
831.774	24627
831.913	24673
832.051	24540
832.19	24486
832.329	24669
832.467	24308
832.606	24311
832.744	24490
832.883	24467
833.022	24403
833.16	24433
833.299	24441
833.437	24384
833.576	24483
833.714	24433
833.852	24429
833.991	24570
834.129	24456
834.267	24513
834.406	24429
834.544	24414
834.682	24456
834.821	24315
834.959	24669
835.097	24399
835.235	24486
835.373	24494
835.511	24471
835.65	24350
835.788	24296
835.926	24194
836.064	24098
836.202	24095
836.34	24266
836.478	24391
836.615	24258
836.753	24315
836.891	24350
837.029	24266
837.167	24235
837.305	24144
837.443	24144
837.58	24133
837.718	24235
837.856	24144
837.993	23935
838.131	23999
838.269	24049
838.406	24064
838.544	23977
838.681	23798
838.819	23783
838.956	23596
839.094	23653
839.231	23604
839.369	23847
839.506	24076
839.643	23950
839.781	23668
839.918	23570
840.055	23554
840.193	23547
840.33	23467
840.467	23448
840.604	23581
840.742	23817
840.879	23330
841.016	23326
841.153	23455
841.29	23638
841.427	23551
841.564	23414
841.701	23539
841.838	23429
841.975	23364
842.112	23490
842.249	23353
842.385	23220
842.522	23372
842.659	23299
842.796	23189
842.933	23303
843.069	23155
843.206	23345
843.343	23269
843.479	23208
843.616	23265
843.752	23136
843.889	23037
844.025	23162
844.162	22908
844.298	22965
844.435	23003
844.571	23006
844.708	23006
844.844	23193
844.98	23174
845.117	23216
845.253	22923
845.389	22809
845.525	22919
845.661	22938
845.798	22740
845.934	22797
846.07	22790
846.206	22729
846.342	22889
846.478	22736
846.614	22466
846.75	22436
846.886	22405
847.022	22588
847.158	22508
847.294	22561
847.429	22527
847.565	22497
847.701	22679
847.837	22063
847.972	22272
848.108	22348
848.244	22276
848.379	21994
848.515	22055
848.65	22051
848.786	22150
848.921	22059
849.057	22226
849.192	22181
849.328	22086
849.463	22055
849.598	22086
849.734	22029
849.869	21945
850.004	21751
850.14	21698
850.275	21797
850.41	21660
850.545	21774
850.68	21823
850.815	21934
850.95	21804
851.085	22124
851.22	22036
851.355	21778
851.49	21861
851.625	21781
851.76	21835
851.895	21869
852.03	21876
852.165	21823
852.299	22002
852.434	21945
852.569	21774
852.703	21926
852.838	21884
852.973	22036
853.107	22078
853.242	21831
853.376	21660
853.511	21561
853.645	21637
853.78	21686
853.914	21732
854.048	21667
854.183	21599
854.317	21713
854.451	21819
854.585	21720
854.72	21675
854.854	21679
854.988	21549
855.122	21747
855.256	21576
855.39	21637
855.524	21747
855.658	21762
855.792	21599
855.926	21709
856.06	21679
856.194	21720
856.327	21572
856.461	21526
856.595	21720
856.729	21656
856.862	21880
856.996	21652
857.13	21648
857.263	21747
857.397	21804
857.53	21633
857.664	21812
857.797	21770
857.931	21800
858.064	21743
858.197	21690
858.331	21720
858.464	21587
858.597	21568
858.731	21576
858.864	21561
858.997	21679
859.13	21606
859.263	21663
859.396	21789
859.529	21709
859.662	21698
859.795	21637
859.928	21641
860.061	21770
860.194	21915
860.327	21709
860.46	21747
860.592	21724
860.725	21720
860.858	21827
860.99	21614
861.123	21576
861.256	21583
861.388	21675
861.521	22291
861.653	21599
861.786	21439
861.918	21443
862.05	21610
862.183	21568
862.315	21633
862.447	21511
862.58	21583
862.712	21332
862.844	21401
862.976	21622
863.108	21466
863.24	21873
863.372	21469
863.504	21374
863.636	21332
863.768	21408
863.9	21367
864.032	21344
864.164	21363
864.296	21389
864.428	21473
864.559	21344
864.691	21268
864.823	21355
864.954	21249
865.086	21477
865.217	21237
865.349	21116
865.48	21203
865.612	21313
865.743	21348
865.875	21367
866.006	21173
866.137	21188
866.269	21264
866.4	21264
866.531	21142
866.662	21184
866.793	21135
866.924	21123
867.055	21249
867.186	21237
867.317	21195
867.448	21070
867.579	21157
867.71	21123
867.841	20994
867.972	21233
868.103	21230
868.233	21203
868.364	21192
868.495	21294
868.625	21458
868.756	21500
868.886	21336
869.017	21492
869.147	21549
869.278	21595
869.408	21458
869.539	21481
869.669	21557
869.799	21530
869.929	21504
870.06	21591
870.19	21835
870.32	21675
870.45	21797
870.58	21812
870.71	21903
870.84	21949
870.97	21800
871.1	21907
871.23	21918
871.36	22013
871.489	21964
871.619	21838
871.749	22029
871.879	22120
872.008	22090
872.138	21975
872.267	22025
872.397	21842
872.526	21850
872.656	21838
872.785	21941
872.915	22067
873.044	22185
873.173	21979
873.303	22363
873.432	22120
873.561	22131
873.69	21953
873.819	22158
873.948	22097
874.077	22044
874.206	21991
874.335	21968
874.464	22143
874.593	22299
874.722	22329
874.851	22143
874.979	22287
875.108	22356
875.237	22348
875.365	22120
875.494	22158
875.623	22310
875.751	22246
875.88	22352
876.008	22375
876.136	22538
876.265	22679
876.393	22717
876.521	22721
876.65	22771
876.778	22588
876.906	22603
877.034	22516
877.162	22630
877.29	22577
877.418	22634
877.546	22744
877.674	22668
877.802	22519
877.93	22675
878.058	22557
878.185	22531
878.313	22626
878.441	22516
878.568	22428
878.696	22615
878.824	22683
878.951	22672
879.079	22831
879.206	22850
879.333	22748
879.461	22615
879.588	22717
879.715	22889
879.842	22866
879.97	22755
880.097	22470
880.224	22508
880.351	22459
880.478	22489
880.605	22402
880.732	22535
880.859	22664
880.986	22367
881.112	22455
881.239	22303
881.366	22192
881.493	22128
881.619	22131
881.746	22226
881.872	22090
881.999	22112
882.125	21930
882.252	22101
882.378	22063
882.505	22078
882.631	21930
882.757	21736
882.883	21800
883.01	21667
883.136	21663
883.262	21686
883.388	21523
883.514	21671
883.64	21728
883.766	21572
883.892	21420
884.018	21542
884.143	21606
884.269	21789
884.395	21454
884.52	21306
884.646	21340
884.772	21241
884.897	21188
885.023	21279
885.148	21458
885.274	21504
885.399	21405
885.524	21348
885.65	21405
885.775	21447
885.9	21241
886.025	21424
886.15	21386
886.275	21325
886.4	21279
886.525	21302
886.65	21203
886.775	21287
886.9	21553
887.025	21523
887.149	21313
887.274	21146
887.399	21093
887.523	21188
887.648	20990
887.773	20929
887.897	21199
888.021	21184
888.146	21058
888.27	21222
888.395	21272
888.519	21180
888.643	21199
888.767	21184
888.891	21017
889.015	20967
889.139	20979
889.263	20933
889.387	21013
889.511	21043
889.635	21047
889.759	20963
889.883	20830
890.006	20773
890.13	20883
890.254	20948
890.377	20842
890.501	20674
890.624	20674
890.748	20667
890.871	20667
890.995	20541
891.118	20511
891.241	20480
891.364	20431
891.488	20602
891.611	20423
891.734	20454
891.857	20625
891.98	20583
892.103	20549
892.226	20583
892.349	20336
892.471	20202
892.594	20415
892.717	20370
892.839	20351
892.962	20343
893.085	20514
893.207	20317
893.33	20294
893.452	20309
893.575	20514
893.697	20408
893.819	20518
893.941	20617
894.064	20450
894.186	20298
894.308	20180
894.43	20442
894.552	20537
894.674	20556
894.796	20195
894.918	20309
895.04	20339
895.161	20385
895.283	20431
895.405	20320
895.526	20461
895.648	20309
895.769	20461
895.891	20396
896.012	20488
896.134	20404
896.255	20309
896.376	20336
896.498	20446
896.619	20431
896.74	20389
896.861	20514
896.982	20758
897.103	20921
897.224	20617
897.345	20632
897.466	20499
897.587	20549
897.708	20716
897.828	20659
897.949	20549
898.07	20415
898.19	20602
898.311	20644
898.431	20560
898.552	20522
898.672	20651
898.792	20689
898.913	20636
899.033	20511
899.153	20419
899.273	20202
899.393	20339
899.513	20366
899.633	20275
899.753	20256
899.873	20145
899.993	20362
900.113	20248
900.232	20370
900.352	20366
900.472	20290
900.591	20024
900.711	20111
900.83	20122
900.95	20240
901.069	20248
901.189	19951
901.308	19769
901.427	19655
901.546	19670
901.665	19639
901.784	19738
901.904	19533
902.023	19430
902.141	19396
902.26	19209
902.379	19381
902.498	19232
902.617	19202
902.735	19365
902.854	19095
902.973	19050
903.091	18916
903.21	18901
903.328	18833
903.446	18844
903.565	18650
903.683	18707
903.801	18452
903.919	18589
904.038	18642
904.156	18369
904.274	18452
904.392	18410
904.51	18437
904.627	18471
904.745	18376
904.863	18483
904.981	18243
905.098	18140
905.216	18076
905.334	18190
905.451	18129
905.569	18026
905.686	18140
905.803	18144
905.921	17912
906.038	18106
906.155	18026
906.272	17851
906.389	17802
906.506	17592
906.623	17638
906.74	17649
906.857	17497
906.974	17608
907.091	17737
907.208	17748
907.324	17703
907.441	17573
907.557	17425
907.674	17440
907.79	17284
907.907	17349
908.023	17341
908.139	17448
908.256	17440
908.372	17216
908.488	17254
908.604	17041
908.72	17094
908.836	17105
908.952	17052
909.068	17105
909.184	17246
909.3	16991
909.415	17079
909.531	16991
909.647	16839
909.762	16706
909.878	16805
909.993	16759
910.108	16736
910.224	16816
910.339	16713
910.454	16672
910.57	16596
910.685	16558
910.8	16774
910.915	16706
911.03	16531
911.145	16382
911.259	16314
911.374	16405
911.489	16280
911.604	16299
911.718	16181
911.833	16177
911.947	16006
912.062	15964
912.176	16131
912.291	16112
912.405	16002
912.519	16341
912.633	16291
912.748	16086
912.862	16093
912.976	15979
913.09	15766
913.204	15797
913.318	15899
913.431	15994
913.545	15964
913.659	15975
913.772	15926
913.886	15785
914	15823
914.113	15880
914.226	15823
914.34	15739
914.453	15736
914.566	15759
914.68	15576
914.793	15587
914.906	15340
915.019	15321
915.132	15302
915.245	15283
915.358	15294
915.47	15340
915.583	15351
915.696	15351
915.809	15408
915.921	15435
916.034	15237
916.146	15192
916.259	15195
916.371	15351
916.483	15230
916.595	15169
916.708	15203
916.82	15161
916.932	15131
917.044	15123
917.156	15100
917.268	14975
917.38	14979
917.491	14937
917.603	14925
917.715	15047
917.826	15135
917.938	14849
918.049	14880
918.161	14990
918.272	15001
918.384	15032
918.495	14914
918.606	14765
918.717	14655
918.828	14712
918.939	14796
919.05	14636
919.161	14686
919.272	14480
919.383	14484
919.494	14670
919.604	14960
919.715	14606
919.826	14587
919.936	14667
920.047	14594
920.157	14693
920.267	14727
920.378	14606
920.488	14583
920.598	14891
920.708	14895
920.818	14819
920.928	14811
921.038	14982
921.148	14902
921.258	14590
921.368	14541
921.477	14423
921.587	14355
921.697	14271
921.806	14362
921.916	14229
922.025	14138
922.134	13989
922.244	14046
922.353	14077
922.462	13978
922.571	13871
922.68	13757
922.789	13670
922.898	13639
923.007	13601
923.116	13715
923.224	13658
923.333	13700
923.442	13605
923.55	13518
923.659	13483
923.767	13544
923.876	13533
923.984	13552
924.092	13369
924.201	13487
924.309	13430
924.417	13434
924.525	13308
924.633	13194
924.741	14202
924.849	13110
924.956	13244
925.064	13099
925.172	13164
925.279	13050
925.387	13072
925.494	13114
925.602	13263
925.709	13198
925.816	12977
925.924	13107
926.031	13156
926.138	13015
926.245	13110
926.352	12970
926.459	13004
926.566	13065
926.673	12970
926.779	12878
926.886	12802
926.993	12783
927.099	12658
927.206	12623
927.312	12559
927.419	12791
927.525	12544
927.631	12707
927.737	12540
927.843	12471
927.95	12426
928.056	12513
928.162	12559
928.267	12506
928.373	13156
928.479	12589
928.585	12330
928.69	12456
928.796	12483
928.901	12429
929.007	12216
929.112	12350
929.218	12315
929.323	12277
929.428	12171
929.533	12277
929.638	12163
929.743	12167
929.848	12197
929.953	12197
930.058	12079
930.163	11950
930.267	11878
930.372	12087
930.477	11878
930.581	12110
930.685	11901
930.79	11809
930.894	11813
930.998	11737
931.103	11866
931.207	11554
931.311	11452
931.415	11303
931.519	11128
931.623	11128
