Data from test_V78500241_1376.txt Node
Date: Fri Mar 25 15:51:20 CST 2022
User: usil
Spectrometer: V785-0024
Trigger mode: 0
Integration Time (sec): 4.000000E-1
Scans to average: 1
Nonlinearity correction enabled: false
Boxcar width: 0
Storing dark spectrum: false
XAxis mode: Wavelengths
Number of Pixels in Spectrum: 1024
>>>>>Begin Spectral Data<<<<<
801.071	28223
801.214	28063
801.356	27762
801.499	27861
801.641	27675
801.783	27660
801.926	27679
802.068	27618
802.211	27618
802.353	27648
802.496	27336
802.638	27233
802.78	27241
802.923	27180
803.065	27279
803.208	27302
803.35	27370
803.492	27568
803.635	27462
803.777	27336
803.919	27557
804.061	27819
804.204	27618
804.346	27549
804.488	27427
804.63	27477
804.773	27447
804.915	27424
805.057	27500
805.199	27504
805.341	27542
805.483	27625
805.626	27652
805.768	27553
805.91	27511
806.052	27732
806.194	27652
806.336	27831
806.478	27652
806.62	27660
806.762	27800
806.904	28010
807.046	28135
807.188	28219
807.33	28101
807.472	28238
807.614	28226
807.756	28029
807.898	27994
808.04	27991
808.182	27808
808.324	27991
808.465	27991
808.607	28116
808.749	28295
808.891	28500
809.033	28466
809.174	28253
809.316	28287
809.458	28204
809.6	28322
809.741	28318
809.883	28535
810.025	28615
810.166	28599
810.308	28531
810.45	28531
810.591	28702
810.733	28333
810.875	28287
811.016	28261
811.158	28295
811.299	28287
811.441	28557
811.582	28451
811.724	28405
811.865	28230
812.007	28295
812.148	28329
812.29	28352
812.431	28447
812.573	28596
812.714	28637
812.855	28801
812.997	29006
813.138	29071
813.279	28949
813.421	28691
813.562	28721
813.703	28649
813.845	28603
813.986	28386
814.127	28158
814.268	28029
814.41	27983
814.551	28044
814.692	28048
814.833	27876
814.974	28021
815.115	27983
815.256	27800
815.397	27861
815.539	28006
815.68	27914
815.821	27755
815.962	27895
816.103	27682
816.244	27641
816.385	27515
816.526	27576
816.666	27443
816.807	27237
816.948	27325
817.089	27313
817.23	27302
817.371	27393
817.512	27310
817.653	27378
817.793	27116
817.934	27176
818.075	27310
818.216	27260
818.356	27313
818.497	27150
818.638	26986
818.778	26975
818.919	27001
819.06	27195
819.2	27169
819.341	27169
819.481	27226
819.622	27431
819.762	27660
819.903	27561
820.043	27519
820.184	27515
820.324	27408
820.465	27367
820.605	27393
820.746	27416
820.886	27310
821.026	27412
821.167	27447
821.307	27572
821.447	27294
821.588	27176
821.728	26864
821.868	26887
822.008	26785
822.149	26758
822.289	26682
822.429	26575
822.569	26446
822.709	26575
822.849	26309
822.99	26263
823.13	26252
823.27	26339
823.41	26119
823.55	26092
823.69	26130
823.83	26130
823.97	26103
824.11	25936
824.25	25860
824.389	25917
824.529	25936
824.669	25883
824.809	26073
824.949	26012
825.089	26020
825.228	25925
825.368	25818
825.508	25769
825.648	25780
825.787	25852
825.927	25940
826.067	25746
826.206	25833
826.346	25753
826.485	25830
826.625	25765
826.765	25970
826.904	25864
827.044	25605
827.183	25445
827.323	25525
827.462	25518
827.601	25609
827.741	25426
827.88	25499
828.02	25407
828.159	25483
828.298	25464
828.437	25521
828.577	25445
828.716	25643
828.855	25358
828.994	25202
829.134	25209
829.273	25251
829.412	25263
829.551	25156
829.69	25282
829.829	25400
829.968	25350
830.107	25316
830.246	25232
830.385	25110
830.524	25110
830.663	25023
830.802	24894
830.941	24821
831.08	24738
831.219	24901
831.357	24890
831.496	25046
831.635	24772
831.774	24616
831.913	24798
832.051	24791
832.19	24692
832.329	24593
832.467	24547
832.606	24483
832.744	24471
832.883	24372
833.022	24479
833.16	24422
833.299	24540
833.437	24604
833.576	24650
833.714	24582
833.852	24597
833.991	24711
834.129	24597
834.267	24688
834.406	24684
834.544	24536
834.682	24574
834.821	24540
834.959	24802
835.097	24418
835.235	24673
835.373	24623
835.511	24445
835.65	24380
835.788	24486
835.926	24281
836.064	24216
836.202	24262
836.34	24448
836.478	24467
836.615	24338
836.753	24429
836.891	24391
837.029	24384
837.167	24410
837.305	24258
837.443	24254
837.58	24323
837.718	24273
837.856	24197
837.993	24079
838.131	24182
838.269	24163
838.406	24060
838.544	23939
838.681	23988
838.819	23710
838.956	23790
839.094	23752
839.231	23714
839.369	23977
839.506	24129
839.643	23980
839.781	23630
839.918	23661
840.055	23592
840.193	23566
840.33	23718
840.467	23684
840.604	23691
840.742	23958
840.879	23577
841.016	23634
841.153	23615
841.29	23722
841.427	23619
841.564	23585
841.701	23520
841.838	23585
841.975	23531
842.112	23467
842.249	23448
842.385	23269
842.522	23520
842.659	23455
842.796	23277
842.933	23204
843.069	23246
843.206	23383
843.343	23376
843.479	23330
843.616	23376
843.752	23254
843.889	23166
844.025	23315
844.162	22999
844.298	23162
844.435	23174
844.571	23124
844.708	23105
844.844	23200
844.98	23280
845.117	23334
845.253	23151
845.389	22987
845.525	23033
845.661	23052
845.798	22881
845.934	22923
846.07	22801
846.206	22850
846.342	23083
846.478	22877
846.614	22645
846.75	22485
846.886	22508
847.022	22713
847.158	22645
847.294	22542
847.429	22778
847.565	22599
847.701	22820
847.837	22337
847.972	22382
848.108	22516
848.244	22443
848.379	22200
848.515	22169
848.65	22147
848.786	22261
848.921	22192
849.057	22318
849.192	22287
849.328	22318
849.463	22120
849.598	22124
849.734	22063
849.869	21964
850.004	22029
850.14	21975
850.275	21941
850.41	21930
850.545	21918
850.68	21934
850.815	22002
850.95	21968
851.085	22257
851.22	22010
851.355	21907
851.49	21972
851.625	21880
851.76	21960
851.895	21808
852.03	21835
852.165	22013
852.299	21915
852.434	22048
852.569	21854
852.703	21926
852.838	22048
852.973	22048
853.107	22101
853.242	21918
853.376	21823
853.511	21618
853.645	21785
853.78	21987
853.914	21770
854.048	21667
854.183	21751
854.317	21846
854.451	21941
854.585	21781
854.72	21804
854.854	21873
854.988	21644
855.122	21793
855.256	21648
855.39	21724
855.524	21819
855.658	21850
855.792	21698
855.926	21850
856.06	21823
856.194	21903
856.327	21732
856.461	21789
856.595	21789
856.729	21728
856.862	21888
856.996	21743
857.13	21789
857.263	21850
857.397	21816
857.53	21823
857.664	21861
857.797	21850
857.931	21854
858.064	21907
858.197	21831
858.331	21720
858.464	21690
858.597	21595
858.731	21728
858.864	21629
858.997	21838
859.13	21766
859.263	21747
859.396	21751
859.529	21762
859.662	21755
859.795	21736
859.928	21724
860.061	21911
860.194	21987
860.327	21846
860.46	21770
860.592	21934
860.725	21968
860.858	21888
860.99	21747
861.123	21762
861.256	21682
861.388	21709
861.521	22462
861.653	21603
861.786	21504
861.918	21599
862.05	21610
862.183	21603
862.315	21759
862.447	21838
862.58	21701
862.712	21599
862.844	21348
862.976	21530
863.108	21454
863.24	21903
863.372	21466
863.504	21580
863.636	21420
863.768	21416
863.9	21500
864.032	21397
864.164	21382
864.296	21523
864.428	21633
864.559	21507
864.691	21595
864.823	21519
864.954	21454
865.086	21389
865.217	21416
865.349	21192
865.48	21325
865.612	21291
865.743	21431
865.875	21291
866.006	21336
866.137	21431
866.269	21473
866.4	21329
866.531	21176
866.662	21218
866.793	21382
866.924	21332
867.055	21230
867.186	21313
867.317	21298
867.448	21138
867.579	21264
867.71	21188
867.841	21192
867.972	21374
868.103	21325
868.233	21359
868.364	21233
868.495	21393
868.625	21583
868.756	21641
868.886	21416
869.017	21469
869.147	21553
869.278	21690
869.408	21458
869.539	21500
869.669	21648
869.799	21606
869.929	21694
870.06	21603
870.19	21812
870.32	21835
870.45	21991
870.58	21968
870.71	21926
870.84	21972
870.97	21953
871.1	22010
871.23	22192
871.36	22097
871.489	22040
871.619	22105
871.749	22219
871.879	22078
872.008	22162
872.138	22067
872.267	22120
872.397	21979
872.526	21964
872.656	22006
872.785	22086
872.915	22109
873.044	22261
873.173	22135
873.303	22192
873.432	22226
873.561	22280
873.69	22219
873.819	22128
873.948	22276
874.077	22219
874.206	22051
874.335	22166
874.464	22325
874.593	22382
874.722	22348
874.851	22303
874.979	22409
875.108	22519
875.237	22455
875.365	22322
875.494	22413
875.623	22371
875.751	22272
875.88	22386
876.008	22493
876.136	22527
876.265	22675
876.393	22881
876.521	22759
876.65	22892
876.778	22812
876.906	22668
877.034	22729
877.162	22740
877.29	22592
877.418	22733
877.546	22710
877.674	22759
877.802	22675
877.93	22774
878.058	22748
878.185	22592
878.313	22538
878.441	22816
878.568	22683
878.696	22656
878.824	22771
878.951	22713
879.079	22858
879.206	23003
879.333	22854
879.461	22816
879.588	22881
879.715	22881
879.842	23048
879.97	22767
880.097	22584
880.224	22462
880.351	22675
880.478	22538
880.605	22451
880.732	22481
880.859	22839
880.986	22611
881.112	22527
881.239	22344
881.366	22249
881.493	22177
881.619	22143
881.746	22082
881.872	22082
881.999	22070
882.125	22010
882.252	22120
882.378	22048
882.505	22090
882.631	22036
882.757	21899
882.883	21892
883.01	21831
883.136	21751
883.262	21652
883.388	21694
883.514	21846
883.64	21755
883.766	21800
883.892	21682
884.018	21603
884.143	21743
884.269	21778
884.395	21542
884.52	21393
884.646	21359
884.772	21340
884.897	21378
885.023	21393
885.148	21477
885.274	21553
885.399	21644
885.524	21538
885.65	21313
885.775	21443
885.9	21439
886.025	21561
886.15	21526
886.275	21378
886.4	21344
886.525	21439
886.65	21321
886.775	21412
886.9	21492
887.025	21736
887.149	21367
887.274	21325
887.399	21355
887.523	21173
887.648	21001
887.773	21116
887.897	21332
888.021	21230
888.146	21131
888.27	21317
888.395	21317
888.519	21226
888.643	21317
888.767	21207
888.891	21032
889.015	20845
889.139	21043
889.263	20891
889.387	21119
889.511	21135
889.635	21123
889.759	20918
889.883	20918
890.006	20956
890.13	20933
890.254	20925
890.377	20876
890.501	20727
890.624	20735
890.748	20758
890.871	20640
890.995	20522
891.118	20526
891.241	20621
891.364	20579
891.488	20636
891.611	20686
891.734	20674
891.857	20511
891.98	20606
892.103	20644
892.226	20560
892.349	20408
892.471	20431
892.594	20495
892.717	20560
892.839	20476
892.962	20476
893.085	20423
893.207	20408
893.33	20286
893.452	20347
893.575	20473
893.697	20317
893.819	20670
893.941	20575
894.064	20640
894.186	20408
894.308	20336
894.43	20492
894.552	20499
894.674	20518
894.796	20381
894.918	20358
895.04	20389
895.161	20423
895.283	20423
895.405	20423
895.526	20469
895.648	20393
895.769	20594
895.891	20465
896.012	20590
896.134	20473
896.255	20377
896.376	20343
896.498	20434
896.619	20404
896.74	20427
896.861	20621
896.982	20872
897.103	20811
897.224	20777
897.345	20724
897.466	20609
897.587	20609
897.708	20754
897.828	20796
897.949	20541
898.07	20556
898.19	20617
898.311	20746
898.431	20469
898.552	20720
898.672	20769
898.792	20686
898.913	20697
899.033	20587
899.153	20396
899.273	20351
899.393	20412
899.513	20366
899.633	20499
899.753	20511
899.873	20446
899.993	20343
900.113	20286
900.232	20240
900.352	20218
900.472	20229
900.591	20153
900.711	20237
900.83	20221
900.95	20256
901.069	20157
901.189	19993
901.308	19826
901.427	19757
901.546	19807
901.665	19811
901.784	19788
901.904	19540
902.023	19616
902.141	19324
902.26	19308
902.379	19377
902.498	19232
902.617	19213
902.735	19278
902.854	19244
902.973	19141
903.091	18924
903.21	18958
903.328	18928
903.446	18890
903.565	18741
903.683	18665
903.801	18658
903.919	18703
904.038	18684
904.156	18555
904.274	18654
904.392	18498
904.51	18429
904.627	18467
904.745	18479
904.863	18642
904.981	18304
905.098	18213
905.216	18220
905.334	18334
905.451	18186
905.569	18235
905.686	18174
905.803	18209
905.921	17882
906.038	18152
906.155	18003
906.272	17935
906.389	17779
906.506	17646
906.623	17764
906.74	17695
906.857	17604
906.974	17687
907.091	17691
907.208	17885
907.324	17661
907.441	17649
907.557	17497
907.674	17410
907.79	17395
907.907	17436
908.023	17436
908.139	17425
908.256	17341
908.372	17250
908.488	17318
908.604	17159
908.72	17117
908.836	17166
908.952	17094
909.068	17155
909.184	17292
909.3	17132
909.415	17128
909.531	17223
909.647	16831
909.762	16915
909.878	16866
909.993	16854
910.108	16786
910.224	16706
910.339	16721
910.454	16622
910.57	16683
910.685	16550
910.8	16896
910.915	16820
911.03	16599
911.145	16538
911.259	16512
911.374	16428
911.489	16318
911.604	16295
911.718	16196
911.833	16173
911.947	16071
912.062	15994
912.176	16147
912.291	16196
912.405	16196
912.519	16314
912.633	16272
912.748	16181
912.862	16097
912.976	16086
913.09	15770
913.204	15911
913.318	15941
913.431	16074
913.545	15991
913.659	16074
913.772	15903
913.886	15751
914	15739
914.113	15895
914.226	15831
914.34	15778
914.453	15682
914.566	15724
914.68	15682
914.793	15622
914.906	15477
915.019	15397
915.132	15336
915.245	15386
915.358	15397
915.47	15359
915.583	15340
915.696	15450
915.809	15477
915.921	15473
916.034	15313
916.146	15302
916.259	15161
916.371	15355
916.483	15233
916.595	15237
916.708	15249
916.82	15233
916.932	15211
917.044	15180
917.156	15093
917.268	14990
917.38	15104
917.491	15055
917.603	15043
917.715	14952
917.826	15154
917.938	14948
918.049	14933
918.161	14918
918.272	15146
918.384	15039
918.495	15039
918.606	14762
918.717	14724
918.828	14899
918.939	14864
919.05	14727
919.161	14663
919.272	14511
919.383	14552
919.494	14845
919.604	14910
919.715	14857
919.826	14621
919.936	14758
920.047	14804
920.157	14701
920.267	14849
920.378	14750
920.488	14716
920.598	14887
920.708	14975
920.818	14811
920.928	14842
921.038	15047
921.148	14952
921.258	14727
921.368	14560
921.477	14518
921.587	14503
921.697	14415
921.806	14473
921.916	14396
922.025	14180
922.134	14103
922.244	14092
922.353	13974
922.462	14035
922.571	13909
922.68	13803
922.789	13784
922.898	13818
923.007	13658
923.116	13746
923.224	13765
923.333	13738
923.442	13590
923.55	13620
923.659	13609
923.767	13552
923.876	13445
923.984	13571
924.092	13422
924.201	13434
924.309	13582
924.417	13339
924.525	13377
924.633	13403
924.741	14294
924.849	13217
924.956	13327
925.064	13145
925.172	13118
925.279	13179
925.387	13263
925.494	13156
925.602	13232
925.709	13126
925.816	13122
925.924	13069
926.031	13095
926.138	13061
926.245	13183
926.352	12985
926.459	13183
926.566	13118
926.673	13015
926.779	12916
926.886	12878
926.993	12787
927.099	12658
927.206	12745
927.312	12544
927.419	12684
927.525	12684
927.631	12764
927.737	12612
927.843	12574
927.95	12452
928.056	12460
928.162	12563
928.267	12677
928.373	13164
928.479	12585
928.585	12380
928.69	12551
928.796	12536
928.901	12330
929.007	12323
929.112	12517
929.218	12338
929.323	12277
929.428	12247
929.533	12353
929.638	12144
929.743	12258
929.848	12323
929.953	12239
930.058	12072
930.163	11847
930.267	11958
930.372	12038
930.477	11973
930.581	12152
930.685	11969
930.79	11707
930.894	11821
930.998	11790
931.103	11893
931.207	11581
931.311	11558
931.415	11353
931.519	11162
931.623	11174
