Data from test_V78500241_3649.txt Node
Date: Fri Mar 25 16:07:04 CST 2022
User: usil
Spectrometer: V785-0024
Trigger mode: 0
Integration Time (sec): 4.000000E-1
Scans to average: 1
Nonlinearity correction enabled: false
Boxcar width: 0
Storing dark spectrum: false
XAxis mode: Wavelengths
Number of Pixels in Spectrum: 1024
>>>>>Begin Spectral Data<<<<<
801.071	28318
801.214	28348
801.356	28093
801.499	27937
801.641	27774
801.783	27724
801.926	27914
802.068	27766
802.211	27793
802.353	27797
802.496	27595
802.638	27530
802.78	27469
802.923	27367
803.065	27363
803.208	27526
803.35	27549
803.492	27648
803.635	27705
803.777	27633
803.919	27698
804.061	28112
804.204	27953
804.346	27698
804.488	27671
804.63	27789
804.773	27739
804.915	27690
805.057	27884
805.199	27755
805.341	27922
805.483	28029
805.626	27819
805.768	27842
805.91	27922
806.052	27956
806.194	27850
806.336	27953
806.478	27956
806.62	27941
806.762	28086
806.904	28246
807.046	28405
807.188	28360
807.33	28299
807.472	28303
807.614	28280
807.756	28348
807.898	28162
808.04	28002
808.182	28226
808.324	28253
808.465	28196
808.607	28504
808.749	28561
808.891	28641
809.033	28748
809.174	28675
809.316	28607
809.458	28512
809.6	28535
809.741	28729
809.883	28809
810.025	28744
810.166	28881
810.308	28923
810.45	28706
810.591	28831
810.733	28793
810.875	28622
811.016	28489
811.158	28417
811.299	28607
811.441	28744
811.582	28771
811.724	28679
811.865	28664
812.007	28569
812.148	28611
812.29	28656
812.431	28717
812.573	28946
812.714	28965
812.855	29044
812.997	29204
813.138	29398
813.279	29322
813.421	29098
813.562	29022
813.703	28980
813.845	28744
813.986	28504
814.127	28382
814.268	28230
814.41	28337
814.551	28246
814.692	28337
814.833	28082
814.974	28200
815.115	28360
815.256	28177
815.397	28097
815.539	28112
815.68	28063
815.821	28036
815.962	28048
816.103	27899
816.244	27914
816.385	27918
816.526	27892
816.666	27614
816.807	27526
816.948	27648
817.089	27667
817.23	27564
817.371	27561
817.512	27580
817.653	27500
817.793	27564
817.934	27458
818.075	27660
818.216	27526
818.356	27469
818.497	27583
818.638	27348
818.778	27367
818.919	27412
819.06	27348
819.2	27538
819.341	27580
819.481	27614
819.622	27701
819.762	27926
819.903	27907
820.043	27770
820.184	27793
820.324	27751
820.465	27739
820.605	27591
820.746	27660
820.886	27542
821.026	27568
821.167	27523
821.307	27720
821.447	27485
821.588	27492
821.728	27344
821.868	27184
822.008	27017
822.149	27001
822.289	26986
822.429	26842
822.569	26667
822.709	26754
822.849	26579
822.99	26549
823.13	26587
823.27	26461
823.41	26396
823.55	26237
823.69	26267
823.83	26244
823.97	26256
824.11	26172
824.25	26214
824.389	26168
824.529	26298
824.669	26180
824.809	26294
824.949	26355
825.089	26202
825.228	26191
825.368	26046
825.508	25928
825.648	26100
825.787	26229
825.927	26107
826.067	26050
826.206	26043
826.346	26233
826.485	26248
826.625	26005
826.765	26256
826.904	26020
827.044	25902
827.183	25947
827.323	25856
827.462	25909
827.601	25765
827.741	25791
827.88	25845
828.02	25761
828.159	25715
828.298	25887
828.437	25738
828.577	25689
828.716	25811
828.855	25601
828.994	25540
829.134	25506
829.273	25563
829.412	25411
829.551	25320
829.69	25483
829.829	25552
829.968	25525
830.107	25426
830.246	25453
830.385	25441
830.524	25388
830.663	25266
830.802	25171
830.941	25152
831.08	25046
831.219	25095
831.357	25118
831.496	25331
831.635	25088
831.774	24977
831.913	24977
832.051	24890
832.19	24817
832.329	24856
832.467	24760
832.606	24833
832.744	24722
832.883	24642
833.022	24753
833.16	24814
833.299	24795
833.437	24760
833.576	24916
833.714	24783
833.852	24810
833.991	24928
834.129	24806
834.267	24947
834.406	24939
834.544	24970
834.682	24802
834.821	24791
834.959	25065
835.097	24844
835.235	24875
835.373	24875
835.511	24711
835.65	24692
835.788	24700
835.926	24555
836.064	24410
836.202	24429
836.34	24642
836.478	24703
836.615	24757
836.753	24544
836.891	24646
837.029	24429
837.167	24639
837.305	24654
837.443	24730
837.58	24483
837.718	24460
837.856	24448
837.993	24483
838.131	24289
838.269	24311
838.406	24273
838.544	24327
838.681	24083
838.819	24076
838.956	23950
839.094	23866
839.231	23916
839.369	24060
839.506	24357
839.643	24106
839.781	24083
839.918	23874
840.055	23980
840.193	23866
840.33	23851
840.467	23893
840.604	23851
840.742	24045
840.879	23646
841.016	23699
841.153	23733
841.29	23832
841.427	23874
841.564	23908
841.701	23832
841.838	23756
841.975	23714
842.112	23840
842.249	23767
842.385	23653
842.522	23737
842.659	23707
842.796	23627
842.933	23570
843.069	23551
843.206	23585
843.343	23676
843.479	23767
843.616	23558
843.752	23379
843.889	23391
844.025	23535
844.162	23364
844.298	23528
844.435	23334
844.571	23356
844.708	23433
844.844	23551
844.98	23493
845.117	23509
845.253	23307
845.389	23223
845.525	23178
845.661	23170
845.798	23094
845.934	23185
846.07	23022
846.206	23208
846.342	23223
846.478	23083
846.614	22843
846.75	22828
846.886	22946
847.022	22927
847.158	22854
847.294	22892
847.429	22889
847.565	22839
847.701	23090
847.837	22470
847.972	22523
848.108	22557
848.244	22755
848.379	22428
848.515	22417
848.65	22272
848.786	22443
848.921	22470
849.057	22538
849.192	22569
849.328	22497
849.463	22436
849.598	22417
849.734	22409
849.869	22230
850.004	22276
850.14	22188
850.275	22211
850.41	22112
850.545	22215
850.68	22177
850.815	22360
850.95	22169
851.085	22333
851.22	22352
851.355	22128
851.49	22135
851.625	22173
851.76	22139
851.895	22112
852.03	22120
852.165	22242
852.299	22284
852.434	22204
852.569	22226
852.703	22169
852.838	22272
852.973	22322
853.107	22276
853.242	22204
853.376	21953
853.511	21884
853.645	21979
853.78	22124
853.914	21945
854.048	22002
854.183	22010
854.317	22074
854.451	22363
854.585	22017
854.72	22048
854.854	22147
854.988	21956
855.122	22067
855.256	21964
855.39	22013
855.524	22067
855.658	22044
855.792	21964
855.926	22029
856.06	22070
856.194	22200
856.327	21960
856.461	21968
856.595	21991
856.729	22051
856.862	22143
856.996	22063
857.13	22219
857.263	22226
857.397	22063
857.53	22048
857.664	22109
857.797	22063
857.931	22109
858.064	21987
858.197	22131
858.331	21945
858.464	22021
858.597	21960
858.731	21915
858.864	21915
858.997	22032
859.13	22090
859.263	22036
859.396	22067
859.529	21983
859.662	22173
859.795	21998
859.928	22059
860.061	22120
860.194	22215
860.327	22006
860.46	22078
860.592	22150
860.725	22265
860.858	22173
860.99	22044
861.123	21899
861.256	21964
861.388	21979
861.521	22774
861.653	21937
861.786	21751
861.918	21876
862.05	21972
862.183	21960
862.315	21972
862.447	21972
862.58	21785
862.712	21663
862.844	21778
862.976	21892
863.108	21968
863.24	22265
863.372	21698
863.504	21717
863.636	21686
863.768	21747
863.9	21724
864.032	21644
864.164	21717
864.296	21774
864.428	21884
864.559	21728
864.691	21728
864.823	21606
864.954	21854
865.086	21717
865.217	21675
865.349	21538
865.48	21572
865.612	21644
865.743	21770
865.875	21583
866.006	21576
866.137	21553
866.269	21606
866.4	21656
866.531	21553
866.662	21507
866.793	21492
866.924	21625
867.055	21614
867.186	21549
867.317	21481
867.448	21542
867.579	21488
867.71	21500
867.841	21428
867.972	21648
868.103	21439
868.233	21625
868.364	21599
868.495	21671
868.625	21751
868.756	21892
868.886	21732
869.017	21781
869.147	21842
869.278	21888
869.408	21732
869.539	21827
869.669	21797
869.799	21800
869.929	21915
870.06	21945
870.19	22101
870.32	22105
870.45	22169
870.58	22295
870.71	22325
870.84	22428
870.97	22215
871.1	22253
871.23	22485
871.36	22375
871.489	22322
871.619	22382
871.749	22265
871.879	22333
872.008	22455
872.138	22375
872.267	22447
872.397	22318
872.526	22276
872.656	22116
872.785	22230
872.915	22295
873.044	22618
873.173	22489
873.303	22512
873.432	22341
873.561	22489
873.69	22424
873.819	22375
873.948	22546
874.077	22459
874.206	22329
874.335	22382
874.464	22584
874.593	22641
874.722	22656
874.851	22634
874.979	22683
875.108	22694
875.237	22535
875.365	22531
875.494	22668
875.623	22771
875.751	22698
875.88	22698
876.008	22778
876.136	22767
876.265	22976
876.393	23056
876.521	23037
876.65	23022
876.778	23037
876.906	23003
877.034	22957
877.162	23006
877.29	23060
877.418	22942
877.546	22968
877.674	22946
877.802	22968
877.93	22980
878.058	22885
878.185	22862
878.313	23022
878.441	23014
878.568	22801
878.696	22908
878.824	22904
878.951	23193
879.079	23105
879.206	23345
879.333	23197
879.461	23014
879.588	23197
879.715	23155
879.842	23189
879.97	23162
880.097	22831
880.224	22786
880.351	22923
880.478	22816
880.605	22729
880.732	22755
880.859	22995
880.986	22881
881.112	22915
881.239	22733
881.366	22516
881.493	22417
881.619	22421
881.746	22424
881.872	22447
881.999	22333
882.125	22284
882.252	22398
882.378	22352
882.505	22523
882.631	22284
882.757	22051
882.883	22147
883.01	22078
883.136	22013
883.262	21972
883.388	21854
883.514	22090
883.64	22032
883.766	21960
883.892	21888
884.018	21774
884.143	21960
884.269	22074
884.395	21774
884.52	21679
884.646	21720
884.772	21671
884.897	21641
885.023	21720
885.148	21690
885.274	21888
885.399	21698
885.524	21804
885.65	21652
885.775	21785
885.9	21705
886.025	21732
886.15	21797
886.275	21595
886.4	21542
886.525	21606
886.65	21644
886.775	21530
886.9	21808
887.025	22013
887.149	21572
887.274	21557
887.399	21355
887.523	21473
887.648	21317
887.773	21348
887.897	21515
888.021	21488
888.146	21412
888.27	21534
888.395	21496
888.519	21515
888.643	21542
888.767	21500
888.891	21367
889.015	21279
889.139	21211
889.263	21104
889.387	21515
889.511	21408
889.635	21488
889.759	21302
889.883	21214
890.006	21241
890.13	21176
890.254	21249
890.377	21252
890.501	21081
890.624	20956
890.748	21058
890.871	20933
890.995	20716
891.118	20933
891.241	20777
891.364	20796
891.488	20910
891.611	20781
891.734	20743
891.857	20921
891.98	20781
892.103	20727
892.226	20754
892.349	20819
892.471	20575
892.594	20720
892.717	20739
892.839	20663
892.962	20613
893.085	20689
893.207	20697
893.33	20465
893.452	20667
893.575	20762
893.697	20632
893.819	20864
893.941	20769
894.064	20788
894.186	20629
894.308	20537
894.43	20758
894.552	20819
894.674	20788
894.796	20556
894.918	20701
895.04	20674
895.161	20788
895.283	20705
895.405	20598
895.526	20670
895.648	20670
895.769	20632
895.891	20701
896.012	20811
896.134	20826
896.255	20739
896.376	20659
896.498	20701
896.619	20800
896.74	20609
896.861	20701
896.982	21024
897.103	21199
897.224	20963
897.345	20918
897.466	20857
897.587	20925
897.708	21024
897.828	20971
897.949	20788
898.07	20830
898.19	20849
898.311	21074
898.431	20937
898.552	20906
898.672	20872
898.792	20906
898.913	20788
899.033	20743
899.153	20644
899.273	20579
899.393	20625
899.513	20712
899.633	20522
899.753	20598
899.873	20511
899.993	20682
900.113	20503
900.232	20617
900.352	20556
900.472	20514
900.591	20408
900.711	20495
900.83	20298
900.95	20552
901.069	20473
901.189	20313
901.308	20142
901.427	20115
901.546	20035
901.665	20058
901.784	20008
901.904	19902
902.023	19742
902.141	19525
902.26	19407
902.379	19590
902.498	19419
902.617	19350
902.735	19438
902.854	19365
902.973	19392
903.091	19213
903.21	19118
903.328	19190
903.446	19091
903.565	18954
903.683	19057
903.801	18779
903.919	18977
904.038	18905
904.156	18703
904.274	18817
904.392	18738
904.51	18734
904.627	18597
904.745	18700
904.863	18749
904.981	18582
905.098	18277
905.216	18441
905.334	18460
905.451	18388
905.569	18376
905.686	18471
905.803	18346
905.921	18133
906.038	18057
906.155	18289
906.272	17950
906.389	17977
906.506	18015
906.623	18045
906.74	17893
906.857	17824
906.974	17882
907.091	17954
907.208	18144
907.324	18038
907.441	17714
907.557	17642
907.674	17600
907.79	17535
907.907	17608
908.023	17596
908.139	17604
908.256	17520
908.372	17467
908.488	17334
908.604	17356
908.72	17265
908.836	17326
908.952	17349
909.068	17368
909.184	17360
909.3	17356
909.415	17299
909.531	17303
909.647	17086
909.762	16980
909.878	16976
909.993	17067
910.108	16980
910.224	17041
910.339	16972
910.454	16930
910.57	16782
910.685	16767
910.8	17029
910.915	16976
911.03	16782
911.145	16713
911.259	16698
911.374	16679
911.489	16508
911.604	16459
911.718	16329
911.833	16413
911.947	16230
912.062	16211
912.176	16333
912.291	16318
912.405	16337
912.519	16512
912.633	16592
912.748	16409
912.862	16257
912.976	16188
913.09	16074
913.204	16166
913.318	16215
913.431	16253
913.545	16215
913.659	16303
913.772	16124
913.886	16086
914	15922
914.113	16025
914.226	16029
914.34	15979
914.453	15915
914.566	15937
914.68	15819
914.793	15846
914.906	15633
915.019	15641
915.132	15549
915.245	15481
915.358	15580
915.47	15538
915.583	15523
915.696	15652
915.809	15663
915.921	15671
916.034	15523
916.146	15386
916.259	15485
916.371	15469
916.483	15477
916.595	15450
916.708	15359
916.82	15393
916.932	15344
917.044	15389
917.156	15355
917.268	15180
917.38	15218
917.491	15176
917.603	15184
917.715	15268
917.826	15211
917.938	15024
918.049	14948
918.161	15180
918.272	15230
918.384	15256
918.495	15116
918.606	14925
918.717	14826
918.828	14876
918.939	14948
919.05	14861
919.161	14910
919.272	14720
919.383	14834
919.494	14960
919.604	15112
919.715	14902
919.826	14819
919.936	14705
920.047	14933
920.157	14876
920.267	14990
920.378	14838
920.488	14830
920.598	15055
920.708	15211
920.818	14971
920.928	15081
921.038	15097
921.148	15195
921.258	14899
921.368	14754
921.477	14659
921.587	14579
921.697	14419
921.806	14644
921.916	14450
922.025	14389
922.134	14202
922.244	14259
922.353	14324
922.462	14107
922.571	14031
922.68	13909
922.789	13989
922.898	13978
923.007	13887
923.116	13982
923.224	13837
923.333	13894
923.442	13799
923.55	13780
923.659	13734
923.767	13753
923.876	13666
923.984	13818
924.092	13616
924.201	13639
924.309	13559
924.417	13643
924.525	13506
924.633	13636
924.741	14579
924.849	13426
924.956	13563
925.064	13289
925.172	13240
925.279	13350
925.387	13331
925.494	13259
925.602	13369
925.709	13384
925.816	13190
925.924	13179
926.031	13331
926.138	13316
926.245	13308
926.352	13206
926.459	13327
926.566	13362
926.673	13171
926.779	12954
926.886	13069
926.993	12916
927.099	12852
927.206	12814
927.312	12837
927.419	12970
927.525	12882
927.631	12871
927.737	12700
927.843	12764
927.95	12616
928.056	12738
928.162	12711
928.267	12673
928.373	13247
928.479	12730
928.585	12570
928.69	12627
928.796	12654
928.901	12536
929.007	12296
929.112	12597
929.218	12464
929.323	12532
929.428	12410
929.533	12483
929.638	12300
929.743	12426
929.848	12391
929.953	12353
930.058	12175
930.163	12076
930.267	12129
930.372	12220
930.477	12117
930.581	12167
930.685	12114
930.79	12022
930.894	11961
930.998	11988
931.103	12045
931.207	11710
931.311	11653
931.415	11543
931.519	11356
931.623	11353
