Data from test_V78500241_1638.txt Node
Date: Fri Mar 25 15:53:08 CST 2022
User: usil
Spectrometer: V785-0024
Trigger mode: 0
Integration Time (sec): 4.000000E-1
Scans to average: 1
Nonlinearity correction enabled: false
Boxcar width: 0
Storing dark spectrum: false
XAxis mode: Wavelengths
Number of Pixels in Spectrum: 1024
>>>>>Begin Spectral Data<<<<<
801.071	28265
801.214	28268
801.356	28139
801.499	27975
801.641	27880
801.783	27827
801.926	27880
802.068	27953
802.211	27816
802.353	27720
802.496	27599
802.638	27603
802.78	27439
802.923	27481
803.065	27450
803.208	27420
803.35	27663
803.492	27583
803.635	27732
803.777	27633
803.919	27819
804.061	27972
804.204	27736
804.346	27755
804.488	27713
804.63	27713
804.773	27717
804.915	27667
805.057	27861
805.199	27759
805.341	27888
805.483	27876
805.626	27861
805.768	27800
805.91	27884
806.052	28025
806.194	27880
806.336	28032
806.478	27945
806.62	27895
806.762	28013
806.904	28207
807.046	28299
807.188	28352
807.33	28356
807.472	28398
807.614	28105
807.756	28314
807.898	28166
808.04	28147
808.182	28143
808.324	28230
808.465	28287
808.607	28341
808.749	28691
808.891	28645
809.033	28679
809.174	28656
809.316	28554
809.458	28542
809.6	28504
809.741	28626
809.883	28641
810.025	28847
810.166	28881
810.308	28904
810.45	28831
810.591	28850
810.733	28637
810.875	28497
811.016	28386
811.158	28485
811.299	28580
811.441	28721
811.582	28835
811.724	28478
811.865	28565
812.007	28436
812.148	28592
812.29	28618
812.431	28637
812.573	28809
812.714	28980
812.855	29022
812.997	29216
813.138	29227
813.279	29094
813.421	29117
813.562	29037
813.703	28888
813.845	28809
813.986	28489
814.127	28382
814.268	28424
814.41	28246
814.551	28173
814.692	28424
814.833	28249
814.974	28230
815.115	28238
815.256	28097
815.397	28131
815.539	28097
815.68	27987
815.821	27998
815.962	28139
816.103	28048
816.244	27831
816.385	27895
816.526	27789
816.666	27717
816.807	27637
816.948	27492
817.089	27660
817.23	27686
817.371	27526
817.512	27507
817.653	27488
817.793	27511
817.934	27519
818.075	27633
818.216	27557
818.356	27492
818.497	27447
818.638	27287
818.778	27382
818.919	27237
819.06	27306
819.2	27443
819.341	27572
819.481	27538
819.622	27739
819.762	27892
819.903	27724
820.043	27671
820.184	27747
820.324	27553
820.465	27698
820.605	27667
820.746	27625
820.886	27488
821.026	27637
821.167	27644
821.307	27686
821.447	27686
821.588	27427
821.728	27348
821.868	27146
822.008	26998
822.149	27077
822.289	26940
822.429	26746
822.569	26746
822.709	26644
822.849	26613
822.99	26552
823.13	26476
823.27	26488
823.41	26385
823.55	26218
823.69	26301
823.83	26267
823.97	26225
824.11	26122
824.25	26069
824.389	26161
824.529	26199
824.669	26096
824.809	26233
824.949	26404
825.089	26271
825.228	26278
825.368	25978
825.508	26073
825.648	26088
825.787	26286
825.927	26191
826.067	25955
826.206	25993
826.346	26043
826.485	26084
826.625	26027
826.765	26134
826.904	26176
827.044	25849
827.183	25807
827.323	25811
827.462	25734
827.601	25674
827.741	25647
827.88	25670
828.02	25734
828.159	25632
828.298	25795
828.437	25765
828.577	25723
828.716	25925
828.855	25734
828.994	25624
829.134	25510
829.273	25597
829.412	25396
829.551	25403
829.69	25350
829.829	25525
829.968	25575
830.107	25552
830.246	25476
830.385	25411
830.524	25202
830.663	25213
830.802	25240
830.941	25133
831.08	25008
831.219	25232
831.357	25129
831.496	25206
831.635	25053
831.774	24977
831.913	24973
832.051	24833
832.19	24859
832.329	24958
832.467	24688
832.606	24692
832.744	24597
832.883	24875
833.022	24665
833.16	24749
833.299	24833
833.437	24764
833.576	24764
833.714	24787
833.852	24821
833.991	24859
834.129	24825
834.267	24886
834.406	24825
834.544	24730
834.682	24810
834.821	24749
834.959	24989
835.097	24684
835.235	24783
835.373	24681
835.511	24795
835.65	24601
835.788	24684
835.926	24517
836.064	24429
836.202	24365
836.34	24551
836.478	24719
836.615	24696
836.753	24582
836.891	24631
837.029	24525
837.167	24532
837.305	24551
837.443	24479
837.58	24445
837.718	24369
837.856	24456
837.993	24357
838.131	24517
838.269	24197
838.406	24422
838.544	24247
838.681	23980
838.819	24106
838.956	23878
839.094	23954
839.231	24041
839.369	24110
839.506	24414
839.643	24011
839.781	23965
839.918	23912
840.055	23786
840.193	23790
840.33	23699
840.467	23882
840.604	23821
840.742	23958
840.879	23783
841.016	23745
841.153	23729
841.29	23764
841.427	23832
841.564	23897
841.701	23805
841.838	23828
841.975	23687
842.112	23672
842.249	23714
842.385	23558
842.522	23783
842.659	23604
842.796	23581
842.933	23623
843.069	23570
843.206	23505
843.343	23627
843.479	23585
843.616	23589
843.752	23353
843.889	23315
844.025	23463
844.162	23406
844.298	23512
844.435	23356
844.571	23288
844.708	23280
844.844	23410
844.98	23429
845.117	23444
845.253	23242
845.389	23250
845.525	23220
845.661	23147
845.798	22991
845.934	23136
846.07	22957
846.206	23109
846.342	23174
846.478	23018
846.614	22889
846.75	22675
846.886	22771
847.022	22835
847.158	22862
847.294	22858
847.429	22892
847.565	22790
847.701	23060
847.837	22527
847.972	22489
848.108	22519
848.244	22569
848.379	22504
848.515	22375
848.65	22478
848.786	22447
848.921	22489
849.057	22436
849.192	22508
849.328	22421
849.463	22405
849.598	22360
849.734	22390
849.869	22341
850.004	22173
850.14	22249
850.275	22211
850.41	22097
850.545	22040
850.68	22029
850.815	22150
850.95	22196
851.085	22428
851.22	22154
851.355	22150
851.49	22124
851.625	22093
851.76	22036
851.895	22048
852.03	22105
852.165	22139
852.299	22173
852.434	22257
852.569	22120
852.703	22139
852.838	22181
852.973	22333
853.107	22230
853.242	22090
853.376	21899
853.511	21907
853.645	21789
853.78	22040
853.914	22013
854.048	21846
854.183	21907
854.317	21941
854.451	22211
854.585	21968
854.72	21827
854.854	21987
854.988	21907
855.122	22105
855.256	21846
855.39	21953
855.524	22044
855.658	22048
855.792	22070
855.926	22135
856.06	22013
856.194	21918
856.327	21949
856.461	21850
856.595	21926
856.729	21953
856.862	22093
856.996	21964
857.13	22051
857.263	22082
857.397	22040
857.53	22044
857.664	22097
857.797	22063
857.931	21983
858.064	22078
858.197	22162
858.331	21975
858.464	21895
858.597	21926
858.731	21888
858.864	21922
858.997	21945
859.13	22055
859.263	21968
859.396	22021
859.529	21888
859.662	21857
859.795	21857
859.928	22006
860.061	22207
860.194	22185
860.327	22070
860.46	22017
860.592	22078
860.725	22090
860.858	22150
860.99	21983
861.123	21926
861.256	21979
861.388	22006
861.521	22653
861.653	21846
861.786	21850
861.918	21876
862.05	22036
862.183	21827
862.315	21953
862.447	21972
862.58	21823
862.712	21625
862.844	21720
862.976	21789
863.108	21789
863.24	22166
863.372	21648
863.504	21720
863.636	21641
863.768	21713
863.9	21804
864.032	21648
864.164	21667
864.296	21713
864.428	21800
864.559	21663
864.691	21698
864.823	21648
864.954	21694
865.086	21701
865.217	21545
865.349	21481
865.48	21633
865.612	21583
865.743	21587
865.875	21462
866.006	21374
866.137	21542
866.269	21542
866.4	21568
866.531	21500
866.662	21545
866.793	21519
866.924	21515
867.055	21526
867.186	21538
867.317	21545
867.448	21439
867.579	21382
867.71	21507
867.841	21435
867.972	21519
868.103	21469
868.233	21469
868.364	21545
868.495	21511
868.625	21751
868.756	21732
868.886	21614
869.017	21789
869.147	21915
869.278	21865
869.408	21781
869.539	21778
869.669	21789
869.799	21694
869.929	21785
870.06	21827
870.19	22021
870.32	22131
870.45	22017
870.58	22185
870.71	22196
870.84	22215
870.97	22166
871.1	22166
871.23	22409
871.36	22390
871.489	22135
871.619	22276
871.749	22322
871.879	22287
872.008	22367
872.138	22432
872.267	22238
872.397	22219
872.526	22234
872.656	22200
872.785	22204
872.915	22306
873.044	22371
873.173	22455
873.303	22405
873.432	22455
873.561	22443
873.69	22398
873.819	22303
873.948	22375
874.077	22333
874.206	22424
874.335	22440
874.464	22538
874.593	22577
874.722	22550
874.851	22622
874.979	22607
875.108	22645
875.237	22615
875.365	22478
875.494	22440
875.623	22565
875.751	22466
875.88	22656
876.008	22668
876.136	22698
876.265	22953
876.393	23132
876.521	23090
876.65	23075
876.778	23060
876.906	22972
877.034	22911
877.162	22801
877.29	22892
877.418	22991
877.546	22915
877.674	22904
877.802	22968
877.93	22854
878.058	22968
878.185	22744
878.313	22930
878.441	22812
878.568	22653
878.696	22972
878.824	22843
878.951	22968
879.079	23117
879.206	23376
879.333	23090
879.461	22965
879.588	22984
879.715	23056
879.842	23261
879.97	22961
880.097	22736
880.224	22717
880.351	22793
880.478	22698
880.605	22664
880.732	22713
880.859	22900
880.986	22771
881.112	22805
881.239	22664
881.366	22489
881.493	22333
881.619	22291
881.746	22261
881.872	22402
881.999	22253
882.125	22329
882.252	22398
882.378	22314
882.505	22356
882.631	22059
882.757	22032
882.883	22002
883.01	21998
883.136	22032
883.262	21945
883.388	21835
883.514	22074
883.64	21979
883.766	21903
883.892	21861
884.018	21728
884.143	21873
884.269	22067
884.395	21667
884.52	21637
884.646	21583
884.772	21583
884.897	21614
885.023	21713
885.148	21781
885.274	21724
885.399	21720
885.524	21599
885.65	21663
885.775	21606
885.9	21507
886.025	21652
886.15	21660
886.275	21690
886.4	21500
886.525	21679
886.65	21591
886.775	21633
886.9	21686
887.025	21759
887.149	21667
887.274	21370
887.399	21370
887.523	21492
887.648	21268
887.773	21291
887.897	21447
888.021	21386
888.146	21317
888.27	21488
888.395	21507
888.519	21386
888.643	21408
888.767	21405
888.891	21218
889.015	21173
889.139	21272
889.263	21123
889.387	21355
889.511	21355
889.635	21237
889.759	21165
889.883	21108
890.006	21142
890.13	21408
890.254	21058
890.377	21085
890.501	20998
890.624	20918
890.748	21013
890.871	20838
890.995	20746
891.118	20724
891.241	20697
891.364	20792
891.488	20861
891.611	20811
891.734	20716
891.857	20914
891.98	20659
892.103	20765
892.226	20743
892.349	20796
892.471	20480
892.594	20583
892.717	20739
892.839	20689
892.962	20629
893.085	20811
893.207	20575
893.33	20613
893.452	20541
893.575	20609
893.697	20575
893.819	20811
893.941	20830
894.064	20826
894.186	20617
894.308	20541
894.43	20731
894.552	20864
894.674	20670
894.796	20659
894.918	20590
895.04	20670
895.161	20716
895.283	20667
895.405	20530
895.526	20651
895.648	20701
895.769	20644
895.891	20552
896.012	20811
896.134	20670
896.255	20579
896.376	20549
896.498	20655
896.619	20655
896.74	20667
896.861	20754
896.982	20956
897.103	21131
897.224	20891
897.345	20735
897.466	20754
897.587	20800
897.708	20910
897.828	20895
897.949	20804
898.07	20651
898.19	20842
898.311	20861
898.431	20739
898.552	20925
898.672	20910
898.792	21013
898.913	20864
899.033	20823
899.153	20758
899.273	20457
899.393	20598
899.513	20648
899.633	20571
899.753	20689
899.873	20522
899.993	20549
900.113	20545
900.232	20583
900.352	20545
900.472	20396
900.591	20248
900.711	20423
900.83	20339
900.95	20362
901.069	20533
901.189	20301
901.308	20081
901.427	19887
901.546	19917
901.665	20008
901.784	19989
901.904	19769
902.023	19696
902.141	19400
902.26	19464
902.379	19499
902.498	19468
902.617	19502
902.735	19346
902.854	19434
902.973	19289
903.091	19171
903.21	19103
903.328	19168
903.446	19038
903.565	18833
903.683	18989
903.801	18726
903.919	18844
904.038	18958
904.156	18658
904.274	18726
904.392	18665
904.51	18673
904.627	18665
904.745	18608
904.863	18620
904.981	18642
905.098	18334
905.216	18273
905.334	18311
905.451	18388
905.569	18334
905.686	18300
905.803	18323
905.921	18182
906.038	18258
906.155	18194
906.272	17988
906.389	18110
906.506	17870
906.623	17817
906.74	17878
906.857	17756
906.974	17847
907.091	17878
907.208	17942
907.324	17920
907.441	17779
907.557	17589
907.674	17573
907.79	17501
907.907	17490
908.023	17638
908.139	17657
908.256	17547
908.372	17356
908.488	17558
908.604	17349
908.72	17216
908.836	17246
908.952	17223
909.068	17360
909.184	17448
909.3	17322
909.415	17410
909.531	17307
909.647	17060
909.762	16987
909.878	16999
909.993	17143
910.108	16896
910.224	16949
910.339	16987
910.454	16938
910.57	16850
910.685	16668
910.8	16900
910.915	16847
911.03	16778
911.145	16603
911.259	16607
911.374	16645
911.489	16489
911.604	16356
911.718	16379
911.833	16299
911.947	16177
912.062	16166
912.176	16284
912.291	16352
912.405	16303
912.519	16497
912.633	16538
912.748	16356
912.862	16287
912.976	16036
913.09	16101
913.204	16040
913.318	16044
913.431	16242
913.545	16150
913.659	16185
913.772	16021
913.886	16006
914	15899
914.113	16017
914.226	15991
914.34	16082
914.453	15770
914.566	15934
914.68	15720
914.793	15789
914.906	15610
915.019	15477
915.132	15557
915.245	15568
915.358	15534
915.47	15591
915.583	15545
915.696	15481
915.809	15667
915.921	15618
916.034	15416
916.146	15428
916.259	15504
916.371	15431
916.483	15500
916.595	15344
916.708	15336
916.82	15294
916.932	15332
917.044	15336
917.156	15256
917.268	15180
917.38	15176
917.491	15138
917.603	15252
917.715	15237
917.826	15241
917.938	15093
918.049	15036
918.161	15184
918.272	15283
918.384	15199
918.495	15085
918.606	14891
918.717	14857
918.828	14967
918.939	14944
919.05	14891
919.161	14998
919.272	14708
919.383	14773
919.494	14921
919.604	15142
919.715	14948
919.826	14758
919.936	14826
920.047	15028
920.157	14880
920.267	15039
920.378	14815
920.488	14838
920.598	15005
920.708	15131
920.818	15058
920.928	14960
921.038	15195
921.148	15058
921.258	14895
921.368	14773
921.477	14568
921.587	14556
921.697	14465
921.806	14606
921.916	14419
922.025	14240
922.134	14180
922.244	14237
922.353	14328
922.462	14107
922.571	13970
922.68	13955
922.789	13906
922.898	13875
923.007	13818
923.116	13944
923.224	13928
923.333	13811
923.442	13757
923.55	13636
923.659	13761
923.767	13723
923.876	13677
923.984	13586
924.092	13609
924.201	13567
924.309	13666
924.417	13567
924.525	13575
924.633	13441
924.741	14256
924.849	13354
924.956	13449
925.064	13381
925.172	13247
925.279	13285
925.387	13369
925.494	13251
925.602	13438
925.709	13335
925.816	13263
925.924	13187
926.031	13278
926.138	13247
926.245	13244
926.352	13088
926.459	13255
926.566	13255
926.673	13065
926.779	12852
926.886	12943
926.993	12840
927.099	12863
927.206	12768
927.312	12806
927.419	12844
927.525	12844
927.631	12852
927.737	12715
927.843	12696
927.95	12574
928.056	12593
928.162	12631
928.267	12730
928.373	13343
928.479	12730
928.585	12486
928.69	12642
928.796	12654
928.901	12448
929.007	12334
929.112	12574
929.218	12422
929.323	12399
929.428	12369
929.533	12509
929.638	12388
929.743	12308
929.848	12365
929.953	12327
930.058	12266
930.163	11980
930.267	12175
930.372	12178
930.477	11916
930.581	12224
930.685	12144
930.79	11912
930.894	11923
930.998	11897
931.103	12057
931.207	11661
931.311	11627
931.415	11493
931.519	11269
931.623	11315
