Data from test_V78500241_1233.txt Node
Date: Fri Mar 25 15:50:20 CST 2022
User: usil
Spectrometer: V785-0024
Trigger mode: 0
Integration Time (sec): 4.000000E-1
Scans to average: 1
Nonlinearity correction enabled: false
Boxcar width: 0
Storing dark spectrum: false
XAxis mode: Wavelengths
Number of Pixels in Spectrum: 1024
>>>>>Begin Spectral Data<<<<<
801.071	28835
801.214	28729
801.356	28500
801.499	28394
801.641	28356
801.783	28249
801.926	28405
802.068	28348
802.211	28291
802.353	28154
802.496	27964
802.638	28078
802.78	27983
802.923	27903
803.065	27899
803.208	28006
803.35	28097
803.492	28200
803.635	28215
803.777	28238
803.919	28268
804.061	28664
804.204	28329
804.346	28409
804.488	28131
804.63	28310
804.773	28162
804.915	28333
805.057	28333
805.199	28287
805.341	28394
805.483	28405
805.626	28421
805.768	28401
805.91	28424
806.052	28569
806.194	28440
806.336	28557
806.478	28401
806.62	28325
806.762	28474
806.904	28835
807.046	29044
807.188	28854
807.33	28938
807.472	28965
807.614	28896
807.756	28771
807.898	28771
808.04	28736
808.182	28786
808.324	28793
808.465	28767
808.607	29010
808.749	29193
808.891	29185
809.033	29124
809.174	29269
809.316	29052
809.458	29124
809.6	29174
809.741	29181
809.883	29193
810.025	29566
810.166	29543
810.308	29520
810.45	29391
810.591	29307
810.733	29204
810.875	29025
811.016	28987
811.158	28991
811.299	29242
811.441	29459
811.582	29269
811.724	29223
811.865	29079
812.007	29159
812.148	29235
812.29	29197
812.431	29269
812.573	29497
812.714	29509
812.855	29634
812.997	29722
813.138	29779
813.279	29893
813.421	29687
813.562	29558
813.703	29524
813.845	29318
813.986	29185
814.127	29014
814.268	28896
814.41	29052
814.551	28938
814.692	28915
814.833	28866
814.974	28858
815.115	28831
815.256	28767
815.397	28767
815.539	28839
815.68	28717
815.821	28561
815.962	28603
816.103	28584
816.244	28516
816.385	28451
816.526	28493
816.666	28291
816.807	28147
816.948	28306
817.089	28318
817.23	28147
817.371	28265
817.512	28078
817.653	28143
817.793	28124
817.934	28261
818.075	28135
818.216	28257
818.356	28211
818.497	28029
818.638	27964
818.778	28010
818.919	27880
819.06	27895
819.2	28211
819.341	28303
819.481	28131
819.622	28508
819.762	28436
819.903	28462
820.043	28504
820.184	28352
820.324	28405
820.465	28322
820.605	28310
820.746	28280
820.886	28162
821.026	28371
821.167	28325
821.307	28413
821.447	28215
821.588	28215
821.728	28070
821.868	27880
822.008	27736
822.149	27762
822.289	27720
822.429	27496
822.569	27348
822.709	27420
822.849	27264
822.99	27135
823.13	27150
823.27	27142
823.41	26979
823.55	26940
823.69	27074
823.83	27043
823.97	26773
824.11	26788
824.25	26834
824.389	26682
824.529	26849
824.669	26899
824.809	26948
824.949	27024
825.089	26842
825.228	26785
825.368	26632
825.508	26781
825.648	26773
825.787	26849
825.927	26868
826.067	26674
826.206	26686
826.346	26640
826.485	26701
826.625	26758
826.765	26838
826.904	26739
827.044	26495
827.183	26446
827.323	26358
827.462	26396
827.601	26560
827.741	26377
827.88	26450
828.02	26362
828.159	26332
828.298	26518
828.437	26526
828.577	26374
828.716	26655
828.855	26199
828.994	26206
829.134	26043
829.273	26168
829.412	26145
829.551	26130
829.69	26081
829.829	26237
829.968	26271
830.107	26100
830.246	26103
830.385	26130
830.524	26020
830.663	25989
830.802	25753
830.941	25708
831.08	25788
831.219	25788
831.357	25712
831.496	26008
831.635	25856
831.774	25597
831.913	25624
832.051	25487
832.19	25460
832.329	25643
832.467	25426
832.606	25285
832.744	25445
832.883	25449
833.022	25434
833.16	25403
833.299	25411
833.437	25346
833.576	25525
833.714	25472
833.852	25479
833.991	25441
834.129	25422
834.267	25639
834.406	25441
834.544	25620
834.682	25506
834.821	25472
834.959	25582
835.097	25449
835.235	25377
835.373	25495
835.511	25419
835.65	25426
835.788	25483
835.926	25023
836.064	25095
836.202	25137
836.34	25263
836.478	25400
836.615	25335
836.753	25274
836.891	25255
837.029	25289
837.167	25297
837.305	25107
837.443	25164
837.58	25171
837.718	25160
837.856	25217
837.993	24985
838.131	25118
838.269	24966
838.406	25008
838.544	24890
838.681	24749
838.819	24840
838.956	24494
839.094	24745
839.231	24528
839.369	24757
839.506	24966
839.643	24833
839.781	24532
839.918	24483
840.055	24517
840.193	24429
840.33	24471
840.467	24559
840.604	24719
840.742	24696
840.879	24338
841.016	24448
841.153	24486
841.29	24589
841.427	24445
841.564	24475
841.701	24391
841.838	24369
841.975	24281
842.112	24372
842.249	24323
842.385	24254
842.522	24418
842.659	24372
842.796	24338
842.933	24247
843.069	24270
843.206	24258
843.343	24239
843.479	24171
843.616	24258
843.752	23927
843.889	24079
844.025	24125
844.162	24007
844.298	24117
844.435	23950
844.571	23969
844.708	24117
844.844	24213
844.98	24095
845.117	24011
845.253	24018
845.389	23916
845.525	23889
845.661	23988
845.798	23703
845.934	23733
846.07	23741
846.206	23733
846.342	23904
846.478	23866
846.614	23589
846.75	23402
846.886	23429
847.022	23520
847.158	23425
847.294	23505
847.429	23486
847.565	23398
847.701	23665
847.837	23197
847.972	23143
848.108	23254
848.244	23296
848.379	23155
848.515	23090
848.65	23025
848.786	22976
848.921	23029
849.057	23174
849.192	23147
849.328	23094
849.463	23033
849.598	22949
849.734	22999
849.869	22843
850.004	22801
850.14	22885
850.275	22774
850.41	22733
850.545	22831
850.68	22702
850.815	22824
850.95	22774
851.085	23090
851.22	22984
851.355	22877
851.49	22778
851.625	22729
851.76	22850
851.895	22740
852.03	22759
852.165	22847
852.299	22713
852.434	22873
852.569	22843
852.703	22816
852.838	22828
852.973	22987
853.107	22839
853.242	22752
853.376	22664
853.511	22531
853.645	22656
853.78	22729
853.914	22611
854.048	22580
854.183	22485
854.317	22615
854.451	22809
854.585	22664
854.72	22694
854.854	22706
854.988	22508
855.122	22603
855.256	22611
855.39	22607
855.524	22569
855.658	22618
855.792	22717
855.926	22546
856.06	22675
856.194	22797
856.327	22607
856.461	22565
856.595	22546
856.729	22508
856.862	22706
856.996	22573
857.13	22672
857.263	22782
857.397	22664
857.53	22694
857.664	22713
857.797	22622
857.931	22721
858.064	22691
858.197	22755
858.331	22580
858.464	22554
858.597	22493
858.731	22478
858.864	22607
858.997	22596
859.13	22451
859.263	22504
859.396	22668
859.529	22630
859.662	22577
859.795	22664
859.928	22694
860.061	22854
860.194	22790
860.327	22687
860.46	22740
860.592	22706
860.725	22683
860.858	22816
860.99	22607
861.123	22588
861.256	22656
861.388	22683
861.521	23490
861.653	22569
861.786	22341
861.918	22493
862.05	22535
862.183	22428
862.315	22588
862.447	22592
862.58	22519
862.712	22322
862.844	22348
862.976	22405
863.108	22466
863.24	22584
863.372	22200
863.504	22417
863.636	22306
863.768	22310
863.9	22303
864.032	22246
864.164	22352
864.296	22303
864.428	22432
864.559	22382
864.691	22352
864.823	22284
864.954	22333
865.086	22348
865.217	22398
865.349	22169
865.48	22215
865.612	22086
865.743	22360
865.875	22063
866.006	22051
866.137	22158
866.269	22261
866.4	22116
866.531	22150
866.662	22010
866.793	22310
866.924	22078
867.055	22051
867.186	22204
867.317	22158
867.448	22059
867.579	22063
867.71	21926
867.841	21934
867.972	22040
868.103	22082
868.233	22207
868.364	22120
868.495	22166
868.625	22348
868.756	22421
868.886	22200
869.017	22402
869.147	22447
869.278	22409
869.408	22500
869.539	22348
869.669	22504
869.799	22379
869.929	22394
870.06	22489
870.19	22660
870.32	22622
870.45	22805
870.58	22778
870.71	22904
870.84	22854
870.97	22930
871.1	22763
871.23	22854
871.36	22976
871.489	22877
871.619	22877
871.749	23037
871.879	22930
872.008	23151
872.138	23079
872.267	22991
872.397	22736
872.526	22854
872.656	22831
872.785	22729
872.915	22877
873.044	22968
873.173	22919
873.303	23033
873.432	22965
873.561	23060
873.69	22949
873.819	22942
873.948	23178
874.077	22919
874.206	22976
874.335	23109
874.464	23056
874.593	23197
874.722	23105
874.851	23159
874.979	23231
875.108	23254
875.237	23121
875.365	23147
875.494	23231
875.623	23250
875.751	23223
875.88	23136
876.008	23376
876.136	23463
876.265	23543
876.393	23756
876.521	23687
876.65	23687
876.778	23745
876.906	23421
877.034	23406
877.162	23573
877.29	23474
877.418	23668
877.546	23463
877.674	23562
877.802	23585
877.93	23512
878.058	23440
878.185	23501
878.313	23440
878.441	23455
878.568	23353
878.696	23558
878.824	23501
878.951	23611
879.079	23611
879.206	23771
879.333	23668
879.461	23467
879.588	23634
879.715	23726
879.842	23798
879.97	23585
880.097	23223
880.224	23440
880.351	23429
880.478	23326
880.605	23326
880.732	23387
880.859	23589
880.986	23372
881.112	23277
881.239	23159
881.366	23010
881.493	23033
881.619	22980
881.746	22930
881.872	22854
881.999	22904
882.125	22850
882.252	22862
882.378	22946
882.505	22858
882.631	22580
882.757	22584
882.883	22626
883.01	22561
883.136	22565
883.262	22531
883.388	22497
883.514	22565
883.64	22630
883.766	22508
883.892	22341
884.018	22303
884.143	22474
884.269	22584
884.395	22341
884.52	22238
884.646	22215
884.772	22139
884.897	22207
885.023	22131
885.148	22147
885.274	22287
885.399	22291
885.524	22226
885.65	22154
885.775	22192
885.9	22226
886.025	22299
886.15	22238
886.275	22276
886.4	22090
886.525	22200
886.65	22204
886.775	22055
886.9	22394
887.025	22333
887.149	22101
887.274	22048
887.399	22010
887.523	21892
887.648	21937
887.773	21892
887.897	21937
888.021	21968
888.146	21812
888.27	22036
888.395	22036
888.519	21972
888.643	21998
888.767	21880
888.891	21808
889.015	21804
889.139	21694
889.263	21842
889.387	21781
889.511	21918
889.635	21854
889.759	21739
889.883	21751
890.006	21675
890.13	21808
890.254	21739
890.377	21622
890.501	21564
890.624	21450
890.748	21549
890.871	21336
890.995	21283
891.118	21272
891.241	21351
891.364	21306
891.488	21428
891.611	21359
891.734	21195
891.857	21355
891.98	21249
892.103	21435
892.226	21378
892.349	21344
892.471	21081
892.594	21195
892.717	21199
892.839	21211
892.962	21214
893.085	21131
893.207	21127
893.33	21036
893.452	20971
893.575	21302
893.697	21131
893.819	21367
893.941	21374
894.064	21237
894.186	21154
894.308	21074
894.43	21252
894.552	21336
894.674	21298
894.796	21093
894.918	21100
895.04	21116
895.161	21241
895.283	21138
895.405	21119
895.526	21161
895.648	21119
895.769	21108
895.891	21226
896.012	21192
896.134	21195
896.255	21207
896.376	21256
896.498	21241
896.619	21203
896.74	21176
896.861	21222
896.982	21405
897.103	21576
897.224	21469
897.345	21340
897.466	21313
897.587	21302
897.708	21401
897.828	21485
897.949	21188
898.07	21154
898.19	21325
898.311	21370
898.431	21184
898.552	21306
898.672	21348
898.792	21428
898.913	21340
899.033	21184
899.153	21214
899.273	20887
899.393	21066
899.513	21100
899.633	21093
899.753	21093
899.873	21017
899.993	21104
900.113	20998
900.232	20956
900.352	20960
900.472	20845
900.591	20804
900.711	20853
900.83	20823
900.95	20998
901.069	20910
901.189	20686
901.308	20579
901.427	20362
901.546	20412
901.665	20408
901.784	20415
901.904	20271
902.023	20301
902.141	20005
902.26	19951
902.379	19997
902.498	19917
902.617	19955
902.735	19803
902.854	19974
902.973	19833
903.091	19578
903.21	19518
903.328	19609
903.446	19506
903.565	19400
903.683	19331
903.801	19293
903.919	19403
904.038	19392
904.156	19202
904.274	19148
904.392	19004
904.51	19091
904.627	19091
904.745	19091
904.863	19072
904.981	18913
905.098	18840
905.216	18810
905.334	18867
905.451	18722
905.569	18844
905.686	18738
905.803	18802
905.921	18582
906.038	18639
906.155	18555
906.272	18445
906.389	18528
906.506	18323
906.623	18410
906.74	18327
906.857	18197
906.974	18174
907.091	18448
907.208	18426
907.324	18441
907.441	18213
907.557	17988
907.674	17961
907.79	17988
907.907	17916
908.023	18038
908.139	18053
908.256	17866
908.372	17920
908.488	17897
908.604	17691
908.72	17729
908.836	17771
908.952	17703
909.068	17821
909.184	17733
909.3	17764
909.415	17817
909.531	17741
909.647	17360
909.762	17554
909.878	17444
909.993	17509
910.108	17539
910.224	17414
910.339	17383
910.454	17322
910.57	17185
910.685	17193
910.8	17501
910.915	17391
911.03	17220
911.145	17102
911.259	17029
911.374	17048
911.489	16953
911.604	16828
911.718	16774
911.833	16782
911.947	16736
912.062	16607
912.176	16687
912.291	16778
912.405	16748
912.519	16984
912.633	16987
912.748	16866
912.862	16885
912.976	16531
913.09	16303
913.204	16481
913.318	16573
913.431	16596
913.545	16687
913.659	16569
913.772	16478
913.886	16394
914	16382
914.113	16428
914.226	16466
914.34	16390
914.453	16246
914.566	16405
914.68	16318
914.793	16173
914.906	16013
915.019	15968
915.132	15911
915.245	15892
915.358	15865
915.47	15895
915.583	15949
915.696	15873
915.809	16097
915.921	16010
916.034	15781
916.146	15823
916.259	15953
916.371	15911
916.483	15854
916.595	15679
916.708	15762
916.82	15781
916.932	15766
917.044	15614
917.156	15686
917.268	15542
917.38	15618
917.491	15591
917.603	15595
917.715	15542
917.826	15644
917.938	15458
918.049	15397
918.161	15370
918.272	15698
918.384	15610
918.495	15488
918.606	15313
918.717	15252
918.828	15363
918.939	15268
919.05	15180
919.161	15249
919.272	15009
919.383	15169
919.494	15367
919.604	15466
919.715	15313
919.826	15230
919.936	15283
920.047	15332
920.157	15332
920.267	15378
920.378	15367
920.488	15222
920.598	15424
920.708	15587
920.818	15405
920.928	15500
921.038	15599
921.148	15542
921.258	15192
921.368	15081
921.477	15017
921.587	14952
921.697	14887
921.806	14998
921.916	14792
922.025	14674
922.134	14636
922.244	14556
922.353	14743
922.462	14495
922.571	14526
922.68	14263
922.789	14320
922.898	14366
923.007	14225
923.116	14370
923.224	14214
923.333	14221
923.442	14134
923.55	13963
923.659	14126
923.767	14134
923.876	13989
923.984	14073
924.092	13921
924.201	13921
924.309	13986
924.417	14058
924.525	13852
924.633	13967
924.741	14648
924.849	13685
924.956	13784
925.064	13704
925.172	13655
925.279	13761
925.387	13784
925.494	13681
925.602	13723
925.709	13624
925.816	13510
925.924	13639
926.031	13700
926.138	13613
926.245	13681
926.352	13521
926.459	13571
926.566	13575
926.673	13510
926.779	13362
926.886	13369
926.993	13266
927.099	13179
927.206	13183
927.312	13107
927.419	13175
927.525	13149
927.631	13160
927.737	13141
927.843	13076
927.95	12840
928.056	13015
928.162	12932
928.267	13012
928.373	13689
928.479	13065
928.585	12825
928.69	12928
928.796	12962
928.901	12821
929.007	12719
929.112	12806
929.218	12722
929.323	12798
929.428	12749
929.533	12875
929.638	12684
929.743	12635
929.848	12715
929.953	12608
930.058	12509
930.163	12391
930.267	12384
930.372	12555
930.477	12315
930.581	12616
930.685	12479
930.79	12319
930.894	12262
930.998	12159
931.103	12353
931.207	11996
931.311	11931
931.415	11893
931.519	11661
931.623	11611
