Data from test_V78500241_1455.txt Node
Date: Fri Mar 25 15:51:52 CST 2022
User: usil
Spectrometer: V785-0024
Trigger mode: 0
Integration Time (sec): 4.000000E-1
Scans to average: 1
Nonlinearity correction enabled: false
Boxcar width: 0
Storing dark spectrum: false
XAxis mode: Wavelengths
Number of Pixels in Spectrum: 1024
>>>>>Begin Spectral Data<<<<<
801.071	27641
801.214	27652
801.356	27557
801.499	27671
801.641	27348
801.783	27367
801.926	27306
802.068	27138
802.211	27306
802.353	27116
802.496	27005
802.638	27051
802.78	26918
802.923	26868
803.065	26864
803.208	26887
803.35	26842
803.492	27135
803.635	27119
803.777	27096
803.919	27226
804.061	27473
804.204	27119
804.346	27024
804.488	27077
804.63	27203
804.773	27020
804.915	27256
805.057	27321
805.199	27214
805.341	27154
805.483	27359
805.626	27180
805.768	27127
805.91	27245
806.052	27382
806.194	27150
806.336	27492
806.478	27340
806.62	27393
806.762	27454
806.904	27622
807.046	27831
807.188	27633
807.33	27667
807.472	27720
807.614	27652
807.756	27660
807.898	27568
808.04	27462
808.182	27378
808.324	27603
808.465	27679
808.607	27899
808.749	27949
808.891	28059
809.033	27979
809.174	27941
809.316	27816
809.458	27972
809.6	27895
809.741	28116
809.883	28078
810.025	28173
810.166	28234
810.308	28215
810.45	28086
810.591	28036
810.733	28067
810.875	27854
811.016	27983
811.158	27747
811.299	28032
811.441	28105
811.582	28013
811.724	27949
811.865	27911
812.007	27892
812.148	27861
812.29	27869
812.431	28063
812.573	28299
812.714	28371
812.855	28424
812.997	28485
813.138	28660
813.279	28592
813.421	28401
813.562	28417
813.703	28272
813.845	28150
813.986	27831
814.127	27759
814.268	27504
814.41	27709
814.551	27538
814.692	27728
814.833	27622
814.974	27462
815.115	27447
815.256	27427
815.397	27477
815.539	27370
815.68	27321
815.821	27310
815.962	27313
816.103	27283
816.244	27237
816.385	27131
816.526	27116
816.666	26925
816.807	26940
816.948	26823
817.089	26902
817.23	26880
817.371	27039
817.512	26918
817.653	26857
817.793	26746
817.934	26895
818.075	27036
818.216	26727
818.356	26785
818.497	26651
818.638	26556
818.778	26526
818.919	26667
819.06	26678
819.2	26708
819.341	26811
819.481	26754
819.622	27070
819.762	27237
819.903	27142
820.043	27100
820.184	27047
820.324	26990
820.465	27055
820.605	26902
820.746	26925
820.886	26735
821.026	26914
821.167	26963
821.307	27020
821.447	26963
821.588	26792
821.728	26727
821.868	26484
822.008	26347
822.149	26256
822.289	26172
822.429	26058
822.569	26016
822.709	26024
822.849	25799
822.99	25791
823.13	25902
823.27	25864
823.41	25795
823.55	25453
823.69	25643
823.83	25677
823.97	25590
824.11	25449
824.25	25445
824.389	25559
824.529	25544
824.669	25479
824.809	25540
824.949	25506
825.089	25499
825.228	25548
825.368	25388
825.508	25304
825.648	25411
825.787	25282
825.927	25479
826.067	25324
826.206	25263
826.346	25514
826.485	25384
826.625	25407
826.765	25472
826.904	25384
827.044	25164
827.183	25042
827.323	25000
827.462	25004
827.601	24951
827.741	25015
827.88	25110
828.02	24985
828.159	24981
828.298	25015
828.437	25023
828.577	24837
828.716	25042
828.855	24981
828.994	24738
829.134	24757
829.273	24738
829.412	24749
829.551	24681
829.69	24776
829.829	24772
829.968	24844
830.107	24745
830.246	24661
830.385	24585
830.524	24734
830.663	24540
830.802	24471
830.941	24323
831.08	24289
831.219	24414
831.357	24452
831.496	24730
831.635	24410
831.774	24235
831.913	24117
832.051	24171
832.19	24281
832.329	24144
832.467	23992
832.606	24045
832.744	23923
832.883	24060
833.022	24038
833.16	24110
833.299	24076
833.437	23973
833.576	24110
833.714	24095
833.852	24079
833.991	24167
834.129	24136
834.267	24182
834.406	24102
834.544	24106
834.682	24125
834.821	24136
834.959	24300
835.097	24072
835.235	24144
835.373	24129
835.511	24064
835.65	23897
835.788	23984
835.926	23764
836.064	23703
836.202	23802
836.34	23779
836.478	24098
836.615	23893
836.753	23912
836.891	23977
837.029	23882
837.167	23790
837.305	23863
837.443	23733
837.58	23695
837.718	23817
837.856	23779
837.993	23767
838.131	23710
838.269	23642
838.406	23623
838.544	23471
838.681	23520
838.819	23414
838.956	23277
839.094	23185
839.231	23269
839.369	23345
839.506	23726
839.643	23509
839.781	23246
839.918	23105
840.055	23326
840.193	23227
840.33	23094
840.467	23193
840.604	23140
840.742	23482
840.879	23022
841.016	23056
841.153	23094
841.29	23261
841.427	23079
841.564	23079
841.701	23109
841.838	23193
841.975	22961
842.112	22999
842.249	22984
842.385	22908
842.522	23204
842.659	22934
842.796	22831
842.933	22900
843.069	22755
843.206	22873
843.343	22976
843.479	22847
843.616	22694
843.752	22607
843.889	22809
844.025	22744
844.162	22618
844.298	22763
844.435	22634
844.571	22702
844.708	22786
844.844	22965
844.98	22717
845.117	22843
845.253	22512
845.389	22542
845.525	22596
845.661	22481
845.798	22462
845.934	22432
846.07	22322
846.206	22443
846.342	22550
846.478	22356
846.614	22272
846.75	22097
846.886	22128
847.022	22295
847.158	22219
847.294	22017
847.429	22242
847.565	22051
847.701	22379
847.837	21998
847.972	21827
848.108	22013
848.244	21945
848.379	21857
848.515	21633
848.65	21762
848.786	21682
848.921	21812
849.057	21720
849.192	21701
849.328	21739
849.463	21743
849.598	21682
849.734	21709
849.869	21477
850.004	21473
850.14	21587
850.275	21492
850.41	21469
850.545	21408
850.68	21447
850.815	21538
850.95	21431
851.085	21641
851.22	21614
851.355	21507
851.49	21523
851.625	21374
851.76	21401
851.895	21408
852.03	21450
852.165	21523
852.299	21534
852.434	21583
852.569	21477
852.703	21519
852.838	21473
852.973	21591
853.107	21564
853.242	21633
853.376	21389
853.511	21275
853.645	21272
853.78	21431
853.914	21321
854.048	21222
854.183	21218
854.317	21313
854.451	21526
854.585	21226
854.72	21321
854.854	21481
854.988	21291
855.122	21279
855.256	21176
855.39	21283
855.524	21336
855.658	21355
855.792	21252
855.926	21431
856.06	21374
856.194	21424
856.327	21264
856.461	21245
856.595	21291
856.729	21355
856.862	21428
856.996	21397
857.13	21264
857.263	21351
857.397	21458
857.53	21359
857.664	21340
857.797	21374
857.931	21431
858.064	21302
858.197	21469
858.331	21260
858.464	21150
858.597	21222
858.731	21256
858.864	21287
858.997	21348
859.13	21268
859.263	21340
859.396	21439
859.529	21291
859.662	21245
859.795	21325
859.928	21348
860.061	21428
860.194	21454
860.327	21272
860.46	21374
860.592	21321
860.725	21481
860.858	21424
860.99	21367
861.123	21237
861.256	21287
861.388	21188
861.521	22101
861.653	21268
861.786	21268
861.918	21116
862.05	21313
862.183	21252
862.315	21340
862.447	21176
862.58	21180
862.712	21081
862.844	21020
862.976	21039
863.108	21138
863.24	21500
863.372	21005
863.504	21043
863.636	21009
863.768	21085
863.9	21043
864.032	21024
864.164	20963
864.296	20986
864.428	21226
864.559	21028
864.691	21173
864.823	21176
864.954	21085
865.086	21009
865.217	20956
865.349	20834
865.48	20963
865.612	20902
865.743	21096
865.875	20998
866.006	20842
866.137	20895
866.269	20899
866.4	21017
866.531	20918
866.662	20769
866.793	20902
866.924	20819
867.055	20830
867.186	20887
867.317	20716
867.448	20689
867.579	20880
867.71	20796
867.841	20727
867.972	20849
868.103	20785
868.233	20872
868.364	20872
868.495	20963
868.625	21089
868.756	21241
868.886	20963
869.017	20952
869.147	21188
869.278	21119
869.408	21043
869.539	21195
869.669	21165
869.799	21169
869.929	21214
870.06	21252
870.19	21447
870.32	21291
870.45	21458
870.58	21511
870.71	21648
870.84	21496
870.97	21507
871.1	21515
871.23	21739
871.36	21717
871.489	21564
871.619	21679
871.749	21793
871.879	21656
872.008	21903
872.138	21656
872.267	21705
872.397	21652
872.526	21378
872.656	21656
872.785	21523
872.915	21728
873.044	21709
873.173	21762
873.303	21857
873.432	21732
873.561	21865
873.69	21781
873.819	21732
873.948	21827
874.077	21812
874.206	21587
874.335	21751
874.464	21736
874.593	22051
874.722	21827
874.851	22036
874.979	22101
875.108	22010
875.237	22036
875.365	21854
875.494	21888
875.623	22093
875.751	21975
875.88	21934
876.008	22147
876.136	22131
876.265	22291
876.393	22443
876.521	22337
876.65	22500
876.778	22329
876.906	22371
877.034	22207
877.162	22337
877.29	22226
877.418	22303
877.546	22329
877.674	22268
877.802	22341
877.93	22371
878.058	22356
878.185	22139
878.313	22230
878.441	22303
878.568	21994
878.696	22310
878.824	22371
878.951	22421
879.079	22466
879.206	22607
879.333	22504
879.461	22314
879.588	22424
879.715	22394
879.842	22615
879.97	22253
880.097	22097
880.224	22166
880.351	22128
880.478	22234
880.605	22044
880.732	22230
880.859	22409
880.986	22070
881.112	22246
881.239	21873
881.366	21819
881.493	21857
881.619	21762
881.746	21686
881.872	21686
881.999	21709
882.125	21583
882.252	21679
882.378	21682
882.505	21880
882.631	21599
882.757	21469
882.883	21500
883.01	21439
883.136	21450
883.262	21268
883.388	21222
883.514	21504
883.64	21481
883.766	21275
883.892	21268
884.018	21081
884.143	21275
884.269	21507
884.395	21165
884.52	20971
884.646	21127
884.772	21066
884.897	21036
885.023	21032
885.148	21051
885.274	21192
885.399	21230
885.524	21066
885.65	21070
885.775	21108
885.9	21055
886.025	21146
886.15	21085
886.275	20975
886.4	20914
886.525	21036
886.65	21043
886.775	21093
886.9	21188
887.025	21249
887.149	21062
887.274	20807
887.399	20857
887.523	20777
887.648	20823
887.773	20743
887.897	20906
888.021	20788
888.146	20750
888.27	20910
888.395	20902
888.519	20887
888.643	20845
888.767	20933
888.891	20708
889.015	20682
889.139	20670
889.263	20621
889.387	20762
889.511	20826
889.635	20651
889.759	20602
889.883	20541
890.006	20587
890.13	20697
890.254	20530
890.377	20480
890.501	20351
890.624	20358
890.748	20412
890.871	20317
890.995	20157
891.118	20172
891.241	20122
891.364	20130
891.488	20275
891.611	20107
891.734	20157
891.857	20221
891.98	20202
892.103	20476
892.226	20073
892.349	20115
892.471	19963
892.594	20008
892.717	20187
892.839	20138
892.962	20149
893.085	20092
893.207	20035
893.33	19993
893.452	20016
893.575	20103
893.697	19997
893.819	20206
893.941	20343
894.064	20278
894.186	20043
894.308	20111
894.43	20005
894.552	20103
894.674	20134
894.796	19970
894.918	20039
895.04	20027
895.161	20096
895.283	20153
895.405	20020
895.526	20164
895.648	20096
895.769	20122
895.891	20134
896.012	20206
896.134	20294
896.255	20180
896.376	20096
896.498	20096
896.619	20069
896.74	20096
896.861	20142
896.982	20385
897.103	20530
897.224	20290
897.345	20317
897.466	20294
897.587	20286
897.708	20518
897.828	20286
897.949	20267
898.07	20161
898.19	20126
898.311	20377
898.431	20149
898.552	20366
898.672	20408
898.792	20408
898.913	20324
899.033	20195
899.153	20187
899.273	20058
899.393	20077
899.513	20183
899.633	20027
899.753	20221
899.873	19947
899.993	20020
900.113	20119
900.232	19917
900.352	20012
900.472	20043
900.591	19776
900.711	19868
900.83	19887
900.95	19871
901.069	19860
901.189	19795
901.308	19506
901.427	19373
901.546	19411
901.665	19377
901.784	19552
901.904	19422
902.023	19183
902.141	19129
902.26	18875
902.379	19057
902.498	18993
902.617	18875
902.735	18993
902.854	18844
902.973	18867
903.091	18620
903.21	18589
903.328	18608
903.446	18448
903.565	18494
903.683	18445
903.801	18186
903.919	18414
904.038	18323
904.156	18136
904.274	18258
904.392	18182
904.51	18125
904.627	18224
904.745	18205
904.863	18232
904.981	17961
905.098	17901
905.216	17748
905.334	17931
905.451	17817
905.569	17794
905.686	17741
905.803	17832
905.921	17611
906.038	17817
906.155	17661
906.272	17554
906.389	17611
906.506	17387
906.623	17436
906.74	17478
906.857	17223
906.974	17391
907.091	17379
907.208	17452
907.324	17436
907.441	17433
907.557	17128
907.674	17132
907.79	17105
907.907	17143
908.023	17033
908.139	17033
908.256	17090
908.372	16995
908.488	16908
908.604	16915
908.72	16752
908.836	16816
908.952	16752
909.068	16908
909.184	16968
909.3	16892
909.415	16900
909.531	16828
909.647	16508
909.762	16500
909.878	16596
909.993	16466
910.108	16573
910.224	16569
910.339	16497
910.454	16417
910.57	16246
910.685	16215
910.8	16512
910.915	16375
911.03	16341
911.145	16078
911.259	16211
911.374	16097
911.489	16048
911.604	15930
911.718	15854
911.833	15835
911.947	15724
912.062	15637
912.176	15945
912.291	15884
912.405	15876
912.519	15975
912.633	16078
912.748	15945
912.862	15922
912.976	15751
913.09	15622
913.204	15637
913.318	15743
913.431	15755
913.545	15759
913.659	15774
913.772	15614
913.886	15504
914	15496
914.113	15515
914.226	15580
914.34	15587
914.453	15462
914.566	15504
914.68	15367
914.793	15344
914.906	15180
915.019	15039
915.132	15062
915.245	15081
915.358	15062
915.47	15058
915.583	15089
915.696	15169
915.809	15218
915.921	15176
916.034	14994
916.146	14963
916.259	14937
916.371	15085
916.483	14986
916.595	15017
916.708	14834
916.82	15039
916.932	15001
917.044	14876
917.156	14845
917.268	14785
917.38	14800
917.491	14651
917.603	14762
917.715	14746
917.826	14864
917.938	14712
918.049	14617
918.161	14693
918.272	14864
918.384	14785
918.495	14632
918.606	14484
918.717	14454
918.828	14541
918.939	14514
919.05	14480
919.161	14530
919.272	14301
919.383	14320
919.494	14473
919.604	14701
919.715	14492
919.826	14396
919.936	14412
920.047	14408
920.157	14507
920.267	14636
920.378	14488
920.488	14393
920.598	14587
920.708	14758
920.818	14610
920.928	14533
921.038	14689
921.148	14674
921.258	14438
921.368	14286
921.477	14309
921.587	14229
921.697	14149
921.806	14134
921.916	14073
922.025	14001
922.134	13852
922.244	13769
922.353	13936
922.462	13727
922.571	13624
922.68	13559
922.789	13491
922.898	13449
923.007	13445
923.116	13586
923.224	13434
923.333	13411
923.442	13339
923.55	13247
923.659	13343
923.767	13403
923.876	13240
923.984	13343
924.092	13244
924.201	13358
924.309	13259
924.417	13240
924.525	13137
924.633	13156
924.741	13967
924.849	13000
924.956	13065
925.064	12886
925.172	12825
925.279	12859
925.387	12996
925.494	12871
925.602	13034
925.709	12973
925.816	12821
925.924	12878
926.031	12993
926.138	12875
926.245	12897
926.352	12711
926.459	12954
926.566	12916
926.673	12810
926.779	12673
926.886	12703
926.993	12479
927.099	12574
927.206	12357
927.312	12498
927.419	12456
927.525	12437
927.631	12475
927.737	12292
927.843	12388
927.95	12201
928.056	12353
928.162	12350
928.267	12296
928.373	13088
928.479	12369
928.585	12155
928.69	12300
928.796	12350
928.901	12049
929.007	12003
929.112	12277
929.218	12239
929.323	12038
929.428	12015
929.533	12197
929.638	11908
929.743	12007
929.848	12095
929.953	11980
930.058	11828
930.163	11672
930.267	11756
930.372	11783
930.477	11543
930.581	11870
930.685	11661
930.79	11653
930.894	11596
930.998	11528
931.103	11824
931.207	11356
931.311	11212
931.415	11212
931.519	10987
931.623	10961
