Data from test_V78500241_2193.txt Node
Date: Fri Mar 25 15:56:59 CST 2022
User: usil
Spectrometer: V785-0024
Trigger mode: 0
Integration Time (sec): 4.000000E-1
Scans to average: 1
Nonlinearity correction enabled: false
Boxcar width: 0
Storing dark spectrum: false
XAxis mode: Wavelengths
Number of Pixels in Spectrum: 1024
>>>>>Begin Spectral Data<<<<<
801.071	28500
801.214	28428
801.356	28276
801.499	28215
801.641	28128
801.783	28150
801.926	28032
802.068	28010
802.211	27994
802.353	28044
802.496	27819
802.638	27762
802.78	27663
802.923	27481
803.065	27610
803.208	27663
803.35	27789
803.492	27732
803.635	27914
803.777	27892
803.919	27979
804.061	28462
804.204	28124
804.346	27789
804.488	27838
804.63	28055
804.773	27739
804.915	27895
805.057	28177
805.199	27869
805.341	27975
805.483	27991
805.626	28112
805.768	28067
805.91	28040
806.052	28135
806.194	27956
806.336	28207
806.478	28010
806.62	28097
806.762	28223
806.904	28375
807.046	28554
807.188	28508
807.33	28447
807.472	28447
807.614	28421
807.756	28447
807.898	28375
808.04	28253
808.182	28363
808.324	28523
808.465	28626
808.607	28588
808.749	28782
808.891	28888
809.033	28953
809.174	28839
809.316	28824
809.458	28797
809.6	28767
809.741	28869
809.883	28930
810.025	29105
810.166	29083
810.308	29083
810.45	29086
810.591	28995
810.733	28771
810.875	28729
811.016	28812
811.158	28660
811.299	28961
811.441	28919
811.582	28995
811.724	28729
811.865	28656
812.007	28949
812.148	28729
812.29	28987
812.431	28930
812.573	29025
812.714	29193
812.855	29208
812.997	29482
813.138	29745
813.279	29455
813.421	29379
813.562	29216
813.703	29189
813.845	28961
813.986	28816
814.127	28538
814.268	28554
814.41	28535
814.551	28401
814.692	28565
814.833	28325
814.974	28497
815.115	28596
815.256	28185
815.397	28409
815.539	28409
815.68	28249
815.821	28261
815.962	28333
816.103	28261
816.244	28322
816.385	28074
816.526	28070
816.666	27964
816.807	27701
816.948	27838
817.089	27953
817.23	27888
817.371	27724
817.512	27835
817.653	27694
817.793	27705
817.934	27812
818.075	27762
818.216	27759
818.356	27823
818.497	27572
818.638	27652
818.778	27515
818.919	27405
819.06	27633
819.2	27728
819.341	27686
819.481	27804
819.622	27945
819.762	28128
819.903	28017
820.043	27907
820.184	27850
820.324	27941
820.465	27987
820.605	27998
820.746	27895
820.886	27846
821.026	27797
821.167	27949
821.307	27930
821.447	27918
821.588	27766
821.728	27564
821.868	27321
822.008	27199
822.149	27233
822.289	27116
822.429	26861
822.569	26937
822.709	26891
822.849	26670
822.99	26754
823.13	26682
823.27	26705
823.41	26739
823.55	26598
823.69	26621
823.83	26575
823.97	26625
824.11	26358
824.25	26385
824.389	26328
824.529	26427
824.669	26385
824.809	26488
824.949	26511
825.089	26537
825.228	26412
825.368	26377
825.508	26381
825.648	26237
825.787	26313
825.927	26343
826.067	26256
826.206	26339
826.346	26317
826.485	26423
826.625	26176
826.765	26278
826.904	26271
827.044	26134
827.183	26103
827.323	26050
827.462	26107
827.601	26054
827.741	25928
827.88	26046
828.02	25833
828.159	26008
828.298	25940
828.437	26100
828.577	25932
828.716	26024
828.855	26027
828.994	25856
829.134	25772
829.273	25807
829.412	25689
829.551	25502
829.69	25628
829.829	25677
829.968	25765
830.107	25772
830.246	25727
830.385	25624
830.524	25514
830.663	25483
830.802	25453
830.941	25190
831.08	25228
831.219	25392
831.357	25346
831.496	25586
831.635	25240
831.774	25133
831.913	25084
832.051	25053
832.19	25065
832.329	25247
832.467	25053
832.606	24947
832.744	24867
832.883	24947
833.022	24981
833.16	24989
833.299	25042
833.437	24966
833.576	25084
833.714	25072
833.852	25129
833.991	25080
834.129	25080
834.267	24981
834.406	24951
834.544	25129
834.682	25137
834.821	24932
834.959	25198
835.097	25103
835.235	25095
835.373	25042
835.511	24837
835.65	24817
835.788	24878
835.926	24852
836.064	24741
836.202	24772
836.34	24806
836.478	24863
836.615	24833
836.753	25012
836.891	24886
837.029	24810
837.167	24859
837.305	24757
837.443	24791
837.58	24703
837.718	24840
837.856	24753
837.993	24700
838.131	24787
838.269	24612
838.406	24642
838.544	24498
838.681	24437
838.819	24369
838.956	24163
839.094	24155
839.231	24136
839.369	24334
839.506	24563
839.643	24353
839.781	24125
839.918	24015
840.055	24041
840.193	24224
840.33	24125
840.467	24102
840.604	24114
840.742	24292
840.879	23931
841.016	23996
841.153	23931
841.29	24140
841.427	24045
841.564	24144
841.701	24038
841.838	23984
841.975	23939
842.112	24011
842.249	23920
842.385	23901
842.522	24072
842.659	23935
842.796	23824
842.933	23863
843.069	23760
843.206	23885
843.343	23939
843.479	23767
843.616	23790
843.752	23570
843.889	23680
844.025	23851
844.162	23627
844.298	23680
844.435	23528
844.571	23554
844.708	23630
844.844	23657
844.98	23615
845.117	23805
845.253	23539
845.389	23516
845.525	23478
845.661	23440
845.798	23299
845.934	23448
846.07	23288
846.206	23318
846.342	23455
846.478	23379
846.614	23151
846.75	23006
846.886	23018
847.022	23124
847.158	23079
847.294	23044
847.429	23052
847.565	22995
847.701	23299
847.837	22763
847.972	22664
848.108	22866
848.244	22774
848.379	22767
848.515	22645
848.65	22653
848.786	22588
848.921	22637
849.057	22687
849.192	22801
849.328	22733
849.463	22618
849.598	22478
849.734	22451
849.869	22451
850.004	22466
850.14	22554
850.275	22363
850.41	22234
850.545	22417
850.68	22325
850.815	22436
850.95	22440
851.085	22565
851.22	22504
851.355	22379
851.49	22257
851.625	22314
851.76	22230
851.895	22287
852.03	22173
852.165	22390
852.299	22371
852.434	22451
852.569	22428
852.703	22421
852.838	22455
852.973	22512
853.107	22375
853.242	22268
853.376	22306
853.511	21930
853.645	22215
853.78	22398
853.914	22204
854.048	22230
854.183	22276
854.317	22299
854.451	22462
854.585	22181
854.72	22211
854.854	22246
854.988	22086
855.122	22341
855.256	22086
855.39	22150
855.524	22287
855.658	22363
855.792	22154
855.926	22234
856.06	22333
856.194	22314
856.327	22272
856.461	22234
856.595	22192
856.729	22166
856.862	22360
856.996	22230
857.13	22287
857.263	22333
857.397	22291
857.53	22120
857.664	22215
857.797	22196
857.931	22230
858.064	22268
858.197	22314
858.331	22196
858.464	22139
858.597	22135
858.731	22143
858.864	22074
858.997	22162
859.13	22185
859.263	22154
859.396	22265
859.529	22242
859.662	22101
859.795	22219
859.928	22207
860.061	22367
860.194	22546
860.327	22398
860.46	22276
860.592	22265
860.725	22306
860.858	22386
860.99	22268
861.123	22162
861.256	22166
861.388	22116
861.521	22938
861.653	22086
861.786	22048
861.918	22036
862.05	22158
862.183	22097
862.315	22219
862.447	22021
862.58	22223
862.712	21903
862.844	21861
862.976	21941
863.108	21956
863.24	22329
863.372	21945
863.504	21895
863.636	21937
863.768	21838
863.9	21949
864.032	21816
864.164	21884
864.296	21785
864.428	21911
864.559	22063
864.691	21949
864.823	22013
864.954	21918
865.086	21934
865.217	21762
865.349	21698
865.48	21797
865.612	21709
865.743	21941
865.875	21823
866.006	21698
866.137	21728
866.269	21755
866.4	21705
866.531	21713
866.662	21797
866.793	21785
866.924	21667
867.055	21728
867.186	21781
867.317	21671
867.448	21686
867.579	21633
867.71	21713
867.841	21679
867.972	21816
868.103	21686
868.233	21709
868.364	21679
868.495	21770
868.625	22006
868.756	22010
868.886	21838
869.017	21960
869.147	21987
869.278	22105
869.408	21994
869.539	21918
869.669	22059
869.799	22006
869.929	22063
870.06	22112
870.19	22234
870.32	22268
870.45	22196
870.58	22344
870.71	22493
870.84	22573
870.97	22329
871.1	22428
871.23	22584
871.36	22592
871.489	22428
871.619	22550
871.749	22542
871.879	22596
872.008	22672
872.138	22546
872.267	22512
872.397	22466
872.526	22421
872.656	22493
872.785	22337
872.915	22607
873.044	22637
873.173	22622
873.303	22649
873.432	22634
873.561	22660
873.69	22546
873.819	22489
873.948	22603
874.077	22607
874.206	22550
874.335	22687
874.464	22771
874.593	22793
874.722	22892
874.851	22873
874.979	22930
875.108	22854
875.237	22717
875.365	22679
875.494	22660
875.623	22866
875.751	22755
875.88	22755
876.008	22953
876.136	22934
876.265	23216
876.393	23334
876.521	23223
876.65	23330
876.778	23200
876.906	23231
877.034	23242
877.162	23193
877.29	22968
877.418	23140
877.546	23025
877.674	23014
877.802	23102
877.93	23117
878.058	23109
878.185	23090
878.313	23105
878.441	23166
878.568	22919
878.696	23170
878.824	23151
878.951	23200
879.079	23193
879.206	23395
879.333	23353
879.461	23265
879.588	23246
879.715	23349
879.842	23528
879.97	23265
880.097	23010
880.224	22927
880.351	22873
880.478	23064
880.605	22843
880.732	22949
880.859	23307
880.986	23029
881.112	23052
881.239	22869
881.366	22725
881.493	22626
881.619	22402
881.746	22580
881.872	22573
881.999	22607
882.125	22443
882.252	22531
882.378	22382
882.505	22626
882.631	22272
882.757	22219
882.883	22318
883.01	22147
883.136	22135
883.262	22059
883.388	21960
883.514	22246
883.64	22219
883.766	22192
883.892	21937
884.018	21987
884.143	22017
884.269	22284
884.395	21865
884.52	21778
884.646	21892
884.772	21728
884.897	21739
885.023	21857
885.148	21857
885.274	21911
885.399	21937
885.524	21968
885.65	21759
885.775	21846
885.9	21911
886.025	22025
886.15	21869
886.275	21728
886.4	21797
886.525	21842
886.65	21819
886.775	21713
886.9	21975
887.025	22055
887.149	21899
887.274	21595
887.399	21625
887.523	21622
887.648	21564
887.773	21610
887.897	21576
888.021	21610
888.146	21549
888.27	21713
888.395	21633
888.519	21561
888.643	21568
888.767	21789
888.891	21424
889.015	21321
889.139	21439
889.263	21435
889.387	21450
889.511	21553
889.635	21549
889.759	21378
889.883	21321
890.006	21435
890.13	21534
890.254	21218
890.377	21218
890.501	21108
890.624	21138
890.748	21214
890.871	21039
890.995	21001
891.118	20979
891.241	20842
891.364	20880
891.488	21055
891.611	20960
891.734	21001
891.857	20971
891.98	20914
892.103	21001
892.226	21066
892.349	20876
892.471	20689
892.594	20739
892.717	20975
892.839	20804
892.962	20849
893.085	20918
893.207	20861
893.33	20701
893.452	20765
893.575	20815
893.697	20834
893.819	20982
893.941	21093
894.064	21055
894.186	20788
894.308	20845
894.43	20914
894.552	20925
894.674	20910
894.796	20762
894.918	20876
895.04	20823
895.161	20868
895.283	20830
895.405	20701
895.526	20830
895.648	20804
895.769	20967
895.891	20899
896.012	20921
896.134	20838
896.255	20826
896.376	20887
896.498	20792
896.619	20853
896.74	20952
896.861	20842
896.982	21070
897.103	21135
897.224	21138
897.345	21024
897.466	20971
897.587	20986
897.708	21112
897.828	21093
897.949	20941
898.07	20842
898.19	21032
898.311	21058
898.431	20960
898.552	20952
898.672	21100
898.792	20933
898.913	20994
899.033	20845
899.153	20895
899.273	20640
899.393	20834
899.513	20826
899.633	20769
899.753	20663
899.873	20705
899.993	20731
900.113	20636
900.232	20811
900.352	20727
900.472	20571
900.591	20511
900.711	20590
900.83	20465
900.95	20613
901.069	20682
901.189	20427
901.308	20145
901.427	20077
901.546	20058
901.665	20214
901.784	20115
901.904	19928
902.023	19883
902.141	19791
902.26	19704
902.379	19696
902.498	19540
902.617	19548
902.735	19651
902.854	19506
902.973	19495
903.091	19346
903.21	19202
903.328	19255
903.446	19209
903.565	19019
903.683	19148
903.801	19023
903.919	19031
904.038	19042
904.156	18867
904.274	18966
904.392	18741
904.51	18776
904.627	18810
904.745	18848
904.863	18817
904.981	18757
905.098	18555
905.216	18494
905.334	18574
905.451	18544
905.569	18585
905.686	18498
905.803	18570
905.921	18357
906.038	18346
906.155	18251
906.272	18277
906.389	18171
906.506	18117
906.623	18015
906.74	17954
906.857	17950
906.974	17988
907.091	18186
907.208	18167
907.324	17988
907.441	17996
907.557	17790
907.674	17824
907.79	17684
907.907	17771
908.023	17790
908.139	17817
908.256	17737
908.372	17604
908.488	17577
908.604	17516
908.72	17341
908.836	17509
908.952	17467
909.068	17478
909.184	17539
909.3	17509
909.415	17505
909.531	17406
909.647	17239
909.762	17204
909.878	17181
909.993	17090
910.108	17170
910.224	17086
910.339	17155
910.454	17045
910.57	16968
910.685	16919
910.8	17143
910.915	17029
911.03	16972
911.145	16782
911.259	16664
911.374	16694
911.489	16694
911.604	16538
911.718	16481
911.833	16451
911.947	16367
912.062	16306
912.176	16504
912.291	16356
912.405	16546
912.519	16599
912.633	16672
912.748	16561
912.862	16455
912.976	16379
913.09	16071
913.204	16234
913.318	16295
913.431	16398
913.545	16299
913.659	16299
913.772	16242
913.886	16131
914	16116
914.113	16093
914.226	16158
914.34	16147
914.453	16013
914.566	16105
914.68	15937
914.793	15880
914.906	15679
915.019	15652
915.132	15675
915.245	15618
915.358	15717
915.47	15709
915.583	15587
915.696	15599
915.809	15835
915.921	15804
916.034	15599
916.146	15564
916.259	15587
916.371	15698
916.483	15557
916.595	15466
916.708	15488
916.82	15458
916.932	15454
917.044	15348
917.156	15378
917.268	15367
917.38	15264
917.491	15192
917.603	15351
917.715	15355
917.826	15481
917.938	15260
918.049	15203
918.161	15264
918.272	15401
918.384	15386
918.495	15241
918.606	15123
918.717	15009
918.828	15154
918.939	15051
919.05	14937
919.161	14998
919.272	14868
919.383	14925
919.494	15138
919.604	15184
919.715	15051
919.826	14857
919.936	14990
920.047	15207
920.157	14971
920.267	15165
920.378	15123
920.488	14921
920.598	15192
920.708	15268
920.818	15074
920.928	14975
921.038	15279
921.148	15272
921.258	14948
921.368	14853
921.477	14651
921.587	14777
921.697	14594
921.806	14731
921.916	14579
922.025	14419
922.134	14343
922.244	14400
922.353	14419
922.462	14294
922.571	14172
922.68	14058
922.789	13997
922.898	14077
923.007	13978
923.116	14069
923.224	14058
923.333	13898
923.442	13814
923.55	13746
923.659	13875
923.767	13837
923.876	13769
923.984	13750
924.092	13715
924.201	13731
924.309	13750
924.417	13719
924.525	13613
924.633	13700
924.741	14446
924.849	13411
924.956	13571
925.064	13476
925.172	13346
925.279	13468
925.387	13472
925.494	13403
925.602	13506
925.709	13362
925.816	13400
925.924	13335
926.031	13426
926.138	13365
926.245	13312
926.352	13202
926.459	13316
926.566	13426
926.673	13282
926.779	13137
926.886	13072
926.993	13084
927.099	12939
927.206	12901
927.312	12932
927.419	12958
927.525	12890
927.631	13027
927.737	12829
927.843	12840
927.95	12715
928.056	12715
928.162	12848
928.267	12753
928.373	13521
928.479	12856
928.585	12601
928.69	12681
928.796	12749
928.901	12612
929.007	12486
929.112	12551
929.218	12509
929.323	12433
929.428	12456
929.533	12692
929.638	12407
929.743	12483
929.848	12521
929.953	12479
930.058	12315
930.163	12159
930.267	12163
930.372	12247
930.477	12129
930.581	12315
930.685	12178
930.79	12083
930.894	12007
930.998	12072
931.103	12079
931.207	11752
931.311	11668
931.415	11657
931.519	11433
931.623	11421
