Data from test_V78500241_1908.txt Node
Date: Fri Mar 25 15:55:01 CST 2022
User: usil
Spectrometer: V785-0024
Trigger mode: 0
Integration Time (sec): 4.000000E-1
Scans to average: 1
Nonlinearity correction enabled: false
Boxcar width: 0
Storing dark spectrum: false
XAxis mode: Wavelengths
Number of Pixels in Spectrum: 1024
>>>>>Begin Spectral Data<<<<<
801.071	28908
801.214	28744
801.356	28443
801.499	28329
801.641	28508
801.783	28310
801.926	28242
802.068	28360
802.211	28242
802.353	28265
802.496	28002
802.638	28044
802.78	28032
802.923	27956
803.065	27953
803.208	28025
803.35	28181
803.492	28242
803.635	28249
803.777	28147
803.919	28363
804.061	28436
804.204	28451
804.346	28234
804.488	28196
804.63	28295
804.773	28276
804.915	28253
805.057	28367
805.199	28147
805.341	28382
805.483	28424
805.626	28356
805.768	28291
805.91	28337
806.052	28474
806.194	28325
806.336	28729
806.478	28371
806.62	28417
806.762	28656
806.904	28797
807.046	28946
807.188	28850
807.33	28858
807.472	28972
807.614	28793
807.756	28934
807.898	28847
808.04	28622
808.182	28793
808.324	28824
808.465	29006
808.607	29098
808.749	29121
808.891	29254
809.033	29261
809.174	29235
809.316	29128
809.458	29140
809.6	29212
809.741	29223
809.883	29387
810.025	29482
810.166	29315
810.308	29467
810.45	29444
810.591	29364
810.733	29140
810.875	29239
811.016	29025
811.158	29102
811.299	29326
811.441	29269
811.582	29292
811.724	29216
811.865	29227
812.007	29143
812.148	29216
812.29	29296
812.431	29250
812.573	29474
812.714	29611
812.855	29767
812.997	29790
813.138	29950
813.279	29878
813.421	29714
813.562	29699
813.703	29539
813.845	29509
813.986	29113
814.127	28942
814.268	28828
814.41	28892
814.551	28812
814.692	28881
814.833	28892
814.974	29113
815.115	28721
815.256	28831
815.397	28828
815.539	28744
815.68	28771
815.821	28542
815.962	28824
816.103	28641
816.244	28607
816.385	28550
816.526	28401
816.666	28356
816.807	28207
816.948	28424
817.089	28363
817.23	28196
817.371	28230
817.512	28215
817.653	28234
817.793	28363
817.934	28223
818.075	28261
818.216	28246
818.356	28120
818.497	28002
818.638	27892
818.778	27918
818.919	28051
819.06	28147
819.2	28154
819.341	28135
819.481	28211
819.622	28413
819.762	28603
819.903	28485
820.043	28382
820.184	28409
820.324	28356
820.465	28394
820.605	28360
820.746	28375
820.886	28226
821.026	28299
821.167	28265
821.307	28371
821.447	28147
821.588	28147
821.728	28120
821.868	27800
822.008	27660
822.149	27762
822.289	27785
822.429	27462
822.569	27424
822.709	27420
822.849	27256
822.99	27237
823.13	27249
823.27	27043
823.41	26990
823.55	27005
823.69	26918
823.83	26971
823.97	27047
824.11	26986
824.25	26834
824.389	26762
824.529	26910
824.669	26887
824.809	27066
824.949	27043
825.089	26880
825.228	26982
825.368	26720
825.508	26625
825.648	26705
825.787	26834
825.927	26716
826.067	26769
826.206	26788
826.346	26815
826.485	26762
826.625	26674
826.765	26792
826.904	26838
827.044	26507
827.183	26499
827.323	26511
827.462	26503
827.601	26290
827.741	26514
827.88	26541
828.02	26328
828.159	26453
828.298	26461
828.437	26381
828.577	26389
828.716	26602
828.855	26301
828.994	26263
829.134	26069
829.273	26263
829.412	26016
829.551	26134
829.69	26138
829.829	26221
829.968	26172
830.107	26164
830.246	26119
830.385	26046
830.524	26012
830.663	25909
830.802	25818
830.941	25643
831.08	25704
831.219	25772
831.357	25731
831.496	25913
831.635	25814
831.774	25769
831.913	25537
832.051	25586
832.19	25460
832.329	25472
832.467	25468
832.606	25308
832.744	25388
832.883	25400
833.022	25449
833.16	25377
833.299	25403
833.437	25651
833.576	25441
833.714	25358
833.852	25552
833.991	25552
834.129	25533
834.267	25411
834.406	25415
834.544	25670
834.682	25468
834.821	25377
834.959	25632
835.097	25316
835.235	25415
835.373	25445
835.511	25502
835.65	25369
835.788	25228
835.926	25270
836.064	25080
836.202	25061
836.34	25259
836.478	25327
836.615	25236
836.753	25228
836.891	25301
837.029	25221
837.167	25133
837.305	25194
837.443	25266
837.58	25255
837.718	25171
837.856	25168
837.993	25129
838.131	25198
838.269	25008
838.406	24962
838.544	24973
838.681	24719
838.819	24703
838.956	24551
839.094	24540
839.231	24585
839.369	24798
839.506	24981
839.643	24852
839.781	24593
839.918	24513
840.055	24707
840.193	24593
840.33	24407
840.467	24403
840.604	24597
840.742	24673
840.879	24277
841.016	24521
841.153	24346
841.29	24502
841.427	24445
841.564	24570
841.701	24486
841.838	24342
841.975	24452
842.112	24395
842.249	24277
842.385	24194
842.522	24456
842.659	24163
842.796	24209
842.933	24133
843.069	24186
843.206	24194
843.343	24372
843.479	24289
843.616	24140
843.752	24114
843.889	24079
844.025	24140
844.162	24011
844.298	23965
844.435	23939
844.571	23969
844.708	23965
844.844	24186
844.98	24136
845.117	24018
845.253	23954
845.389	23904
845.525	24011
845.661	23912
845.798	23676
845.934	23908
846.07	23668
846.206	23760
846.342	23942
846.478	23760
846.614	23551
846.75	23417
846.886	23444
847.022	23520
847.158	23493
847.294	23471
847.429	23448
847.565	23486
847.701	23710
847.837	23204
847.972	23132
848.108	23269
848.244	23265
848.379	23079
848.515	23014
848.65	23159
848.786	23090
848.921	23102
849.057	23220
849.192	23067
849.328	23029
849.463	23090
849.598	22946
849.734	23014
849.869	22896
850.004	22847
850.14	22729
850.275	22752
850.41	22729
850.545	22702
850.68	22843
850.815	22809
850.95	22725
851.085	22919
851.22	22927
851.355	22850
851.49	22835
851.625	22790
851.76	22797
851.895	22774
852.03	22668
852.165	22782
852.299	22850
852.434	22908
852.569	22850
852.703	22812
852.838	22858
852.973	22946
853.107	22828
853.242	22733
853.376	22778
853.511	22447
853.645	22660
853.78	22748
853.914	22645
854.048	22660
854.183	22584
854.317	22508
854.451	22877
854.585	22683
854.72	22710
854.854	22713
854.988	22481
855.122	22702
855.256	22588
855.39	22577
855.524	22740
855.658	22702
855.792	22607
855.926	22535
856.06	22588
856.194	22801
856.327	22641
856.461	22451
856.595	22649
856.729	22592
856.862	22771
856.996	22733
857.13	22725
857.263	22634
857.397	22778
857.53	22573
857.664	22599
857.797	22698
857.931	22824
858.064	22508
858.197	22752
858.331	22470
858.464	22626
858.597	22447
858.731	22580
858.864	22538
858.997	22618
859.13	22729
859.263	22584
859.396	22763
859.529	22717
859.662	22554
859.795	22611
859.928	22573
860.061	22752
860.194	22835
860.327	22763
860.46	22656
860.592	22752
860.725	22733
860.858	22683
860.99	22771
861.123	22694
861.256	22599
861.388	22603
861.521	23425
861.653	22489
861.786	22455
861.918	22508
862.05	22474
862.183	22675
862.315	22497
862.447	22683
862.58	22504
862.712	22303
862.844	22268
862.976	22516
863.108	22386
863.24	22793
863.372	22234
863.504	22447
863.636	22242
863.768	22405
863.9	22295
864.032	22204
864.164	22314
864.296	22230
864.428	22371
864.559	22417
864.691	22466
864.823	22318
864.954	22424
865.086	22230
865.217	22238
865.349	22150
865.48	22299
865.612	22314
865.743	22287
865.875	22181
866.006	22207
866.137	22226
866.269	22234
866.4	22284
866.531	22200
866.662	22105
866.793	22204
866.924	22287
867.055	22131
867.186	22105
867.317	22112
867.448	22036
867.579	22036
867.71	22059
867.841	22021
867.972	22226
868.103	22055
868.233	22070
868.364	22074
868.495	22249
868.625	22344
868.756	22474
868.886	22261
869.017	22360
869.147	22390
869.278	22489
869.408	22428
869.539	22424
869.669	22497
869.799	22497
869.929	22538
870.06	22592
870.19	22641
870.32	22554
870.45	22843
870.58	22881
870.71	22839
870.84	22843
870.97	22752
871.1	22908
871.23	22824
871.36	22957
871.489	22911
871.619	22919
871.749	22965
871.879	23018
872.008	23067
872.138	23044
872.267	22961
872.397	22805
872.526	22748
872.656	22869
872.785	22710
872.915	23060
873.044	23117
873.173	22984
873.303	23029
873.432	23018
873.561	23079
873.69	23022
873.819	23052
873.948	22892
874.077	22972
874.206	22927
874.335	22984
874.464	23178
874.593	23334
874.722	23200
874.851	23334
874.979	23208
875.108	23303
875.237	23178
875.365	23147
875.494	23140
875.623	23269
875.751	23117
875.88	23318
876.008	23193
876.136	23486
876.265	23589
876.393	23695
876.521	23600
876.65	23691
876.778	23634
876.906	23463
877.034	23497
877.162	23421
877.29	23573
877.418	23676
877.546	23512
877.674	23562
877.802	23493
877.93	23577
878.058	23448
878.185	23349
878.313	23429
878.441	23573
878.568	23322
878.696	23341
878.824	23577
878.951	23714
879.079	23684
879.206	23798
879.333	23722
879.461	23436
879.588	23638
879.715	23703
879.842	23764
879.97	23589
880.097	23360
880.224	23376
880.351	23414
880.478	23482
880.605	23265
880.732	23220
880.859	23528
880.986	23421
881.112	23486
881.239	23258
881.366	23216
881.493	22949
881.619	22881
881.746	23067
881.872	22961
881.999	22850
882.125	22919
882.252	22980
882.378	22889
882.505	22934
882.631	22706
882.757	22588
882.883	22546
883.01	22599
883.136	22538
883.262	22565
883.388	22474
883.514	22607
883.64	22546
883.766	22424
883.892	22367
884.018	22371
884.143	22500
884.269	22489
884.395	22139
884.52	22242
884.646	22196
884.772	22162
884.897	22242
885.023	22230
885.148	22265
885.274	22405
885.399	22204
885.524	22272
885.65	22219
885.775	22150
885.9	22226
886.025	22276
886.15	22291
886.275	22185
886.4	22131
886.525	22261
886.65	22162
886.775	22040
886.9	22261
887.025	22348
887.149	22139
887.274	22105
887.399	21907
887.523	21979
887.648	21964
887.773	21804
887.897	22010
888.021	21968
888.146	21785
888.27	22177
888.395	22105
888.519	21926
888.643	21975
888.767	21998
888.891	21838
889.015	21804
889.139	21857
889.263	21804
889.387	21713
889.511	22013
889.635	21869
889.759	21743
889.883	21648
890.006	21781
890.13	21861
890.254	21671
890.377	21637
890.501	21568
890.624	21393
890.748	21534
890.871	21523
890.995	21355
891.118	21230
891.241	21214
891.364	21287
891.488	21447
891.611	21306
891.734	21214
891.857	21275
891.98	21302
892.103	21268
892.226	21340
892.349	21302
892.471	21142
892.594	21169
892.717	21268
892.839	21123
892.962	21192
893.085	21252
893.207	21131
893.33	21096
893.452	21116
893.575	21176
893.697	21127
893.819	21317
893.941	21386
894.064	21332
894.186	21096
894.308	21169
894.43	21192
894.552	21431
894.674	21180
894.796	21055
894.918	21195
895.04	21119
895.161	21188
895.283	21279
895.405	21108
895.526	21237
895.648	21180
895.769	21169
895.891	21165
896.012	21363
896.134	21184
896.255	21150
896.376	21119
896.498	21157
896.619	21260
896.74	21150
896.861	21211
896.982	21488
897.103	21622
897.224	21530
897.345	21367
897.466	21230
897.587	21382
897.708	21469
897.828	21412
897.949	21237
898.07	21138
898.19	21386
898.311	21435
898.431	21340
898.552	21477
898.672	21412
898.792	21511
898.913	21313
899.033	21188
899.153	21176
899.273	21135
899.393	21112
899.513	21028
899.633	21100
899.753	21119
899.873	21081
899.993	21142
900.113	21032
900.232	20975
900.352	21032
900.472	20861
900.591	20823
900.711	20956
900.83	20842
900.95	20849
901.069	21005
901.189	20712
901.308	20526
901.427	20438
901.546	20438
901.665	20415
901.784	20366
901.904	20119
902.023	20183
902.141	19967
902.26	19963
902.379	19978
902.498	19989
902.617	19894
902.735	20046
902.854	19928
902.973	19864
903.091	19628
903.21	19506
903.328	19624
903.446	19533
903.565	19396
903.683	19430
903.801	19221
903.919	19293
904.038	19228
904.156	19091
904.274	19209
904.392	19259
904.51	19133
904.627	19088
904.745	19168
904.863	19171
904.981	18867
905.098	18833
905.216	18700
905.334	18726
905.451	18810
905.569	18810
905.686	18802
905.803	18753
905.921	18559
906.038	18753
906.155	18684
906.272	18528
906.389	18563
906.506	18422
906.623	18361
906.74	18342
906.857	18148
906.974	18285
907.091	18338
907.208	18422
907.324	18388
907.441	18258
907.557	17996
907.674	17996
907.79	17931
907.907	17973
908.023	18079
908.139	18083
908.256	18019
908.372	17954
908.488	17961
908.604	17832
908.72	17653
908.836	17741
908.952	17741
909.068	17764
909.184	17798
909.3	17783
909.415	17794
909.531	17653
909.647	17535
909.762	17528
909.878	17429
909.993	17334
910.108	17391
910.224	17398
910.339	17322
910.454	17296
910.57	17147
910.685	17025
910.8	17398
910.915	17296
911.03	17288
911.145	17010
911.259	17102
911.374	17033
911.489	17048
911.604	16938
911.718	16816
911.833	16816
911.947	16656
912.062	16607
912.176	16713
912.291	16778
912.405	16763
912.519	16946
912.633	16816
912.748	16755
912.862	16744
912.976	16474
913.09	16527
913.204	16622
913.318	16588
913.431	16694
913.545	16626
913.659	16664
913.772	16504
913.886	16500
914	16306
914.113	16550
914.226	16538
914.34	16405
914.453	16166
914.566	16322
914.68	16257
914.793	16242
914.906	16029
915.019	15949
915.132	15911
915.245	15895
915.358	15991
915.47	15983
915.583	15941
915.696	16021
915.809	16116
915.921	16093
916.034	15819
916.146	15888
916.259	15880
916.371	15911
916.483	15861
916.595	15766
916.708	15709
916.82	15781
916.932	15694
917.044	15759
917.156	15633
917.268	15622
917.38	15538
917.491	15591
917.603	15534
917.715	15660
917.826	15610
917.938	15500
918.049	15439
918.161	15530
918.272	15587
918.384	15580
918.495	15397
918.606	15279
918.717	15275
918.828	15230
918.939	15389
919.05	15218
919.161	15256
919.272	15207
919.383	15165
919.494	15329
919.604	15469
919.715	15416
919.826	15241
919.936	15203
920.047	15340
920.157	15367
920.267	15401
920.378	15264
920.488	15306
920.598	15325
920.708	15526
920.818	15477
920.928	15336
921.038	15466
921.148	15545
921.258	15222
921.368	15009
921.477	15013
921.587	14944
921.697	14819
921.806	15013
921.916	14720
922.025	14720
922.134	14606
922.244	14556
922.353	14651
922.462	14438
922.571	14404
922.68	14221
922.789	14290
922.898	14294
923.007	14199
923.116	14267
923.224	14259
923.333	14199
923.442	14005
923.55	13997
923.659	14062
923.767	14134
923.876	13978
923.984	14035
924.092	13940
924.201	13936
924.309	13982
924.417	14024
924.525	13936
924.633	13909
924.741	14587
924.849	13715
924.956	13860
925.064	13670
925.172	13571
925.279	13582
925.387	13666
925.494	13636
925.602	13776
925.709	13597
925.816	13601
925.924	13518
926.031	13704
926.138	13537
926.245	13624
926.352	13540
926.459	13582
926.566	13556
926.673	13468
926.779	13327
926.886	13343
926.993	13225
927.099	13179
927.206	13084
927.312	13095
927.419	13206
927.525	13225
927.631	13160
927.737	13065
927.843	13000
927.95	12958
928.056	12837
928.162	12935
928.267	12996
928.373	13605
928.479	13012
928.585	12833
928.69	12939
928.796	12970
928.901	12837
929.007	12658
929.112	12852
929.218	12757
929.323	12623
929.428	12646
929.533	12840
929.638	12604
929.743	12578
929.848	12726
929.953	12593
930.058	12517
930.163	12388
930.267	12475
930.372	12452
930.477	12254
930.581	12551
930.685	12395
930.79	12194
930.894	12262
930.998	12171
931.103	12273
931.207	12015
931.311	11866
931.415	11786
931.519	11680
931.623	11524
