Data from test_V78500241_2996.txt Node
Date: Fri Mar 25 16:02:33 CST 2022
User: usil
Spectrometer: V785-0024
Trigger mode: 0
Integration Time (sec): 4.000000E-1
Scans to average: 1
Nonlinearity correction enabled: false
Boxcar width: 0
Storing dark spectrum: false
XAxis mode: Wavelengths
Number of Pixels in Spectrum: 1024
>>>>>Begin Spectral Data<<<<<
801.071	28869
801.214	28694
801.356	28523
801.499	28523
801.641	28333
801.783	28310
801.926	28485
802.068	28481
802.211	28367
802.353	28291
802.496	28078
802.638	28135
802.78	28177
802.923	28135
803.065	28010
803.208	28029
803.35	28090
803.492	28048
803.635	28390
803.777	28196
803.919	28291
804.061	28759
804.204	28413
804.346	28185
804.488	28257
804.63	28508
804.773	28325
804.915	28382
805.057	28466
805.199	28322
805.341	28386
805.483	28466
805.626	28428
805.768	28360
805.91	28626
806.052	28440
806.194	28413
806.336	28679
806.478	28645
806.62	28508
806.762	28698
806.904	28949
807.046	29029
807.188	28900
807.33	29079
807.472	29006
807.614	28915
807.756	28885
807.898	28858
808.04	28626
808.182	28675
808.324	28961
808.465	28862
808.607	29189
808.749	29341
808.891	29417
809.033	29425
809.174	29250
809.316	29143
809.458	29197
809.6	29239
809.741	29235
809.883	29277
810.025	29478
810.166	29539
810.308	29497
810.45	29448
810.591	29528
810.733	29147
810.875	29273
811.016	29121
811.158	29216
811.299	29368
811.441	29467
811.582	29356
811.724	29326
811.865	29261
812.007	29345
812.148	29254
812.29	29254
812.431	29395
812.573	29570
812.714	29783
812.855	29691
812.997	29851
813.138	29980
813.279	29950
813.421	29809
813.562	29779
813.703	29539
813.845	29471
813.986	29136
814.127	29212
814.268	28892
814.41	29052
814.551	28888
814.692	29048
814.833	28915
814.974	28919
815.115	29022
815.256	28805
815.397	28778
815.539	28839
815.68	28672
815.821	28664
815.962	28782
816.103	28797
816.244	28599
816.385	28687
816.526	28516
816.666	28341
816.807	28207
816.948	28405
817.089	28394
817.23	28299
817.371	28341
817.512	28211
817.653	28310
817.793	28143
817.934	28268
818.075	28196
818.216	28299
818.356	28234
818.497	28109
818.638	27979
818.778	28017
818.919	28036
819.06	28036
819.2	28128
819.341	28166
819.481	28211
819.622	28569
819.762	28592
819.903	28653
820.043	28459
820.184	28413
820.324	28462
820.465	28512
820.605	28538
820.746	28390
820.886	28303
821.026	28333
821.167	28341
821.307	28451
821.447	28401
821.588	28291
821.728	28192
821.868	27842
822.008	27717
822.149	27854
822.289	27770
822.429	27454
822.569	27389
822.709	27424
822.849	27252
822.99	27272
823.13	27226
823.27	27389
823.41	27039
823.55	26906
823.69	27173
823.83	27173
823.97	27017
824.11	26944
824.25	26861
824.389	26971
824.529	26944
824.669	26944
824.809	27055
824.949	27047
825.089	26960
825.228	27051
825.368	26731
825.508	26906
825.648	26705
825.787	26830
825.927	26788
826.067	26807
826.206	26872
826.346	26815
826.485	26971
826.625	26819
826.765	26880
826.904	26758
827.044	26583
827.183	26686
827.323	26560
827.462	26537
827.601	26476
827.741	26499
827.88	26396
828.02	26366
828.159	26480
828.298	26526
828.437	26686
828.577	26419
828.716	26568
828.855	26453
828.994	26187
829.134	26267
829.273	26221
829.412	26092
829.551	26111
829.69	26278
829.829	26130
829.968	26206
830.107	26290
830.246	26176
830.385	26096
830.524	26046
830.663	25944
830.802	25856
830.941	25814
831.08	25700
831.219	25822
831.357	25841
831.496	26001
831.635	25875
831.774	25788
831.913	25647
832.051	25613
832.19	25540
832.329	25700
832.467	25407
832.606	25346
832.744	25400
832.883	25434
833.022	25445
833.16	25487
833.299	25472
833.437	25445
833.576	25518
833.714	25552
833.852	25525
833.991	25635
834.129	25563
834.267	25624
834.406	25479
834.544	25578
834.682	25559
834.821	25510
834.959	25624
835.097	25495
835.235	25586
835.373	25559
835.511	25502
835.65	25415
835.788	25388
835.926	25331
836.064	25244
836.202	25350
836.34	25327
836.478	25586
836.615	25278
836.753	25464
836.891	25396
837.029	25438
837.167	25285
837.305	25164
837.443	25202
837.58	25278
837.718	25263
837.856	25160
837.993	25141
838.131	25050
838.269	25072
838.406	25034
838.544	25000
838.681	24821
838.819	24859
838.956	24631
839.094	24757
839.231	24715
839.369	24817
839.506	24989
839.643	24863
839.781	24623
839.918	24654
840.055	24635
840.193	24639
840.33	24639
840.467	24486
840.604	24585
840.742	24844
840.879	24441
841.016	24502
841.153	24388
841.29	24681
841.427	24486
841.564	24597
841.701	24559
841.838	24441
841.975	24505
842.112	24452
842.249	24334
842.385	24266
842.522	24521
842.659	24483
842.796	24365
842.933	24346
843.069	24228
843.206	24266
843.343	24369
843.479	24190
843.616	24521
843.752	24026
843.889	24213
844.025	24262
844.162	24178
844.298	24152
844.435	24117
844.571	24216
844.708	24110
844.844	24270
844.98	24273
845.117	24190
845.253	24026
845.389	23965
845.525	23904
845.661	23889
845.798	23786
845.934	23950
846.07	23874
846.206	23908
846.342	23836
846.478	23920
846.614	23558
846.75	23573
846.886	23486
847.022	23490
847.158	23505
847.294	23433
847.429	23501
847.565	23562
847.701	23786
847.837	23200
847.972	23265
848.108	23383
848.244	23292
848.379	23109
848.515	23136
848.65	23200
848.786	23056
848.921	23269
849.057	23265
849.192	23174
849.328	23254
849.463	23181
849.598	23185
849.734	22930
849.869	22904
850.004	22927
850.14	22991
850.275	22923
850.41	22938
850.545	22782
850.68	22949
850.815	22976
850.95	22824
851.085	23117
851.22	23102
851.355	22896
851.49	22877
851.625	22927
851.76	22911
851.895	22839
852.03	22801
852.165	22801
852.299	22862
852.434	23025
852.569	22835
852.703	22790
852.838	22957
852.973	23025
853.107	23090
853.242	22793
853.376	22755
853.511	22561
853.645	22592
853.78	22816
853.914	22831
854.048	22717
854.183	22687
854.317	22740
854.451	22968
854.585	22729
854.72	22793
854.854	22809
854.988	22763
855.122	22736
855.256	22512
855.39	22641
855.524	22774
855.658	22786
855.792	22679
855.926	22641
856.06	22736
856.194	22809
856.327	22664
856.461	22687
856.595	22672
856.729	22717
856.862	22801
856.996	22767
857.13	22790
857.263	23048
857.397	22618
857.53	22668
857.664	22717
857.797	22812
857.931	22790
858.064	22755
858.197	22831
858.331	22675
858.464	22687
858.597	22691
858.731	22717
858.864	22733
858.997	22713
859.13	22740
859.263	22698
859.396	22706
859.529	22786
859.662	22622
859.795	22679
859.928	22653
860.061	22866
860.194	23003
860.327	22801
860.46	22820
860.592	22850
860.725	22934
860.858	22908
860.99	22664
861.123	22668
861.256	22702
861.388	22615
861.521	23562
861.653	22637
861.786	22538
861.918	22569
862.05	22713
862.183	22622
862.315	22660
862.447	22805
862.58	22649
862.712	22527
862.844	22329
862.976	22542
863.108	22607
863.24	22790
863.372	22280
863.504	22580
863.636	22367
863.768	22382
863.9	22504
864.032	22360
864.164	22306
864.296	22500
864.428	22500
864.559	22402
864.691	22550
864.823	22440
864.954	22318
865.086	22375
865.217	22371
865.349	22234
865.48	22280
865.612	22379
865.743	22371
865.875	22314
866.006	22405
866.137	22379
866.269	22333
866.4	22318
866.531	22200
866.662	22196
866.793	22268
866.924	22386
867.055	22352
867.186	22390
867.317	22177
867.448	22112
867.579	22063
867.71	22128
867.841	22173
867.972	22325
868.103	22109
868.233	22223
868.364	22249
868.495	22428
868.625	22535
868.756	22675
868.886	22329
869.017	22421
869.147	22618
869.278	22698
869.408	22489
869.539	22538
869.669	22573
869.799	22462
869.929	22516
870.06	22630
870.19	22721
870.32	22736
870.45	22809
870.58	22896
870.71	22923
870.84	22938
870.97	22892
871.1	22850
871.23	23056
871.36	23109
871.489	22999
871.619	22953
871.749	23003
871.879	23071
872.008	23254
872.138	23151
872.267	23044
872.397	23010
872.526	22820
872.656	23010
872.785	22892
872.915	23090
873.044	23220
873.173	23048
873.303	23033
873.432	23299
873.561	23056
873.69	23109
873.819	23220
873.948	23174
874.077	23105
874.206	23155
874.335	23162
874.464	23235
874.593	23307
874.722	23383
874.851	23311
874.979	23395
875.108	23402
875.237	23250
875.365	23292
875.494	23216
875.623	23509
875.751	23398
875.88	23265
876.008	23417
876.136	23463
876.265	23649
876.393	23851
876.521	23805
876.65	23798
876.778	23657
876.906	23524
877.034	23627
877.162	23710
877.29	23581
877.418	23646
877.546	23710
877.674	23585
877.802	23520
877.93	23524
878.058	23535
878.185	23486
878.313	23604
878.441	23646
878.568	23459
878.696	23425
878.824	23642
878.951	23752
879.079	23889
879.206	23942
879.333	23767
879.461	23630
879.588	23699
879.715	23870
879.842	23920
879.97	23703
880.097	23455
880.224	23493
880.351	23615
880.478	23642
880.605	23512
880.732	23566
880.859	23638
880.986	23474
881.112	23493
881.239	23406
881.366	23212
881.493	23044
881.619	23193
881.746	22984
881.872	23102
881.999	23044
882.125	22869
882.252	23064
882.378	22923
882.505	23105
882.631	22927
882.757	22733
882.883	22782
883.01	22717
883.136	22607
883.262	22512
883.388	22603
883.514	22649
883.64	22641
883.766	22577
883.892	22519
884.018	22535
884.143	22645
884.269	22596
884.395	22451
884.52	22398
884.646	22379
884.772	22234
884.897	22147
885.023	22299
885.148	22295
885.274	22462
885.399	22322
885.524	22341
885.65	22356
885.775	22421
885.9	22287
886.025	22489
886.15	22344
886.275	22280
886.4	22230
886.525	22291
886.65	22204
886.775	22192
886.9	22390
887.025	22500
887.149	22291
887.274	22059
887.399	21960
887.523	22055
887.648	22006
887.773	21972
887.897	22124
888.021	22135
888.146	21983
888.27	22154
888.395	22188
888.519	22128
888.643	22246
888.767	22074
888.891	22017
889.015	21876
889.139	21945
889.263	21827
889.387	21930
889.511	22017
889.635	21964
889.759	21739
889.883	21819
890.006	21835
890.13	21949
890.254	21751
890.377	21797
890.501	21595
890.624	21561
890.748	21705
890.871	21557
890.995	21481
891.118	21336
891.241	21504
891.364	21275
891.488	21401
891.611	21534
891.734	21348
891.857	21416
891.98	21424
892.103	21351
892.226	21435
892.349	21298
892.471	21237
892.594	21310
892.717	21344
892.839	21233
892.962	21313
893.085	21302
893.207	21283
893.33	21142
893.452	21146
893.575	21378
893.697	21230
893.819	21511
893.941	21557
894.064	21443
894.186	21135
894.308	21195
894.43	21454
894.552	21416
894.674	21294
894.796	21123
894.918	21211
895.04	21275
895.161	21245
895.283	21294
895.405	21241
895.526	21336
895.648	21283
895.769	21344
895.891	21275
896.012	21321
896.134	21412
896.255	21272
896.376	21226
896.498	21439
896.619	21252
896.74	21283
896.861	21363
896.982	21606
897.103	21698
897.224	21523
897.345	21405
897.466	21443
897.587	21469
897.708	21625
897.828	21424
897.949	21454
898.07	21222
898.19	21214
898.311	21530
898.431	21412
898.552	21412
898.672	21583
898.792	21553
898.913	21466
899.033	21336
899.153	21230
899.273	21150
899.393	21256
899.513	21279
899.633	21329
899.753	21230
899.873	21146
899.993	21291
900.113	21184
900.232	21203
900.352	21203
900.472	21096
900.591	20902
900.711	20994
900.83	20883
900.95	21066
901.069	20925
901.189	20891
901.308	20613
901.427	20473
901.546	20457
901.665	20575
901.784	20492
901.904	20412
902.023	20324
902.141	20119
902.26	20077
902.379	20073
902.498	20024
902.617	20046
902.735	20065
902.854	19978
902.973	19890
903.091	19643
903.21	19624
903.328	19529
903.446	19540
903.565	19358
903.683	19438
903.801	19278
903.919	19537
904.038	19362
904.156	19160
904.274	19419
904.392	19099
904.51	19156
904.627	19255
904.745	19209
904.863	19232
904.981	19076
905.098	18966
905.216	18894
905.334	18886
905.451	18985
905.569	18852
905.686	18935
905.803	18916
905.921	18806
906.038	18848
906.155	18601
906.272	18677
906.389	18635
906.506	18467
906.623	18429
906.74	18391
906.857	18330
906.974	18353
907.091	18513
907.208	18585
907.324	18517
907.441	18357
907.557	18178
907.674	18174
907.79	18003
907.907	18129
908.023	18121
908.139	18129
908.256	18121
908.372	17996
908.488	17946
908.604	17897
908.72	17764
908.836	17897
908.952	17805
909.068	17946
909.184	17897
909.3	17859
909.415	17870
909.531	17752
909.647	17577
909.762	17482
909.878	17551
909.993	17543
910.108	17573
910.224	17554
910.339	17505
910.454	17436
910.57	17254
910.685	17258
910.8	17463
910.915	17512
911.03	17326
911.145	17284
911.259	17162
911.374	17117
911.489	17090
911.604	17003
911.718	16850
911.833	16923
911.947	16797
912.062	16759
912.176	16927
912.291	16896
912.405	16854
912.519	17121
912.633	17083
912.748	16949
912.862	16778
912.976	16702
913.09	16516
913.204	16630
913.318	16702
913.431	16721
913.545	16729
913.659	16774
913.772	16611
913.886	16527
914	16375
914.113	16523
914.226	16546
914.34	16462
914.453	16367
914.566	16508
914.68	16318
914.793	16318
914.906	16086
915.019	16059
915.132	16067
915.245	16082
915.358	16093
915.47	16048
915.583	15945
915.696	16048
915.809	16135
915.921	16086
916.034	15892
916.146	15854
916.259	15941
916.371	15975
916.483	15934
916.595	15854
916.708	15884
916.82	15781
916.932	15789
917.044	15724
917.156	15728
917.268	15599
917.38	15736
917.491	15648
917.603	15614
917.715	15671
917.826	15743
917.938	15553
918.049	15435
918.161	15492
918.272	15694
918.384	15671
918.495	15561
918.606	15397
918.717	15298
918.828	15408
918.939	15408
919.05	15279
919.161	15492
919.272	15176
919.383	15222
919.494	15393
919.604	15599
919.715	15405
919.826	15294
919.936	15351
920.047	15291
920.157	15428
920.267	15492
920.378	15260
920.488	15214
920.598	15477
920.708	15614
920.818	15458
920.928	15481
921.038	15641
921.148	15545
921.258	15329
921.368	15169
921.477	15020
921.587	14971
921.697	14975
921.806	14994
921.916	14792
922.025	14800
922.134	14674
922.244	14746
922.353	14743
922.462	14507
922.571	14495
922.68	14366
922.789	14408
922.898	14374
923.007	14191
923.116	14275
923.224	14271
923.333	14320
923.442	14237
923.55	14218
923.659	14199
923.767	14271
923.876	14126
923.984	14237
924.092	14046
924.201	14107
924.309	14062
924.417	14153
924.525	13898
924.633	14069
924.741	14773
924.849	13833
924.956	13883
925.064	13750
925.172	13677
925.279	13685
925.387	13746
925.494	13696
925.602	13833
925.709	13693
925.816	13636
925.924	13704
926.031	13757
926.138	13685
926.245	13769
926.352	13559
926.459	13655
926.566	13746
926.673	13594
926.779	13426
926.886	13487
926.993	13278
927.099	13304
927.206	13225
927.312	13217
927.419	13308
927.525	13285
927.631	13316
927.737	13171
927.843	13156
927.95	13015
928.056	12985
928.162	13012
928.267	13171
928.373	13685
928.479	13152
928.585	12932
928.69	12916
928.796	13118
928.901	12973
929.007	12772
929.112	12981
929.218	12867
929.323	12882
929.428	12764
929.533	12943
929.638	12772
929.743	12642
929.848	12798
929.953	12719
930.058	12593
930.163	12521
930.267	12479
930.372	12597
930.477	12357
930.581	12677
930.685	12467
930.79	12330
930.894	12330
930.998	12327
931.103	12456
931.207	12049
931.311	11973
931.415	11912
931.519	11741
931.623	11661
