Data from test_V78500241_2017.txt Node
Date: Fri Mar 25 15:55:46 CST 2022
User: usil
Spectrometer: V785-0024
Trigger mode: 0
Integration Time (sec): 4.000000E-1
Scans to average: 1
Nonlinearity correction enabled: false
Boxcar width: 0
Storing dark spectrum: false
XAxis mode: Wavelengths
Number of Pixels in Spectrum: 1024
>>>>>Begin Spectral Data<<<<<
801.071	28386
801.214	28382
801.356	28112
801.499	28097
801.641	27949
801.783	28048
801.926	27937
802.068	27949
802.211	27873
802.353	27850
802.496	27709
802.638	27599
802.78	27644
802.923	27583
803.065	27568
803.208	27614
803.35	27587
803.492	27709
803.635	27838
803.777	27827
803.919	27945
804.061	28181
804.204	27930
804.346	27918
804.488	27720
804.63	27800
804.773	27869
804.915	28032
805.057	27979
805.199	27964
805.341	27892
805.483	28044
805.626	28017
805.768	27884
805.91	27934
806.052	27979
806.194	28070
806.336	28196
806.478	28150
806.62	28029
806.762	28131
806.904	28325
807.046	28721
807.188	28363
807.33	28497
807.472	28398
807.614	28447
807.756	28565
807.898	28325
808.04	28234
808.182	28325
808.324	28169
808.465	28421
808.607	28512
808.749	28698
808.891	28763
809.033	28908
809.174	28923
809.316	28546
809.458	28683
809.6	28721
809.741	28767
809.883	28850
810.025	28911
810.166	28904
810.308	29014
810.45	28896
810.591	29029
810.733	28755
810.875	28603
811.016	28641
811.158	28645
811.299	28885
811.441	28915
811.582	28748
811.724	28565
811.865	28565
812.007	28641
812.148	28725
812.29	28649
812.431	28908
812.573	28877
812.714	29075
812.855	29102
812.997	29258
813.138	29512
813.279	29467
813.421	29208
813.562	29151
813.703	28991
813.845	28869
813.986	28573
814.127	28447
814.268	28272
814.41	28356
814.551	28371
814.692	28481
814.833	28337
814.974	28280
815.115	28405
815.256	28204
815.397	28375
815.539	28242
815.68	28257
815.821	28147
815.962	28215
816.103	28234
816.244	28124
816.385	28059
816.526	27979
816.666	27945
816.807	27656
816.948	27759
817.089	27842
817.23	27751
817.371	27854
817.512	27606
817.653	27644
817.793	27599
817.934	27660
818.075	27656
818.216	27705
818.356	27781
818.497	27515
818.638	27355
818.778	27416
818.919	27401
819.06	27424
819.2	27568
819.341	27603
819.481	27405
819.622	27774
819.762	28051
819.903	27941
820.043	27953
820.184	27835
820.324	27770
820.465	27911
820.605	27850
820.746	27762
820.886	27766
821.026	27911
821.167	27816
821.307	27800
821.447	27827
821.588	27686
821.728	27481
821.868	27427
822.008	27173
822.149	27226
822.289	27093
822.429	26994
822.569	26826
822.709	26834
822.849	26564
822.99	26701
823.13	26537
823.27	26568
823.41	26488
823.55	26457
823.69	26571
823.83	26503
823.97	26495
824.11	26362
824.25	26202
824.389	26434
824.529	26377
824.669	26267
824.809	26495
824.949	26393
825.089	26442
825.228	26355
825.368	26145
825.508	26267
825.648	26199
825.787	26187
825.927	26145
826.067	26157
826.206	26259
826.346	26248
826.485	26286
826.625	26244
826.765	26336
826.904	26298
827.044	25955
827.183	25978
827.323	26005
827.462	25894
827.601	25997
827.741	25898
827.88	25871
828.02	25738
828.159	25883
828.298	26043
828.437	26020
828.577	25928
828.716	26126
828.855	25788
828.994	25525
829.134	25662
829.273	25601
829.412	25605
829.551	25571
829.69	25548
829.829	25582
829.968	25540
830.107	25719
830.246	25529
830.385	25582
830.524	25460
830.663	25422
830.802	25422
830.941	25232
831.08	25141
831.219	25327
831.357	25251
831.496	25438
831.635	25228
831.774	25145
831.913	25133
832.051	25118
832.19	24951
832.329	24958
832.467	24886
832.606	24837
832.744	24863
832.883	24973
833.022	24779
833.16	24909
833.299	24875
833.437	24901
833.576	24981
833.714	25053
833.852	25012
833.991	24989
834.129	25019
834.267	24928
834.406	24909
834.544	24886
834.682	24901
834.821	24920
834.959	25019
835.097	24886
835.235	24886
835.373	24951
835.511	24863
835.65	24833
835.788	24787
835.926	24578
836.064	24661
836.202	24574
836.34	24646
836.478	24897
836.615	24665
836.753	24875
836.891	24867
837.029	24821
837.167	24772
837.305	24681
837.443	24578
837.58	24551
837.718	24601
837.856	24650
837.993	24620
838.131	24597
838.269	24456
838.406	24513
838.544	24441
838.681	24281
838.819	24254
838.956	24038
839.094	24057
839.231	24148
839.369	24224
839.506	24365
839.643	24372
839.781	24098
839.918	23988
840.055	24114
840.193	23893
840.33	23843
840.467	23961
840.604	24068
840.742	24266
840.879	23714
841.016	23805
841.153	23950
841.29	24087
841.427	24007
841.564	23992
841.701	23996
841.838	23931
841.975	23904
842.112	23851
842.249	23828
842.385	23752
842.522	23954
842.659	23843
842.796	23699
842.933	23714
843.069	23668
843.206	23623
843.343	23821
843.479	23733
843.616	23718
843.752	23551
843.889	23634
844.025	23611
844.162	23551
844.298	23531
844.435	23520
844.571	23452
844.708	23539
844.844	23676
844.98	23691
845.117	23623
845.253	23429
845.389	23353
845.525	23273
845.661	23364
845.798	23166
845.934	23231
846.07	23311
846.206	23223
846.342	23398
846.478	23208
846.614	22976
846.75	22866
846.886	22915
847.022	23098
847.158	22953
847.294	23044
847.429	22991
847.565	22873
847.701	23151
847.837	22641
847.972	22596
848.108	22889
848.244	22847
848.379	22546
848.515	22554
848.65	22637
848.786	22580
848.921	22611
849.057	22588
849.192	22523
849.328	22470
849.463	22599
849.598	22409
849.734	22481
849.869	22367
850.004	22367
850.14	22379
850.275	22147
850.41	22276
850.545	22215
850.68	22272
850.815	22382
850.95	22291
851.085	22580
851.22	22417
851.355	22318
851.49	22348
851.625	22272
851.76	22322
851.895	22371
852.03	22261
852.165	22329
852.299	22333
852.434	22390
852.569	22352
852.703	22386
852.838	22291
852.973	22299
853.107	22379
853.242	22226
853.376	22101
853.511	22059
853.645	21960
853.78	22265
853.914	22268
854.048	22029
854.183	22086
854.317	22379
854.451	22253
854.585	22150
854.72	22112
854.854	22147
854.988	21953
855.122	22139
855.256	21991
855.39	22181
855.524	22166
855.658	22173
855.792	22147
855.926	22105
856.06	22143
856.194	22238
856.327	22287
856.461	22166
856.595	22048
856.729	22067
856.862	22337
856.996	22154
857.13	22211
857.263	22303
857.397	22272
857.53	22192
857.664	22219
857.797	22223
857.931	22139
858.064	22147
858.197	22158
858.331	22116
858.464	22006
858.597	21918
858.731	22166
858.864	22116
858.997	22120
859.13	22078
859.263	22253
859.396	22325
859.529	22044
859.662	22112
859.795	22093
859.928	22147
860.061	22303
860.194	22360
860.327	22055
860.46	22207
860.592	22196
860.725	22421
860.858	22333
860.99	22211
861.123	22048
861.256	22048
861.388	22173
861.521	22889
861.653	21937
861.786	21895
861.918	21907
862.05	22074
862.183	22010
862.315	22044
862.447	22093
862.58	22040
862.712	21854
862.844	21842
862.976	21915
863.108	21968
863.24	22432
863.372	21690
863.504	21789
863.636	21838
863.768	21861
863.9	21941
864.032	21698
864.164	21774
864.296	21713
864.428	21884
864.559	21994
864.691	21892
864.823	21793
864.954	21945
865.086	21778
865.217	21770
865.349	21736
865.48	21762
865.612	21618
865.743	21850
865.875	21751
866.006	21747
866.137	21599
866.269	21614
866.4	21679
866.531	21671
866.662	21534
866.793	21717
866.924	21572
867.055	21690
867.186	21652
867.317	21625
867.448	21606
867.579	21587
867.71	21557
867.841	21576
867.972	21671
868.103	21751
868.233	21587
868.364	21652
868.495	21720
868.625	21751
868.756	22074
868.886	21831
869.017	21884
869.147	21975
869.278	22067
869.408	21895
869.539	21892
869.669	22017
869.799	21979
869.929	22017
870.06	21934
870.19	22150
870.32	22219
870.45	22242
870.58	22474
870.71	22447
870.84	22295
870.97	22284
871.1	22219
871.23	22497
871.36	22421
871.489	22382
871.619	22402
871.749	22500
871.879	22607
872.008	22668
872.138	22519
872.267	22413
872.397	22325
872.526	22226
872.656	22261
872.785	22318
872.915	22455
873.044	22603
873.173	22489
873.303	22462
873.432	22561
873.561	22615
873.69	22607
873.819	22546
873.948	22615
874.077	22531
874.206	22493
874.335	22584
874.464	22580
874.593	22656
874.722	22694
874.851	22877
874.979	22740
875.108	22820
875.237	22660
875.365	22542
875.494	22588
875.623	22630
875.751	22755
875.88	22694
876.008	22843
876.136	22949
876.265	23151
876.393	23254
876.521	23109
876.65	23102
876.778	23105
876.906	22976
877.034	22942
877.162	23067
877.29	23109
877.418	23185
877.546	23025
877.674	23086
877.802	23105
877.93	23079
878.058	23109
878.185	22858
878.313	23124
878.441	22957
878.568	22793
878.696	22987
878.824	23086
878.951	23155
879.079	23208
879.206	23383
879.333	23159
879.461	23105
879.588	23204
879.715	23353
879.842	23356
879.97	23200
880.097	22934
880.224	22847
880.351	22953
880.478	22923
880.605	22774
880.732	22938
880.859	23052
880.986	22797
881.112	22972
881.239	22698
881.366	22519
881.493	22550
881.619	22436
881.746	22546
881.872	22519
881.999	22314
882.125	22390
882.252	22535
882.378	22428
882.505	22561
882.631	22394
882.757	22234
882.883	22211
883.01	22223
883.136	22029
883.262	21979
883.388	22082
883.514	22177
883.64	22025
883.766	22036
883.892	21831
884.018	22044
884.143	22002
884.269	22101
884.395	21827
884.52	21880
884.646	21876
884.772	21614
884.897	21709
885.023	21854
885.148	21778
885.274	21766
885.399	21888
885.524	21736
885.65	21686
885.775	21797
885.9	21701
886.025	21831
886.15	21880
886.275	21603
886.4	21698
886.525	21789
886.65	21656
886.775	21629
886.9	21922
887.025	21873
887.149	21713
887.274	21523
887.399	21507
887.523	21545
887.648	21625
887.773	21408
887.897	21572
888.021	21686
888.146	21610
888.27	21641
888.395	21694
888.519	21523
888.643	21553
888.767	21466
888.891	21306
889.015	21378
889.139	21469
889.263	21355
889.387	21344
889.511	21656
889.635	21530
889.759	21363
889.883	21313
890.006	21298
890.13	21401
890.254	21184
890.377	21230
890.501	21039
890.624	21001
890.748	21161
890.871	20937
890.995	20952
891.118	20823
891.241	20902
891.364	20937
891.488	20811
891.611	20868
891.734	20864
891.857	20849
891.98	20883
892.103	20918
892.226	20864
892.349	20758
892.471	20655
892.594	20800
892.717	21013
892.839	20743
892.962	20720
893.085	20876
893.207	20754
893.33	20629
893.452	20731
893.575	20804
893.697	20663
893.819	20868
893.941	20830
894.064	20956
894.186	20750
894.308	20758
894.43	20838
894.552	20948
894.674	20849
894.796	20762
894.918	20712
895.04	20727
895.161	20872
895.283	20853
895.405	20731
895.526	20781
895.648	20625
895.769	20708
895.891	20769
896.012	20792
896.134	20826
896.255	20899
896.376	20769
896.498	20697
896.619	20663
896.74	20629
896.861	20899
896.982	21024
897.103	21199
897.224	21074
897.345	20941
897.466	20819
897.587	20956
897.708	21039
897.828	21020
897.949	20887
898.07	20746
898.19	20876
898.311	21024
898.431	20891
898.552	20906
898.672	21058
898.792	21154
898.913	20975
899.033	20807
899.153	20872
899.273	20590
899.393	20781
899.513	20727
899.633	20674
899.753	20777
899.873	20670
899.993	20815
900.113	20655
900.232	20705
900.352	20571
900.472	20568
900.591	20579
900.711	20507
900.83	20423
900.95	20575
901.069	20606
901.189	20332
901.308	20134
901.427	20065
901.546	20187
901.665	20107
901.784	20043
901.904	19928
902.023	19921
902.141	19738
902.26	19677
902.379	19628
902.498	19594
902.617	19457
902.735	19609
902.854	19525
902.973	19449
903.091	19285
903.21	19209
903.328	19129
903.446	19118
903.565	19084
903.683	19084
903.801	18890
903.919	19004
904.038	19057
904.156	18875
904.274	18913
904.392	18783
904.51	18764
904.627	18852
904.745	18764
904.863	18840
904.981	18532
905.098	18464
905.216	18433
905.334	18528
905.451	18456
905.569	18490
905.686	18403
905.803	18395
905.921	18174
906.038	18353
906.155	18353
906.272	18190
906.389	18087
906.506	18019
906.623	18011
906.74	18041
906.857	17821
906.974	17897
907.091	18041
907.208	18091
907.324	17973
907.441	17942
907.557	17714
907.674	17649
907.79	17680
907.907	17497
908.023	17661
908.139	17718
908.256	17619
908.372	17551
908.488	17619
908.604	17452
908.72	17356
908.836	17337
908.952	17429
909.068	17398
909.184	17516
909.3	17349
909.415	17330
909.531	17436
909.647	17147
909.762	17048
909.878	17083
909.993	17109
910.108	17052
910.224	16995
910.339	17071
910.454	16908
910.57	16835
910.685	16786
910.8	17083
910.915	17147
911.03	16850
911.145	16748
911.259	16698
911.374	16801
911.489	16569
911.604	16542
911.718	16405
911.833	16360
911.947	16257
912.062	16219
912.176	16360
912.291	16462
912.405	16485
912.519	16653
912.633	16611
912.748	16394
912.862	16394
912.976	16322
913.09	16166
913.204	16150
913.318	16234
913.431	16226
913.545	16234
913.659	16436
913.772	16215
913.886	16063
914	16017
914.113	16082
914.226	16234
914.34	16040
914.453	15911
914.566	16055
914.68	15983
914.793	15987
914.906	15694
915.019	15610
915.132	15637
915.245	15614
915.358	15648
915.47	15500
915.583	15603
915.696	15576
915.809	15797
915.921	15778
916.034	15618
916.146	15500
916.259	15401
916.371	15545
916.483	15485
916.595	15447
916.708	15500
916.82	15431
916.932	15382
917.044	15462
917.156	15488
917.268	15222
917.38	15329
917.491	15272
917.603	15237
917.715	15287
917.826	15401
917.938	15249
918.049	15108
918.161	15218
918.272	15230
918.384	15264
918.495	15211
918.606	15146
918.717	14960
918.828	15074
918.939	15085
919.05	14910
919.161	14925
919.272	14807
919.383	14842
919.494	15051
919.604	15176
919.715	14998
919.826	14849
919.936	14967
920.047	15138
920.157	14979
920.267	15131
920.378	15005
920.488	14998
920.598	15131
920.708	15237
920.818	15039
920.928	15093
921.038	15294
921.148	15169
921.258	14906
921.368	14849
921.477	14682
921.587	14610
921.697	14568
921.806	14644
921.916	14556
922.025	14404
922.134	14240
922.244	14286
922.353	14339
922.462	14195
922.571	14123
922.68	13989
922.789	13978
922.898	13974
923.007	13898
923.116	13955
923.224	13909
923.333	13928
923.442	13826
923.55	13841
923.659	13799
923.767	13868
923.876	13742
923.984	13833
924.092	13708
924.201	13689
924.309	13731
924.417	13666
924.525	13651
924.633	13696
924.741	14389
924.849	13480
924.956	13556
925.064	13441
925.172	13209
925.279	13316
925.387	13388
925.494	13316
925.602	13464
925.709	13422
925.816	13297
925.924	13274
926.031	13449
926.138	13335
926.245	13339
926.352	13263
926.459	13289
926.566	13339
926.673	13141
926.779	13088
926.886	13099
926.993	12890
927.099	13031
927.206	12844
927.312	12859
927.419	12951
927.525	12894
927.631	12878
927.737	12875
927.843	12734
927.95	12620
928.056	12764
928.162	12760
928.267	12798
928.373	13369
928.479	12810
928.585	12517
928.69	12722
928.796	12646
928.901	12608
929.007	12467
929.112	12544
929.218	12517
929.323	12448
929.428	12369
929.533	12506
929.638	12369
929.743	12380
929.848	12517
929.953	12262
930.058	12232
930.163	12133
930.267	12186
930.372	12239
930.477	12129
930.581	12483
930.685	12144
930.79	12026
930.894	12102
930.998	11912
931.103	12076
931.207	11767
931.311	11668
931.415	11585
931.519	11345
931.623	11261
