Data from test_V78500241_714.txt Node
Date: Fri Mar 25 15:46:44 CST 2022
User: usil
Spectrometer: V785-0024
Trigger mode: 0
Integration Time (sec): 4.000000E-1
Scans to average: 1
Nonlinearity correction enabled: false
Boxcar width: 0
Storing dark spectrum: false
XAxis mode: Wavelengths
Number of Pixels in Spectrum: 1024
>>>>>Begin Spectral Data<<<<<
801.071	27591
801.214	27599
801.356	27488
801.499	27313
801.641	27188
801.783	27256
801.926	27188
802.068	27245
802.211	27157
802.353	27066
802.496	26857
802.638	26765
802.78	26826
802.923	26785
803.065	26826
803.208	26781
803.35	26746
803.492	26883
803.635	27020
803.777	26910
803.919	26982
804.061	27268
804.204	27096
804.346	26937
804.488	26986
804.63	27051
804.773	26902
804.915	26986
805.057	27146
805.199	26906
805.341	26998
805.483	27020
805.626	27135
805.768	26971
805.91	27066
806.052	27062
806.194	26918
806.336	27420
806.478	27199
806.62	27173
806.762	27127
806.904	27401
807.046	27625
807.188	27641
807.33	27538
807.472	27606
807.614	27443
807.756	27576
807.898	27408
808.04	27279
808.182	27408
808.324	27348
808.465	27370
808.607	27580
808.749	27751
808.891	27819
809.033	27960
809.174	27895
809.316	27743
809.458	27766
809.6	27705
809.741	27838
809.883	27842
810.025	28021
810.166	28090
810.308	28029
810.45	27983
810.591	27998
810.733	27736
810.875	27823
811.016	27576
811.158	27667
811.299	27854
811.441	28010
811.582	27911
811.724	27739
811.865	27778
812.007	27823
812.148	27770
812.29	27812
812.431	27903
812.573	28025
812.714	28169
812.855	28265
812.997	28337
813.138	28409
813.279	28329
813.421	28280
813.562	28181
813.703	28032
813.845	27899
813.986	27663
814.127	27492
814.268	27439
814.41	27477
814.551	27523
814.692	27549
814.833	27454
814.974	27420
815.115	27507
815.256	27294
815.397	27317
815.539	27214
815.68	27093
815.821	27150
815.962	27332
816.103	27173
816.244	27142
816.385	27123
816.526	26906
816.666	26918
816.807	26667
816.948	26746
817.089	26750
817.23	26815
817.371	26754
817.512	26708
817.653	26689
817.793	26708
817.934	26663
818.075	26693
818.216	26868
818.356	26727
818.497	26659
818.638	26511
818.778	26461
818.919	26560
819.06	26530
819.2	26526
819.341	26861
819.481	26796
819.622	26899
819.762	27058
819.903	26910
820.043	27013
820.184	26735
820.324	26762
820.465	26857
820.605	26876
820.746	26876
820.886	26720
821.026	26868
821.167	26781
821.307	26906
821.447	26765
821.588	26750
821.728	26484
821.868	26374
822.008	26305
822.149	26100
822.289	26100
822.429	25932
822.569	25906
822.709	25807
822.849	25689
822.99	25689
823.13	25826
823.27	25658
823.41	25510
823.55	25483
823.69	25590
823.83	25483
823.97	25422
824.11	25438
824.25	25263
824.389	25278
824.529	25419
824.669	25289
824.809	25426
824.949	25365
825.089	25499
825.228	25320
825.368	25114
825.508	25213
825.648	25217
825.787	25171
825.927	25278
826.067	25213
826.206	25259
826.346	25274
826.485	25240
826.625	25240
826.765	25255
826.904	25247
827.044	25004
827.183	25061
827.323	24981
827.462	25019
827.601	24856
827.741	24913
827.88	24901
828.02	24722
828.159	24848
828.298	24992
828.437	24901
828.577	24890
828.716	25023
828.855	24779
828.994	24650
829.134	24677
829.273	24715
829.412	24661
829.551	24696
829.69	24658
829.829	24696
829.968	24650
830.107	24681
830.246	24532
830.385	24597
830.524	24734
830.663	24350
830.802	24338
830.941	24258
831.08	24224
831.219	24258
831.357	24327
831.496	24403
831.635	24182
831.774	24007
831.913	24015
832.051	24015
832.19	24018
832.329	24068
832.467	23996
832.606	23760
832.744	23973
832.883	23923
833.022	23889
833.16	23840
833.299	23931
833.437	23908
833.576	23969
833.714	23786
833.852	23859
833.991	24076
834.129	24076
834.267	24140
834.406	23958
834.544	24045
834.682	23961
834.821	23828
834.959	24114
835.097	23824
835.235	23980
835.373	24057
835.511	23904
835.65	23836
835.788	23737
835.926	23630
836.064	23665
836.202	23668
836.34	23859
836.478	23942
836.615	23699
836.753	23748
836.891	23965
837.029	23824
837.167	23752
837.305	23718
837.443	23699
837.58	23573
837.718	23714
837.856	23729
837.993	23528
838.131	23570
838.269	23463
838.406	23558
838.544	23417
838.681	23151
838.819	23345
838.956	22987
839.094	23124
839.231	23060
839.369	23254
839.506	23467
839.643	23269
839.781	23105
839.918	23003
840.055	23200
840.193	23094
840.33	22953
840.467	23060
840.604	23090
840.742	23318
840.879	22953
841.016	23037
841.153	22820
841.29	23033
841.427	23029
841.564	23098
841.701	23014
841.838	23037
841.975	22850
842.112	22908
842.249	22885
842.385	22809
842.522	22896
842.659	22782
842.796	22786
842.933	22850
843.069	22843
843.206	22771
843.343	22915
843.479	22698
843.616	22797
843.752	22527
843.889	22573
844.025	22675
844.162	22413
844.298	22641
844.435	22596
844.571	22523
844.708	22478
844.844	22706
844.98	22607
845.117	22626
845.253	22500
845.389	22398
845.525	22519
845.661	22402
845.798	22295
845.934	22360
846.07	22287
846.206	22481
846.342	22493
846.478	22223
846.614	22021
846.75	21960
846.886	21998
847.022	22086
847.158	22059
847.294	21941
847.429	22166
847.565	21994
847.701	22265
847.837	21682
847.972	21667
848.108	21793
848.244	21892
848.379	21698
848.515	21717
848.65	21572
848.786	21603
848.921	21587
849.057	21675
849.192	21675
849.328	21583
849.463	21648
849.598	21591
849.734	21477
849.869	21504
850.004	21370
850.14	21287
850.275	21370
850.41	21249
850.545	21382
850.68	21313
850.815	21367
850.95	21348
851.085	21492
851.22	21473
851.355	21507
851.49	21393
851.625	21412
851.76	21298
851.895	21325
852.03	21252
852.165	21378
852.299	21473
852.434	21439
852.569	21393
852.703	21344
852.838	21420
852.973	21511
853.107	21492
853.242	21431
853.376	21298
853.511	21123
853.645	21195
853.78	21294
853.914	21192
854.048	21192
854.183	21192
854.317	21184
854.451	21355
854.585	21287
854.72	21017
854.854	21321
854.988	21116
855.122	21192
855.256	21085
855.39	21093
855.524	21150
855.658	21260
855.792	21142
855.926	21203
856.06	21279
856.194	21241
856.327	21230
856.461	21146
856.595	21173
856.729	21241
856.862	21367
856.996	21279
857.13	21306
857.263	21260
857.397	21329
857.53	21195
857.664	21294
857.797	21157
857.931	21408
858.064	21192
858.197	21336
858.331	21192
858.464	21298
858.597	20990
858.731	21230
858.864	21214
858.997	21127
859.13	21150
859.263	21287
859.396	21272
859.529	21256
859.662	21108
859.795	21036
859.928	21119
860.061	21382
860.194	21530
860.327	21275
860.46	21272
860.592	21294
860.725	21291
860.858	21272
860.99	21195
861.123	21173
861.256	21051
861.388	21112
861.521	21797
861.653	21150
861.786	21081
861.918	20994
862.05	21009
862.183	21047
862.315	21154
862.447	21104
862.58	21039
862.712	20960
862.844	20880
862.976	20994
863.108	20891
863.24	21428
863.372	20750
863.504	20914
863.636	20834
863.768	20925
863.9	20918
864.032	20857
864.164	20804
864.296	21001
864.428	21055
864.559	20975
864.691	21058
864.823	20975
864.954	20891
865.086	20910
865.217	20872
865.349	20712
865.48	20781
865.612	20762
865.743	20868
865.875	20765
866.006	20785
866.137	20765
866.269	20804
866.4	20769
866.531	20743
866.662	20682
866.793	20872
866.924	20746
867.055	20670
867.186	20918
867.317	20735
867.448	20678
867.579	20735
867.71	20617
867.841	20686
867.972	20727
868.103	20686
868.233	20762
868.364	20644
868.495	20887
868.625	20963
868.756	21180
868.886	20941
869.017	21009
869.147	21005
869.278	21020
869.408	20937
869.539	20944
869.669	21074
869.799	21005
869.929	21085
870.06	21135
870.19	21192
870.32	21195
870.45	21348
870.58	21355
870.71	21382
870.84	21477
870.97	21401
871.1	21317
871.23	21549
871.36	21709
871.489	21450
871.619	21561
871.749	21538
871.879	21728
872.008	21675
872.138	21603
872.267	21515
872.397	21420
872.526	21401
872.656	21214
872.785	21526
872.915	21504
873.044	21663
873.173	21561
873.303	21542
873.432	21739
873.561	21819
873.69	21583
873.819	21523
873.948	21545
874.077	21675
874.206	21682
874.335	21595
874.464	21762
874.593	21823
874.722	21728
874.851	21968
874.979	21880
875.108	21880
875.237	21781
875.365	21789
875.494	21663
875.623	21918
875.751	21797
875.88	21949
876.008	21998
876.136	22044
876.265	22295
876.393	22413
876.521	22272
876.65	22303
876.778	22322
876.906	22150
877.034	22166
877.162	22135
877.29	22154
877.418	22211
877.546	22363
877.674	22215
877.802	22207
877.93	22188
878.058	22093
878.185	22017
878.313	22086
878.441	22097
878.568	21983
878.696	22120
878.824	22242
878.951	22230
879.079	22379
879.206	22409
879.333	22375
879.461	22135
879.588	22188
879.715	22394
879.842	22565
879.97	22310
880.097	22025
880.224	22032
880.351	21998
880.478	21953
880.605	21987
880.732	22048
880.859	22169
880.986	22147
881.112	22048
881.239	21823
881.366	21770
881.493	21534
881.619	21580
881.746	21504
881.872	21679
881.999	21667
882.125	21477
882.252	21705
882.378	21603
882.505	21679
882.631	21389
882.757	21363
882.883	21329
883.01	21264
883.136	21123
883.262	21165
883.388	21104
883.514	21348
883.64	21378
883.766	21184
883.892	21039
884.018	21093
884.143	21184
884.269	21306
884.395	21005
884.52	20967
884.646	20982
884.772	21001
884.897	20720
885.023	20956
885.148	21085
885.274	21058
885.399	21032
885.524	20899
885.65	20937
885.775	20876
885.9	20895
886.025	21085
886.15	20929
886.275	20956
886.4	20891
886.525	20921
886.65	20826
886.775	20762
886.9	21062
887.025	21070
887.149	20910
887.274	20697
887.399	20739
887.523	20648
887.648	20655
887.773	20514
887.897	20815
888.021	20674
888.146	20560
888.27	20750
888.395	20754
888.519	20792
888.643	20526
888.767	20739
888.891	20663
889.015	20480
889.139	20590
889.263	20556
889.387	20617
889.511	20621
889.635	20705
889.759	20503
889.883	20511
890.006	20404
890.13	20556
890.254	20389
890.377	20438
890.501	20275
890.624	20172
890.748	20206
890.871	20199
890.995	20058
891.118	20050
891.241	20039
891.364	20046
891.488	20153
891.611	20069
891.734	20111
891.857	20138
891.98	20122
892.103	20134
892.226	20107
892.349	19970
892.471	19940
892.594	19955
892.717	20043
892.839	19921
892.962	19959
893.085	20058
893.207	19887
893.33	19845
893.452	19906
893.575	19974
893.697	19898
893.819	20142
893.941	20157
894.064	20130
894.186	19871
894.308	19795
894.43	20081
894.552	20065
894.674	20054
894.796	19898
894.918	19963
895.04	19871
895.161	20016
895.283	20111
895.405	19947
895.526	20039
895.648	19830
895.769	20058
895.891	19993
896.012	19951
896.134	20012
896.255	20027
896.376	19902
896.498	20077
896.619	19925
896.74	19898
896.861	20100
896.982	20317
897.103	20476
897.224	20176
897.345	20100
897.466	20199
897.587	20180
897.708	20271
897.828	20218
897.949	20115
898.07	20122
898.19	20138
898.311	20282
898.431	20122
898.552	20244
898.672	20347
898.792	20324
898.913	20229
899.033	20050
899.153	20001
899.273	19830
899.393	19936
899.513	19986
899.633	19947
899.753	19986
899.873	19921
899.993	19879
900.113	19955
900.232	20111
900.352	19875
900.472	19674
900.591	19715
900.711	19712
900.83	19609
900.95	19864
901.069	19803
901.189	19567
901.308	19350
901.427	19362
901.546	19301
901.665	19293
901.784	19346
901.904	19202
902.023	19114
902.141	18871
902.26	18719
902.379	18901
902.498	18848
902.617	18798
902.735	18856
902.854	18890
902.973	18802
903.091	18483
903.21	18566
903.328	18483
903.446	18540
903.565	18311
903.683	18346
903.801	18190
903.919	18353
904.038	18277
904.156	18190
904.274	18117
904.392	18060
904.51	18060
904.627	18060
904.745	18144
904.863	18083
904.981	17889
905.098	17805
905.216	17729
905.334	17722
905.451	17687
905.569	17680
905.686	17783
905.803	17703
905.921	17570
906.038	17646
906.155	17547
906.272	17520
906.389	17547
906.506	17261
906.623	17379
906.74	17277
906.857	17239
906.974	17220
907.091	17337
907.208	17288
907.324	17334
907.441	17269
907.557	17143
907.674	17056
907.79	16881
907.907	17098
908.023	16965
908.139	16949
908.256	16911
908.372	16820
908.488	16873
908.604	16774
908.72	16698
908.836	16649
908.952	16672
909.068	16683
909.184	16828
909.3	16702
909.415	16729
909.531	16771
909.647	16558
909.762	16474
909.878	16466
909.993	16432
910.108	16443
910.224	16348
910.339	16493
910.454	16306
910.57	16261
910.685	16147
910.8	16375
910.915	16215
911.03	16253
911.145	16147
911.259	16029
911.374	15983
911.489	15960
911.604	15922
911.718	15827
911.833	15584
911.947	15671
912.062	15671
912.176	15766
912.291	15747
912.405	15717
912.519	16036
912.633	15934
912.748	15827
912.862	15686
912.976	15625
913.09	15492
913.204	15466
913.318	15599
913.431	15667
913.545	15625
913.659	15724
913.772	15633
913.886	15481
914	15416
914.113	15408
914.226	15549
914.34	15458
914.453	15249
914.566	15336
914.68	15298
914.793	15252
914.906	15043
915.019	15100
915.132	14956
915.245	14994
915.358	14986
915.47	15001
915.583	14963
915.696	15093
915.809	15222
915.921	15203
916.034	15032
916.146	14925
916.259	14880
916.371	14933
916.483	14887
916.595	14834
916.708	14785
916.82	14792
916.932	14861
917.044	14819
917.156	14891
917.268	14606
917.38	14758
917.491	14594
917.603	14712
917.715	14670
917.826	14819
917.938	14583
918.049	14415
918.161	14594
918.272	14731
918.384	14765
918.495	14613
918.606	14419
918.717	14488
918.828	14511
918.939	14461
919.05	14343
919.161	14400
919.272	14187
919.383	14248
919.494	14431
919.604	14686
919.715	14434
919.826	14336
919.936	14328
920.047	14396
920.157	14419
920.267	14530
920.378	14473
920.488	14358
920.598	14507
920.708	14617
920.818	14606
920.928	14571
921.038	14708
921.148	14533
921.258	14309
921.368	14240
921.477	14103
921.587	14195
921.697	13925
921.806	14187
921.916	14050
922.025	13795
922.134	13761
922.244	13719
922.353	13795
922.462	13715
922.571	13559
922.68	13586
922.789	13388
922.898	13537
923.007	13289
923.116	13434
923.224	13453
923.333	13373
923.442	13327
923.55	13225
923.659	13251
923.767	13301
923.876	13255
923.984	13301
924.092	13145
924.201	13095
924.309	13175
924.417	13095
924.525	13149
924.633	13095
924.741	14096
924.849	12913
924.956	13012
925.064	12878
925.172	12791
925.279	12783
925.387	12905
925.494	12871
925.602	13004
925.709	12867
925.816	12863
925.924	12795
926.031	12951
926.138	12749
926.245	12783
926.352	12635
926.459	12764
926.566	12791
926.673	12734
926.779	12593
926.886	12620
926.993	12467
927.099	12506
927.206	12456
927.312	12292
927.419	12403
927.525	12353
927.631	12433
927.737	12327
927.843	12270
927.95	12171
928.056	12243
928.162	12315
928.267	12323
928.373	12886
928.479	12285
928.585	12045
928.69	12197
928.796	12346
928.901	12155
929.007	11969
929.112	12015
929.218	11992
929.323	12034
929.428	12026
929.533	12144
929.638	11847
929.743	11946
929.848	12015
929.953	11988
930.058	11764
930.163	11661
930.267	11718
930.372	11802
930.477	11672
930.581	11893
930.685	11638
930.79	11493
930.894	11566
930.998	11558
931.103	11718
931.207	11376
931.311	11181
931.415	11136
931.519	10942
931.623	10984
