Data from test_V78500241_3286.txt Node
Date: Fri Mar 25 16:04:33 CST 2022
User: usil
Spectrometer: V785-0024
Trigger mode: 0
Integration Time (sec): 4.000000E-1
Scans to average: 1
Nonlinearity correction enabled: false
Boxcar width: 0
Storing dark spectrum: false
XAxis mode: Wavelengths
Number of Pixels in Spectrum: 1024
>>>>>Begin Spectral Data<<<<<
801.071	28694
801.214	28580
801.356	28462
801.499	28348
801.641	28310
801.783	28318
801.926	28280
802.068	28162
802.211	28188
802.353	28143
802.496	27960
802.638	27994
802.78	27880
802.923	27770
803.065	27895
803.208	27926
803.35	27964
803.492	28063
803.635	28147
803.777	28074
803.919	28074
804.061	28481
804.204	28166
804.346	28109
804.488	27983
804.63	28226
804.773	28101
804.915	28143
805.057	28413
805.199	28150
805.341	28303
805.483	28405
805.626	28352
805.768	28120
805.91	28287
806.052	28428
806.194	28310
806.336	28535
806.478	28314
806.62	28428
806.762	28401
806.904	28546
807.046	28805
807.188	28763
807.33	28801
807.472	28733
807.614	28694
807.756	28752
807.898	28668
808.04	28710
808.182	28675
808.324	28569
808.465	28752
808.607	28908
808.749	29048
808.891	29242
809.033	29197
809.174	29048
809.316	29181
809.458	28972
809.6	29083
809.741	29052
809.883	29204
810.025	29330
810.166	29353
810.308	29261
810.45	29368
810.591	29311
810.733	29029
810.875	29064
811.016	29033
811.158	28892
811.299	29220
811.441	29261
811.582	29109
811.724	29143
811.865	29010
812.007	28987
812.148	29212
812.29	29113
812.431	29288
812.573	29398
812.714	29520
812.855	29581
812.997	29547
813.138	29745
813.279	29547
813.421	29672
813.562	29710
813.703	29280
813.845	29311
813.986	29086
814.127	28904
814.268	28702
814.41	28862
814.551	28725
814.692	28744
814.833	28664
814.974	28675
815.115	28771
815.256	28527
815.397	28740
815.539	28611
815.68	28630
815.821	28531
815.962	28516
816.103	28432
816.244	28352
816.385	28474
816.526	28344
816.666	28177
816.807	28078
816.948	28109
817.089	28173
817.23	28109
817.371	28158
817.512	28036
817.653	28029
817.793	28112
817.934	28059
818.075	28150
818.216	28044
818.356	27918
818.497	27873
818.638	27850
818.778	27800
818.919	27861
819.06	27835
819.2	28067
819.341	28051
819.481	28093
819.622	28177
819.762	28516
819.903	28219
820.043	28303
820.184	28135
820.324	28177
820.465	28219
820.605	28223
820.746	28143
820.886	28051
821.026	28097
821.167	28139
821.307	28109
821.447	28124
821.588	28025
821.728	27831
821.868	27755
822.008	27557
822.149	27462
822.289	27568
822.429	27245
822.569	27264
822.709	27264
822.849	27055
822.99	26914
823.13	27001
823.27	26960
823.41	26883
823.55	26872
823.69	26857
823.83	26815
823.97	26773
824.11	26746
824.25	26739
824.389	26712
824.529	26845
824.669	26678
824.809	26857
824.949	26918
825.089	26807
825.228	26769
825.368	26457
825.508	26537
825.648	26613
825.787	26560
825.927	26606
826.067	26530
826.206	26686
826.346	26598
826.485	26545
826.625	26564
826.765	26811
826.904	26629
827.044	26404
827.183	26370
827.323	26389
827.462	26492
827.601	26320
827.741	26343
827.88	26332
828.02	26294
828.159	26290
828.298	26374
828.437	26374
828.577	26396
828.716	26256
828.855	26240
828.994	26062
829.134	25963
829.273	26100
829.412	25944
829.551	25982
829.69	25974
829.829	25989
829.968	26164
830.107	26054
830.246	26039
830.385	25875
830.524	25966
830.663	25940
830.802	25772
830.941	25563
831.08	25533
831.219	25700
831.357	25696
831.496	25879
831.635	25689
831.774	25502
831.913	25521
832.051	25365
832.19	25426
832.329	25552
832.467	25445
832.606	25335
832.744	25122
832.883	25320
833.022	25160
833.16	25293
833.299	25358
833.437	25403
833.576	25354
833.714	25441
833.852	25392
833.991	25304
834.129	25457
834.267	25563
834.406	25339
834.544	25434
834.682	25365
834.821	25308
834.959	25468
835.097	25293
835.235	25377
835.373	25316
835.511	25240
835.65	25228
835.788	25263
835.926	24962
836.064	25004
836.202	24962
836.34	25088
836.478	25266
836.615	25198
836.753	25293
836.891	25308
837.029	25190
837.167	25247
837.305	25080
837.443	24954
837.58	25072
837.718	25061
837.856	25053
837.993	25027
838.131	25023
838.269	24897
838.406	25023
838.544	24871
838.681	24547
838.819	24700
838.956	24525
839.094	24483
839.231	24502
839.369	24760
839.506	24825
839.643	24779
839.781	24395
839.918	24369
840.055	24448
840.193	24559
840.33	24441
840.467	24441
840.604	24418
840.742	24627
840.879	24281
841.016	24224
841.153	24247
841.29	24563
841.427	24479
841.564	24391
841.701	24308
841.838	24338
841.975	24304
842.112	24228
842.249	24220
842.385	24079
842.522	24346
842.659	24110
842.796	24144
842.933	24117
843.069	24076
843.206	23931
843.343	24254
843.479	24159
843.616	24045
843.752	23847
843.889	23866
844.025	23965
844.162	23843
844.298	24072
844.435	23855
844.571	23832
844.708	23870
844.844	24045
844.98	24057
845.117	23889
845.253	23859
845.389	23786
845.525	23767
845.661	23707
845.798	23733
845.934	23752
846.07	23634
846.206	23665
846.342	23695
846.478	23687
846.614	23467
846.75	23250
846.886	23387
847.022	23387
847.158	23379
847.294	23334
847.429	23242
847.565	23402
847.701	23562
847.837	22991
847.972	23086
848.108	23246
848.244	23143
848.379	23102
848.515	22900
848.65	22892
848.786	22885
848.921	23037
849.057	22938
849.192	22980
849.328	22965
849.463	22915
849.598	22999
849.734	22831
849.869	22820
850.004	22702
850.14	22755
850.275	22740
850.41	22637
850.545	22675
850.68	22580
850.815	22607
850.95	22733
851.085	23018
851.22	22793
851.355	22687
851.49	22729
851.625	22713
851.76	22573
851.895	22641
852.03	22554
852.165	22691
852.299	22736
852.434	22793
852.569	22782
852.703	22774
852.838	22748
852.973	22767
853.107	22622
853.242	22561
853.376	22459
853.511	22322
853.645	22478
853.78	22523
853.914	22630
854.048	22405
854.183	22527
854.317	22523
854.451	22752
854.585	22535
854.72	22675
854.854	22550
854.988	22402
855.122	22611
855.256	22356
855.39	22481
855.524	22626
855.658	22664
855.792	22523
855.926	22588
856.06	22428
856.194	22573
856.327	22508
856.461	22599
856.595	22432
856.729	22367
856.862	22698
856.996	22664
857.13	22622
857.263	22733
857.397	22588
857.53	22489
857.664	22550
857.797	22535
857.931	22554
858.064	22615
858.197	22573
858.331	22478
858.464	22649
858.597	22417
858.731	22561
858.864	22546
858.997	22535
859.13	22535
859.263	22424
859.396	22607
859.529	22466
859.662	22493
859.795	22459
859.928	22459
860.061	22672
860.194	22626
860.327	22542
860.46	22592
860.592	22740
860.725	22653
860.858	22729
860.99	22462
861.123	22554
861.256	22462
861.388	22634
861.521	23353
861.653	22394
861.786	22234
861.918	22382
862.05	22341
862.183	22432
862.315	22356
862.447	22546
862.58	22516
862.712	22284
862.844	22192
862.976	22356
863.108	22291
863.24	22615
863.372	22188
863.504	22318
863.636	22219
863.768	22303
863.9	22173
864.032	22185
864.164	22124
864.296	22276
864.428	22367
864.559	22310
864.691	22360
864.823	22219
864.954	22284
865.086	22200
865.217	22154
865.349	22154
865.48	22112
865.612	22143
865.743	22238
865.875	22226
866.006	21979
866.137	22143
866.269	22093
866.4	22162
866.531	22048
866.662	22006
866.793	21979
866.924	22070
867.055	22135
867.186	22025
867.317	22040
867.448	22017
867.579	22032
867.71	22063
867.841	22017
867.972	22025
868.103	22105
868.233	22166
868.364	22036
868.495	22131
868.625	22299
868.756	22390
868.886	22093
869.017	22249
869.147	22398
869.278	22436
869.408	22318
869.539	22226
869.669	22470
869.799	22352
869.929	22398
870.06	22356
870.19	22672
870.32	22599
870.45	22687
870.58	22744
870.71	22778
870.84	22706
870.97	22675
871.1	22793
871.23	22873
871.36	22759
871.489	22839
871.619	22923
871.749	22862
871.879	22972
872.008	23064
872.138	22896
872.267	22957
872.397	22763
872.526	22752
872.656	22790
872.785	22717
872.915	22972
873.044	22934
873.173	22930
873.303	22980
873.432	23105
873.561	22968
873.69	22896
873.819	22892
873.948	22976
874.077	22946
874.206	22976
874.335	22938
874.464	22980
874.593	23143
874.722	23071
874.851	23140
874.979	23216
875.108	23174
875.237	23067
875.365	23037
875.494	23022
875.623	23223
875.751	23132
875.88	23136
876.008	23269
876.136	23376
876.265	23459
876.393	23608
876.521	23573
876.65	23611
876.778	23524
876.906	23467
877.034	23452
877.162	23531
877.29	23391
877.418	23558
877.546	23425
877.674	23360
877.802	23490
877.93	23524
878.058	23417
878.185	23368
878.313	23528
878.441	23509
878.568	23296
878.696	23379
878.824	23463
878.951	23436
879.079	23554
879.206	23779
879.333	23745
879.461	23520
879.588	23490
879.715	23573
879.842	23760
879.97	23596
880.097	23360
880.224	23284
880.351	23341
880.478	23402
880.605	23239
880.732	23345
880.859	23501
880.986	23242
881.112	23200
881.239	23159
881.366	22968
881.493	22980
881.619	22835
881.746	22790
881.872	22820
881.999	22774
882.125	22805
882.252	22801
882.378	22755
882.505	22957
882.631	22706
882.757	22607
882.883	22584
883.01	22607
883.136	22519
883.262	22451
883.388	22318
883.514	22493
883.64	22481
883.766	22424
883.892	22310
884.018	22318
884.143	22360
884.269	22542
884.395	22166
884.52	22112
884.646	22131
884.772	22048
884.897	22070
885.023	22173
885.148	22287
885.274	22265
885.399	22188
885.524	22169
885.65	22207
885.775	22291
885.9	22265
886.025	22291
886.15	22257
886.275	22185
886.4	22086
886.525	22109
886.65	22131
886.775	22093
886.9	22188
887.025	22299
887.149	22158
887.274	21842
887.399	21926
887.523	21812
887.648	21835
887.773	21800
887.897	21983
888.021	22013
888.146	21812
888.27	21937
888.395	22051
888.519	22032
888.643	22002
888.767	21880
888.891	21755
889.015	21633
889.139	21652
889.263	21736
889.387	21774
889.511	21941
889.635	21736
889.759	21679
889.883	21732
890.006	21701
890.13	21831
890.254	21671
890.377	21496
890.501	21523
890.624	21420
890.748	21408
890.871	21397
890.995	21207
891.118	21211
891.241	21199
891.364	21249
891.488	21416
891.611	21374
891.734	21260
891.857	21348
891.98	21233
892.103	21211
892.226	21222
892.349	21233
892.471	21096
892.594	21173
892.717	21161
892.839	21180
892.962	21203
893.085	21150
893.207	21055
893.33	20994
893.452	20990
893.575	21245
893.697	21192
893.819	21279
893.941	21291
894.064	21245
894.186	21237
894.308	21028
894.43	21249
894.552	21230
894.674	21199
894.796	21062
894.918	21085
895.04	21058
895.161	21211
895.283	21131
895.405	21123
895.526	20998
895.648	21043
895.769	21180
895.891	21222
896.012	21169
896.134	21138
896.255	21127
896.376	20960
896.498	21154
896.619	21062
896.74	21157
896.861	21138
896.982	21424
897.103	21576
897.224	21367
897.345	21306
897.466	21192
897.587	21321
897.708	21458
897.828	21313
897.949	21272
898.07	21146
898.19	21279
898.311	21450
898.431	21207
898.552	21230
898.672	21431
898.792	21310
898.913	21283
899.033	21169
899.153	21085
899.273	21001
899.393	21150
899.513	21157
899.633	20986
899.753	21116
899.873	20975
899.993	21066
900.113	20956
900.232	20952
900.352	20933
900.472	20838
900.591	20667
900.711	20792
900.83	20746
900.95	20899
901.069	20925
901.189	20720
901.308	20503
901.427	20351
901.546	20396
901.665	20385
901.784	20328
901.904	20149
902.023	20130
902.141	20001
902.26	20035
902.379	19989
902.498	19807
902.617	19928
902.735	19826
902.854	19753
902.973	19647
903.091	19453
903.21	19464
903.328	19582
903.446	19453
903.565	19320
903.683	19343
903.801	19236
903.919	19266
904.038	19266
904.156	19004
904.274	19206
904.392	19232
904.51	19190
904.627	19000
904.745	19012
904.863	19133
904.981	18871
905.098	18833
905.216	18738
905.334	18817
905.451	18734
905.569	18669
905.686	18711
905.803	18722
905.921	18582
906.038	18608
906.155	18585
906.272	18391
906.389	18369
906.506	18369
906.623	18308
906.74	18327
906.857	18285
906.974	18228
907.091	18384
907.208	18429
907.324	18399
907.441	18197
907.557	17901
907.674	18041
907.79	18003
907.907	17973
908.023	18026
908.139	17946
908.256	17950
908.372	17878
908.488	17912
908.604	17908
908.72	17680
908.836	17821
908.952	17661
909.068	17687
909.184	17790
909.3	17661
909.415	17863
909.531	17581
909.647	17395
909.762	17322
909.878	17334
909.993	17417
910.108	17402
910.224	17402
910.339	17353
910.454	17284
910.57	17269
910.685	17037
910.8	17440
910.915	17433
911.03	17151
911.145	16953
911.259	17041
911.374	16949
911.489	16885
911.604	16854
911.718	16713
911.833	16816
911.947	16641
912.062	16504
912.176	16710
912.291	16725
912.405	16736
912.519	16869
912.633	16816
912.748	16828
912.862	16729
912.976	16603
913.09	16455
913.204	16596
913.318	16561
913.431	16497
913.545	16622
913.659	16588
913.772	16516
913.886	16310
914	16337
914.113	16417
914.226	16531
914.34	16291
914.453	16238
914.566	16284
914.68	16200
914.793	16124
914.906	16051
915.019	15934
915.132	15884
915.245	15888
915.358	15869
915.47	15930
915.583	15915
915.696	15869
915.809	15972
915.921	16013
916.034	15755
916.146	15759
916.259	15816
916.371	15922
916.483	15804
916.595	15747
916.708	15679
916.82	15812
916.932	15675
917.044	15701
917.156	15694
917.268	15485
917.38	15561
917.491	15504
917.603	15481
917.715	15526
917.826	15587
917.938	15401
918.049	15378
918.161	15454
918.272	15564
918.384	15595
918.495	15450
918.606	15283
918.717	15173
918.828	15370
918.939	15310
919.05	15161
919.161	15214
919.272	15108
919.383	15055
919.494	15344
919.604	15435
919.715	15252
919.826	15104
919.936	15169
920.047	15344
920.157	15192
920.267	15447
920.378	15272
920.488	15180
920.598	15420
920.708	15511
920.818	15317
920.928	15279
921.038	15511
921.148	15431
921.258	15214
921.368	15085
921.477	14906
921.587	14941
921.697	14857
921.806	14963
921.916	14823
922.025	14610
922.134	14537
922.244	14495
922.353	14610
922.462	14465
922.571	14343
922.68	14240
922.789	14183
922.898	14172
923.007	14180
923.116	14248
923.224	14248
923.333	14145
923.442	14073
923.55	14058
923.659	14008
923.767	14077
923.876	13913
923.984	14069
924.092	13959
924.201	14039
924.309	13947
924.417	13940
924.525	13704
924.633	13894
924.741	14613
924.849	13677
924.956	13807
925.064	13639
925.172	13506
925.279	13639
925.387	13620
925.494	13575
925.602	13753
925.709	13601
925.816	13616
925.924	13670
926.031	13719
926.138	13499
926.245	13548
926.352	13445
926.459	13674
926.566	13525
926.673	13495
926.779	13232
926.886	13301
926.993	13244
927.099	13202
927.206	13183
927.312	13133
927.419	13099
927.525	13110
927.631	13232
927.737	13126
927.843	12977
927.95	12966
928.056	12966
928.162	13027
928.267	13038
928.373	13594
928.479	13091
928.585	12665
928.69	12867
928.796	12947
928.901	12916
929.007	12642
929.112	12867
929.218	12856
929.323	12719
929.428	12700
929.533	12817
929.638	12547
929.743	12612
929.848	12734
929.953	12646
930.058	12608
930.163	12338
930.267	12346
930.372	12471
930.477	12361
930.581	12498
930.685	12452
930.79	12194
930.894	12292
930.998	12289
931.103	12300
931.207	11984
931.311	11904
931.415	11813
931.519	11634
931.623	11604
