Data from test_V78500241_1151.txt Node
Date: Fri Mar 25 15:49:46 CST 2022
User: usil
Spectrometer: V785-0024
Trigger mode: 0
Integration Time (sec): 4.000000E-1
Scans to average: 1
Nonlinearity correction enabled: false
Boxcar width: 0
Storing dark spectrum: false
XAxis mode: Wavelengths
Number of Pixels in Spectrum: 1024
>>>>>Begin Spectral Data<<<<<
801.071	28615
801.214	28428
801.356	28268
801.499	28169
801.641	28109
801.783	28173
801.926	28086
802.068	28261
802.211	28097
802.353	28070
802.496	27934
802.638	27937
802.78	27762
802.923	27759
803.065	27854
803.208	27854
803.35	27842
803.492	27808
803.635	28017
803.777	27850
803.919	27994
804.061	28284
804.204	28059
804.346	28048
804.488	27968
804.63	28040
804.773	27797
804.915	28067
805.057	28249
805.199	28044
805.341	28078
805.483	28204
805.626	28185
805.768	28097
805.91	28097
806.052	28284
806.194	28226
806.336	28284
806.478	28276
806.62	28196
806.762	28379
806.904	28554
807.046	28729
807.188	28660
807.33	28771
807.472	28782
807.614	28554
807.756	28672
807.898	28440
808.04	28512
808.182	28386
808.324	28596
808.465	28664
808.607	28637
808.749	28820
808.891	29067
809.033	29029
809.174	28877
809.316	28972
809.458	28888
809.6	28866
809.741	29010
809.883	29075
810.025	29318
810.166	29258
810.308	29261
810.45	29265
810.591	29079
810.733	29033
810.875	28938
811.016	28915
811.158	28816
811.299	29060
811.441	29060
811.582	29090
811.724	29010
811.865	28949
812.007	28995
812.148	28892
812.29	28896
812.431	29029
812.573	29311
812.714	29356
812.855	29307
812.997	29687
813.138	29592
813.279	29528
813.421	29459
813.562	29375
813.703	29193
813.845	29273
813.986	29025
814.127	28797
814.268	28759
814.41	28645
814.551	28519
814.692	28535
814.833	28565
814.974	28694
815.115	28618
815.256	28561
815.397	28516
815.539	28573
815.68	28356
815.821	28386
815.962	28554
816.103	28573
816.244	28265
816.385	28219
816.526	28314
816.666	28048
816.807	27968
816.948	28135
817.089	28048
817.23	28013
817.371	27869
817.512	28002
817.653	27949
817.793	27922
817.934	27968
818.075	27903
818.216	27907
818.356	27903
818.497	27865
818.638	27785
818.778	27705
818.919	27800
819.06	27804
819.2	27861
819.341	28006
819.481	27911
819.622	28135
819.762	28284
819.903	28352
820.043	28188
820.184	28029
820.324	28097
820.465	28074
820.605	28181
820.746	28029
820.886	27937
821.026	28131
821.167	28105
821.307	28131
821.447	28029
821.588	27884
821.728	27873
821.868	27549
822.008	27568
822.149	27443
822.289	27466
822.429	27306
822.569	27135
822.709	27165
822.849	26982
822.99	26994
823.13	26994
823.27	26948
823.41	26872
823.55	26590
823.69	26720
823.83	26834
823.97	26655
824.11	26514
824.25	26545
824.389	26579
824.529	26743
824.669	26636
824.809	26785
824.949	26655
825.089	26796
825.228	26895
825.368	26514
825.508	26590
825.648	26400
825.787	26473
825.927	26579
826.067	26381
826.206	26549
826.346	26526
826.485	26495
826.625	26469
826.765	26693
826.904	26522
827.044	26419
827.183	26282
827.323	26278
827.462	26172
827.601	26244
827.741	26142
827.88	26233
828.02	26191
828.159	26199
828.298	26240
828.437	26225
828.577	26096
828.716	26347
828.855	26244
828.994	25906
829.134	25940
829.273	26062
829.412	25864
829.551	25772
829.69	25818
829.829	25917
829.968	26012
830.107	26005
830.246	25841
830.385	25860
830.524	25742
830.663	25658
830.802	25601
830.941	25468
831.08	25453
831.219	25552
831.357	25704
831.496	25776
831.635	25548
831.774	25400
831.913	25369
832.051	25381
832.19	25304
832.329	25259
832.467	25206
832.606	25145
832.744	25084
832.883	25190
833.022	25046
833.16	25122
833.299	25274
833.437	25202
833.576	25327
833.714	25209
833.852	25297
833.991	25327
834.129	25274
834.267	25304
834.406	25259
834.544	25255
834.682	25312
834.821	25228
834.959	25373
835.097	25164
835.235	25301
835.373	25110
835.511	25247
835.65	25034
835.788	25107
835.926	24943
836.064	24825
836.202	24909
836.34	25107
836.478	25156
836.615	24970
836.753	24970
836.891	25126
837.029	25141
837.167	24905
837.305	24935
837.443	25012
837.58	24852
837.718	24958
837.856	24840
837.993	24871
838.131	24848
838.269	24700
838.406	24867
838.544	24684
838.681	24532
838.819	24525
838.956	24342
839.094	24372
839.231	24391
839.369	24559
839.506	24612
839.643	24490
839.781	24380
839.918	24323
840.055	24292
840.193	24285
840.33	24205
840.467	24258
840.604	24330
840.742	24509
840.879	24125
841.016	24209
841.153	24110
841.29	24346
841.427	24327
841.564	24232
841.701	24205
841.838	24144
841.975	24076
842.112	24041
842.249	24057
842.385	24045
842.522	24258
842.659	24152
842.796	24117
842.933	24030
843.069	23935
843.206	23889
843.343	24102
843.479	23992
843.616	24057
843.752	23741
843.889	23870
844.025	23931
844.162	23874
844.298	23832
844.435	23741
844.571	23733
844.708	23794
844.844	23939
844.98	23908
845.117	23950
845.253	23809
845.389	23474
845.525	23703
845.661	23707
845.798	23581
845.934	23718
846.07	23551
846.206	23577
846.342	23672
846.478	23547
846.614	23387
846.75	23151
846.886	23220
847.022	23303
847.158	23292
847.294	23250
847.429	23098
847.565	23349
847.701	23486
847.837	23006
847.972	22984
848.108	23071
848.244	23090
848.379	22957
848.515	22828
848.65	22900
848.786	22953
848.921	22744
849.057	22835
849.192	22965
849.328	22919
849.463	23010
849.598	22713
849.734	22835
849.869	22774
850.004	22554
850.14	22672
850.275	22630
850.41	22561
850.545	22577
850.68	22672
850.815	22637
850.95	22664
851.085	22847
851.22	22672
851.355	22672
851.49	22538
851.625	22538
851.76	22607
851.895	22618
852.03	22500
852.165	22641
852.299	22622
852.434	22691
852.569	22774
852.703	22592
852.838	22630
852.973	22740
853.107	22755
853.242	22565
853.376	22455
853.511	22325
853.645	22390
853.78	22462
853.914	22493
854.048	22519
854.183	22348
854.317	22493
854.451	22580
854.585	22512
854.72	22577
854.854	22542
854.988	22371
855.122	22462
855.256	22386
855.39	22428
855.524	22478
855.658	22542
855.792	22462
855.926	22519
856.06	22622
856.194	22421
856.327	22451
856.461	22451
856.595	22360
856.729	22432
856.862	22596
856.996	22489
857.13	22519
857.263	22542
857.397	22519
857.53	22318
857.664	22455
857.797	22489
857.931	22603
858.064	22489
858.197	22462
858.331	22352
858.464	22390
858.597	22386
858.731	22432
858.864	22363
858.997	22417
859.13	22478
859.263	22386
859.396	22428
859.529	22497
859.662	22512
859.795	22402
859.928	22527
860.061	22672
860.194	22599
860.327	22565
860.46	22504
860.592	22622
860.725	22497
860.858	22451
860.99	22478
861.123	22474
861.256	22523
861.388	22440
861.521	23178
861.653	22363
861.786	22276
861.918	22284
862.05	22356
862.183	22344
862.315	22371
862.447	22394
862.58	22272
862.712	22097
862.844	21983
862.976	22238
863.108	22253
863.24	22710
863.372	22017
863.504	22223
863.636	22173
863.768	22166
863.9	22135
864.032	22124
864.164	22090
864.296	22090
864.428	22318
864.559	22249
864.691	22207
864.823	22105
864.954	22173
865.086	22181
865.217	21998
865.349	21979
865.48	22070
865.612	21953
865.743	22166
865.875	22051
866.006	21994
866.137	22029
866.269	22040
866.4	21915
866.531	21979
866.662	21819
866.793	21922
866.924	21983
867.055	21979
867.186	21956
867.317	21926
867.448	21907
867.579	21930
867.71	21785
867.841	21930
867.972	21930
868.103	21972
868.233	21956
868.364	21972
868.495	22090
868.625	22211
868.756	22276
868.886	22158
869.017	22249
869.147	22265
869.278	22367
869.408	22154
869.539	22238
869.669	22242
869.799	22246
869.929	22238
870.06	22318
870.19	22538
870.32	22557
870.45	22538
870.58	22607
870.71	22664
870.84	22721
870.97	22550
871.1	22584
871.23	22828
871.36	22809
871.489	22683
871.619	22763
871.749	22603
871.879	22820
872.008	23003
872.138	22866
872.267	22816
872.397	22702
872.526	22588
872.656	22569
872.785	22409
872.915	22889
873.044	22797
873.173	22869
873.303	22778
873.432	22809
873.561	22820
873.69	22812
873.819	22752
873.948	22831
874.077	22679
874.206	22923
874.335	22733
874.464	22843
874.593	23136
874.722	22953
874.851	23006
874.979	23037
875.108	23033
875.237	23003
875.365	22961
875.494	22942
875.623	23052
875.751	22968
875.88	22976
876.008	23178
876.136	23208
876.265	23395
876.393	23547
876.521	23554
876.65	23482
876.778	23360
876.906	23318
877.034	23273
877.162	23486
877.29	23292
877.418	23337
877.546	23231
877.674	23421
877.802	23337
877.93	23318
878.058	23349
878.185	23143
878.313	23337
878.441	23307
878.568	23246
878.696	23227
878.824	23414
878.951	23414
879.079	23505
879.206	23729
879.333	23543
879.461	23326
879.588	23315
879.715	23459
879.842	23490
879.97	23376
880.097	23189
880.224	23086
880.351	23151
880.478	23159
880.605	23086
880.732	23109
880.859	23379
880.986	23083
881.112	23250
881.239	22965
881.366	22881
881.493	22824
881.619	22630
881.746	22812
881.872	22698
881.999	22717
882.125	22584
882.252	22740
882.378	22721
882.505	22847
882.631	22519
882.757	22440
882.883	22531
883.01	22402
883.136	22322
883.262	22261
883.388	22329
883.514	22459
883.64	22554
883.766	22192
883.892	22017
884.018	22303
884.143	22363
884.269	22268
884.395	22093
884.52	21983
884.646	22055
884.772	21934
884.897	21991
885.023	21987
885.148	22143
885.274	22150
885.399	22135
885.524	22002
885.65	22105
885.775	21983
885.9	22029
886.025	22128
886.15	21968
886.275	21922
886.4	22051
886.525	21934
886.65	21899
886.775	21987
886.9	22154
887.025	22211
887.149	21960
887.274	21728
887.399	21755
887.523	21934
887.648	21778
887.773	21648
887.897	21827
888.021	21842
888.146	21789
888.27	21812
888.395	21774
888.519	21827
888.643	21922
888.767	21884
888.891	21614
889.015	21606
889.139	21557
889.263	21382
889.387	21720
889.511	21800
889.635	21816
889.759	21633
889.883	21545
890.006	21618
890.13	21766
890.254	21416
890.377	21424
890.501	21374
890.624	21237
890.748	21374
890.871	21150
890.995	21214
891.118	21070
891.241	21131
891.364	21085
891.488	21268
891.611	21131
891.734	21127
891.857	21184
891.98	21150
892.103	21123
892.226	21058
892.349	21093
892.471	20773
892.594	21020
892.717	21119
892.839	20941
892.962	20982
893.085	21028
893.207	21058
893.33	20853
893.452	21024
893.575	21180
893.697	21074
893.819	21237
893.941	21169
894.064	21112
894.186	20948
894.308	20937
894.43	21195
894.552	21173
894.674	21055
894.796	20956
894.918	20967
895.04	21017
895.161	20994
895.283	21116
895.405	20921
895.526	21017
895.648	20952
895.769	21036
895.891	20975
896.012	21131
896.134	21036
896.255	21020
896.376	21036
896.498	20933
896.619	21116
896.74	21093
896.861	20967
896.982	21340
897.103	21389
897.224	21298
897.345	21165
897.466	21245
897.587	21351
897.708	21279
897.828	21245
897.949	21100
898.07	21066
898.19	21055
898.311	21310
898.431	21260
898.552	21154
898.672	21138
898.792	21306
898.913	21325
899.033	21055
899.153	21154
899.273	20952
899.393	20910
899.513	20990
899.633	21020
899.753	20952
899.873	20883
899.993	21043
900.113	20823
900.232	20887
900.352	20868
900.472	20720
900.591	20762
900.711	20746
900.83	20670
900.95	20876
901.069	20842
901.189	20640
901.308	20473
901.427	20309
901.546	20252
901.665	20377
901.784	20362
901.904	20046
902.023	20092
902.141	19799
902.26	19845
902.379	19879
902.498	19875
902.617	19696
902.735	19731
902.854	19753
902.973	19727
903.091	19407
903.21	19392
903.328	19384
903.446	19301
903.565	19289
903.683	19304
903.801	19133
903.919	19183
904.038	19213
904.156	19004
904.274	19050
904.392	19050
904.51	18970
904.627	18993
904.745	19000
904.863	19050
904.981	18821
905.098	18551
905.216	18604
905.334	18711
905.451	18700
905.569	18631
905.686	18665
905.803	18627
905.921	18418
906.038	18570
906.155	18551
906.272	18460
906.389	18384
906.506	18144
906.623	18251
906.74	18197
906.857	18083
906.974	18060
907.091	18285
907.208	18327
907.324	18251
907.441	18083
907.557	17908
907.674	17809
907.79	17802
907.907	17885
908.023	17965
908.139	17893
908.256	17767
908.372	17661
908.488	17779
908.604	17657
908.72	17539
908.836	17547
908.952	17505
909.068	17695
909.184	17699
909.3	17642
909.415	17608
909.531	17547
909.647	17368
909.762	17223
909.878	17307
909.993	17246
910.108	17280
910.224	17368
910.339	17269
910.454	17185
910.57	17094
910.685	17109
910.8	17474
910.915	17315
911.03	17181
911.145	17022
911.259	16801
911.374	16915
911.489	16816
911.604	16694
911.718	16603
911.833	16634
911.947	16622
912.062	16451
912.176	16641
912.291	16599
912.405	16580
912.519	16866
912.633	16733
912.748	16641
912.862	16615
912.976	16569
913.09	16428
913.204	16291
913.318	16455
913.431	16554
913.545	16489
913.659	16519
913.772	16398
913.886	16268
914	16215
914.113	16310
914.226	16284
914.34	16367
914.453	16143
914.566	16272
914.68	16097
914.793	16051
914.906	15968
915.019	15800
915.132	15762
915.245	15633
915.358	15827
915.47	15854
915.583	15774
915.696	15800
915.809	15956
915.921	15930
916.034	15717
916.146	15762
916.259	15720
916.371	15770
916.483	15751
916.595	15584
916.708	15701
916.82	15705
916.932	15667
917.044	15599
917.156	15549
917.268	15454
917.38	15481
917.491	15412
917.603	15515
917.715	15507
917.826	15564
917.938	15420
918.049	15241
918.161	15374
918.272	15614
918.384	15477
918.495	15340
918.606	15237
918.717	15192
918.828	15161
918.939	15268
919.05	15173
919.161	15279
919.272	15066
919.383	15039
919.494	15287
919.604	15370
919.715	15214
919.826	15093
919.936	15161
920.047	15203
920.157	15256
920.267	15355
920.378	15100
920.488	15100
920.598	15424
920.708	15405
920.818	15256
920.928	15268
921.038	15481
921.148	15386
921.258	15131
921.368	15100
921.477	14899
921.587	14986
921.697	14724
921.806	14921
921.916	14739
922.025	14629
922.134	14598
922.244	14571
922.353	14571
922.462	14495
922.571	14263
922.68	14248
922.789	14180
922.898	14176
923.007	14134
923.116	14157
923.224	14142
923.333	14130
923.442	13932
923.55	13940
923.659	13871
923.767	14073
923.876	13986
923.984	14005
924.092	13928
924.201	13856
924.309	13887
924.417	13898
924.525	13807
924.633	13738
924.741	14473
924.849	13594
924.956	13753
925.064	13674
925.172	13480
925.279	13518
925.387	13613
925.494	13529
925.602	13639
925.709	13540
925.816	13396
925.924	13480
926.031	13605
926.138	13480
926.245	13464
926.352	13415
926.459	13491
926.566	13499
926.673	13464
926.779	13236
926.886	13236
926.993	13023
927.099	13057
927.206	13114
927.312	13046
927.419	13133
927.525	13019
927.631	13072
927.737	12920
927.843	12916
927.95	12791
928.056	12848
928.162	12886
928.267	12977
928.373	13430
928.479	12909
928.585	12722
928.69	12871
928.796	12916
928.901	12806
929.007	12563
929.112	12738
929.218	12665
929.323	12646
929.428	12589
929.533	12795
929.638	12521
929.743	12437
929.848	12677
929.953	12498
930.058	12547
930.163	12311
930.267	12327
930.372	12407
930.477	12171
930.581	12441
930.685	12308
930.79	12152
930.894	12266
930.998	12186
931.103	12296
931.207	11965
931.311	11836
931.415	11630
931.519	11444
931.623	11482
