Data from test_V78500241_1411.txt Node
Date: Fri Mar 25 15:51:34 CST 2022
User: usil
Spectrometer: V785-0024
Trigger mode: 0
Integration Time (sec): 4.000000E-1
Scans to average: 1
Nonlinearity correction enabled: false
Boxcar width: 0
Storing dark spectrum: false
XAxis mode: Wavelengths
Number of Pixels in Spectrum: 1024
>>>>>Begin Spectral Data<<<<<
801.071	27892
801.214	27888
801.356	27698
801.499	27515
801.641	27500
801.783	27462
801.926	27500
802.068	27473
802.211	27477
802.353	27283
802.496	27188
802.638	27112
802.78	27028
802.923	27119
803.065	27070
803.208	26967
803.35	27123
803.492	27203
803.635	27291
803.777	27313
803.919	27298
804.061	27622
804.204	27367
804.346	27344
804.488	27230
804.63	27397
804.773	27245
804.915	27268
805.057	27443
805.199	27283
805.341	27302
805.483	27389
805.626	27526
805.768	27321
805.91	27382
806.052	27515
806.194	27397
806.336	27717
806.478	27561
806.62	27538
806.762	27568
806.904	27755
807.046	28029
807.188	27800
807.33	27983
807.472	27998
807.614	27876
807.756	27903
807.898	27603
808.04	27686
808.182	27804
808.324	27656
808.465	27789
808.607	27972
808.749	28032
808.891	28150
809.033	28238
809.174	27994
809.316	27994
809.458	28109
809.6	28036
809.741	28192
809.883	28268
810.025	28341
810.166	28318
810.308	28405
810.45	28447
810.591	28211
810.733	28124
810.875	28246
811.016	27930
811.158	27964
811.299	28048
811.441	28223
811.582	28238
811.724	28070
811.865	28063
812.007	28192
812.148	28150
812.29	28139
812.431	28382
812.573	28379
812.714	28504
812.855	28630
812.997	28622
813.138	28850
813.279	28672
813.421	28634
813.562	28653
813.703	28424
813.845	28272
813.986	28021
814.127	27998
814.268	27751
814.41	27888
814.551	27770
814.692	27823
814.833	27762
814.974	27709
815.115	27694
815.256	27595
815.397	27739
815.539	27595
815.68	27648
815.821	27450
815.962	27515
816.103	27603
816.244	27466
816.385	27329
816.526	27272
816.666	27066
816.807	27047
816.948	27154
817.089	27199
817.23	27066
817.371	27009
817.512	27127
817.653	27066
817.793	26986
817.934	26944
818.075	27211
818.216	27188
818.356	26956
818.497	26804
818.638	26842
818.778	26872
818.919	26975
819.06	26754
819.2	26910
819.341	27039
819.481	27055
819.622	27218
819.762	27332
819.903	27279
820.043	27180
820.184	27116
820.324	27142
820.465	27211
820.605	27180
820.746	27184
820.886	26990
821.026	27268
821.167	26933
821.307	27226
821.447	27039
821.588	27024
821.728	26838
821.868	26735
822.008	26514
822.149	26465
822.289	26522
822.429	26370
822.569	26305
822.709	26195
822.849	26164
822.99	26054
823.13	26008
823.27	26077
823.41	26008
823.55	25788
823.69	25868
823.83	25860
823.97	25856
824.11	25734
824.25	25639
824.389	25734
824.529	25708
824.669	25845
824.809	25776
824.949	25837
825.089	25765
825.228	25689
825.368	25582
825.508	25514
825.648	25575
825.787	25609
825.927	25696
826.067	25620
826.206	25670
826.346	25571
826.485	25597
826.625	25499
826.765	25750
826.904	25491
827.044	25441
827.183	25297
827.323	25221
827.462	25381
827.601	25251
827.741	25289
827.88	25247
828.02	25160
828.159	25236
828.298	25304
828.437	25331
828.577	25217
828.716	25377
828.855	25259
828.994	24916
829.134	24913
829.273	25012
829.412	24806
829.551	24970
829.69	25042
829.829	24916
829.968	24943
830.107	25004
830.246	25038
830.385	24852
830.524	24894
830.663	24688
830.802	24608
830.941	24505
831.08	24509
831.219	24665
831.357	24703
831.496	24837
831.635	24517
831.774	24521
831.913	24467
832.051	24296
832.19	24300
832.329	24319
832.467	24239
832.606	24247
832.744	24155
832.883	24289
833.022	24152
833.16	24190
833.299	24391
833.437	24319
833.576	24338
833.714	24388
833.852	24372
833.991	24342
834.129	24399
834.267	24315
834.406	24372
834.544	24308
834.682	24334
834.821	24235
834.959	24475
835.097	24270
835.235	24323
835.373	24311
835.511	24144
835.65	24136
835.788	24190
835.926	24003
836.064	23908
836.202	23980
836.34	24171
836.478	24209
836.615	24087
836.753	24114
836.891	24357
837.029	24117
837.167	24038
837.305	23977
837.443	23988
837.58	24038
837.718	24057
837.856	24026
837.993	23916
838.131	23889
838.269	23794
838.406	23828
838.544	23809
838.681	23642
838.819	23566
838.956	23455
839.094	23414
839.231	23372
839.369	23493
839.506	23798
839.643	23767
839.781	23387
839.918	23425
840.055	23490
840.193	23410
840.33	23334
840.467	23433
840.604	23448
840.742	23786
840.879	23299
841.016	23341
841.153	23345
841.29	23459
841.427	23379
841.564	23429
841.701	23364
841.838	23280
841.975	23235
842.112	23143
842.249	23364
842.385	23033
842.522	23414
842.659	23193
842.796	23140
842.933	23223
843.069	23029
843.206	23079
843.343	23136
843.479	23143
843.616	23212
843.752	22866
843.889	22881
844.025	22980
844.162	22877
844.298	22877
844.435	22980
844.571	22850
844.708	22790
844.844	23079
844.98	22972
845.117	22892
845.253	22934
845.389	22618
845.525	22710
845.661	22721
845.798	22580
845.934	22679
846.07	22550
846.206	22641
846.342	22683
846.478	22508
846.614	22409
846.75	22291
846.886	22318
847.022	22481
847.158	22352
847.294	22196
847.429	22352
847.565	22291
847.701	22744
847.837	22200
847.972	22074
848.108	22074
848.244	22154
848.379	21922
848.515	21960
848.65	21880
848.786	21857
848.921	21979
849.057	22010
849.192	22185
849.328	22044
849.463	21956
849.598	21846
849.734	21663
849.869	21838
850.004	21766
850.14	21701
850.275	21603
850.41	21580
850.545	21671
850.68	21557
850.815	21713
850.95	21641
851.085	21869
851.22	21838
851.355	21720
851.49	21717
851.625	21549
851.76	21629
851.895	21542
852.03	21629
852.165	21663
852.299	21778
852.434	21800
852.569	21755
852.703	21614
852.838	21698
852.973	21743
853.107	21903
853.242	21618
853.376	21606
853.511	21408
853.645	21420
853.78	21717
853.914	21663
854.048	21363
854.183	21644
854.317	21462
854.451	21724
854.585	21325
854.72	21538
854.854	21644
854.988	21488
855.122	21572
855.256	21374
855.39	21526
855.524	21603
855.658	21496
855.792	21469
855.926	21450
856.06	21564
856.194	21637
856.327	21488
856.461	21412
856.595	21507
856.729	21595
856.862	21679
856.996	21538
857.13	21713
857.263	21648
857.397	21599
857.53	21557
857.664	21477
857.797	21557
857.931	21690
858.064	21583
858.197	21614
858.331	21492
858.464	21389
858.597	21477
858.731	21340
858.864	21450
858.997	21416
859.13	21652
859.263	21488
859.396	21648
859.529	21526
859.662	21583
859.795	21481
859.928	21405
860.061	21720
860.194	21641
860.327	21652
860.46	21412
860.592	21641
860.725	21698
860.858	21637
860.99	21561
861.123	21450
861.256	21466
861.388	21576
861.521	22219
861.653	21344
861.786	21264
861.918	21260
862.05	21401
862.183	21435
862.315	21587
862.447	21564
862.58	21458
862.712	21188
862.844	21127
862.976	21294
863.108	21268
863.24	21671
863.372	21218
863.504	21245
863.636	21131
863.768	21298
863.9	21203
864.032	21100
864.164	21233
864.296	21245
864.428	21294
864.559	21279
864.691	21252
864.823	21249
864.954	21211
865.086	21230
865.217	21169
865.349	20918
865.48	21138
865.612	21100
865.743	21207
865.875	21070
866.006	21089
866.137	21154
866.269	20979
866.4	21096
866.531	20986
866.662	21074
866.793	21051
866.924	21058
867.055	21146
867.186	21089
867.317	21020
867.448	21116
867.579	21066
867.71	20910
867.841	21028
867.972	20982
868.103	20914
868.233	21093
868.364	21119
868.495	21272
868.625	21291
868.756	21450
868.886	21184
869.017	21294
869.147	21351
869.278	21408
869.408	21233
869.539	21260
869.669	21401
869.799	21245
869.929	21542
870.06	21466
870.19	21686
870.32	21595
870.45	21553
870.58	21652
870.71	21720
870.84	21770
870.97	21717
871.1	21774
871.23	21797
871.36	21865
871.489	21876
871.619	21941
871.749	21876
871.879	22025
872.008	21991
872.138	21755
872.267	21907
872.397	21857
872.526	21789
872.656	21720
872.785	21759
872.915	21937
873.044	21854
873.173	22021
873.303	22025
873.432	21865
873.561	21979
873.69	21941
873.819	21865
873.948	22101
874.077	22025
874.206	21884
874.335	21953
874.464	22006
874.593	22063
874.722	22097
874.851	22154
874.979	22154
875.108	22226
875.237	22215
875.365	22002
875.494	22131
875.623	22265
875.751	22131
875.88	22128
876.008	22181
876.136	22348
876.265	22565
876.393	22752
876.521	22615
876.65	22653
876.778	22519
876.906	22599
877.034	22459
877.162	22443
877.29	22500
877.418	22470
877.546	22653
877.674	22409
877.802	22462
877.93	22561
878.058	22447
878.185	22432
878.313	22478
878.441	22588
878.568	22382
878.696	22557
878.824	22447
878.951	22641
879.079	22683
879.206	22877
879.333	22694
879.461	22523
879.588	22603
879.715	22660
879.842	22828
879.97	22660
880.097	22386
880.224	22234
880.351	22360
880.478	22394
880.605	22257
880.732	22299
880.859	22535
880.986	22295
881.112	22348
881.239	22188
881.366	22124
881.493	22017
881.619	21835
881.746	21880
881.872	21884
881.999	21956
882.125	21842
882.252	21937
882.378	21827
882.505	22025
882.631	21816
882.757	21656
882.883	21603
883.01	21675
883.136	21545
883.262	21450
883.388	21408
883.514	21633
883.64	21698
883.766	21561
883.892	21256
884.018	21397
884.143	21507
884.269	21408
884.395	21420
884.52	21112
884.646	21382
884.772	21161
884.897	21135
885.023	21268
885.148	21252
885.274	21507
885.399	21287
885.524	21184
885.65	21359
885.775	21363
885.9	21237
886.025	21256
886.15	21279
886.275	21211
886.4	21211
886.525	21184
886.65	21081
886.775	21123
886.9	21378
887.025	21428
887.149	21203
887.274	21116
887.399	21058
887.523	21058
887.648	20944
887.773	20914
887.897	21096
888.021	20944
888.146	21043
888.27	21138
888.395	21070
888.519	21001
888.643	21017
888.767	21062
888.891	20948
889.015	20834
889.139	20899
889.263	20739
889.387	20883
889.511	21081
889.635	20941
889.759	20720
889.883	20823
890.006	20735
890.13	20887
890.254	20712
890.377	20667
890.501	20587
890.624	20564
890.748	20583
890.871	20469
890.995	20381
891.118	20248
891.241	20408
891.364	20317
891.488	20549
891.611	20385
891.734	20343
891.857	20476
891.98	20309
892.103	20317
892.226	20469
892.349	20343
892.471	20202
892.594	20214
892.717	20370
892.839	20187
892.962	20164
893.085	20313
893.207	20218
893.33	20210
893.452	20130
893.575	20240
893.697	20134
893.819	20313
893.941	20480
894.064	20381
894.186	20278
894.308	20267
894.43	20298
894.552	20442
894.674	20259
894.796	20161
894.918	20275
895.04	20324
895.161	20343
895.283	20271
895.405	20199
895.526	20168
895.648	20271
895.769	20301
895.891	20225
896.012	20320
896.134	20305
896.255	20339
896.376	20358
896.498	20259
896.619	20339
896.74	20282
896.861	20317
896.982	20655
897.103	20724
897.224	20594
897.345	20389
897.466	20450
897.587	20366
897.708	20598
897.828	20701
897.949	20427
898.07	20324
898.19	20328
898.311	20495
898.431	20434
898.552	20366
898.672	20476
898.792	20590
898.913	20609
899.033	20259
899.153	20187
899.273	20183
899.393	20282
899.513	20229
899.633	20199
899.753	20237
899.873	20084
899.993	20229
900.113	20244
900.232	20164
900.352	20031
900.472	19970
900.591	20046
900.711	20134
900.83	19982
900.95	20119
901.069	20164
901.189	19902
901.308	19616
901.427	19548
901.546	19548
901.665	19681
901.784	19609
901.904	19521
902.023	19343
902.141	19175
902.26	19122
902.379	19103
902.498	19190
902.617	19110
902.735	19076
902.854	19012
902.973	18996
903.091	18768
903.21	18810
903.328	18795
903.446	18703
903.565	18563
903.683	18661
903.801	18334
903.919	18593
904.038	18555
904.156	18372
904.274	18376
904.392	18281
904.51	18254
904.627	18254
904.745	18281
904.863	18277
904.981	18140
905.098	17954
905.216	17973
905.334	18125
905.451	17908
905.569	17973
905.686	18019
905.803	18022
905.921	17718
906.038	17882
906.155	17805
906.272	17615
906.389	17680
906.506	17592
906.623	17642
906.74	17505
906.857	17318
906.974	17516
907.091	17558
907.208	17573
907.324	17512
907.441	17372
907.557	17231
907.674	17212
907.79	17166
907.907	17204
908.023	17353
908.139	17284
908.256	17250
908.372	17159
908.488	17162
908.604	16904
908.72	16892
908.836	16908
908.952	16968
909.068	16938
909.184	17010
909.3	16972
909.415	17071
909.531	16892
909.647	16694
909.762	16634
909.878	16634
909.993	16683
910.108	16630
910.224	16569
910.339	16565
910.454	16493
910.57	16554
910.685	16375
910.8	16691
910.915	16637
911.03	16421
911.145	16287
911.259	16238
911.374	16303
911.489	16276
911.604	16147
911.718	15934
911.833	15968
911.947	15869
912.062	15831
912.176	16105
912.291	16059
912.405	16029
912.519	16211
912.633	16173
912.748	15983
912.862	15987
912.976	15804
913.09	15663
913.204	15812
913.318	15850
913.431	16067
913.545	15911
913.659	15930
913.772	15854
913.886	15743
914	15648
914.113	15709
914.226	15751
914.34	15648
914.453	15557
914.566	15572
914.68	15469
914.793	15428
914.906	15306
915.019	15230
915.132	15150
915.245	15313
915.358	15245
915.47	15230
915.583	15249
915.696	15241
915.809	15249
915.921	15321
916.034	15154
916.146	15226
916.259	15039
916.371	15192
916.483	15176
916.595	15020
916.708	14979
916.82	15032
916.932	15013
917.044	15028
917.156	14956
917.268	14811
917.38	14849
917.491	14937
917.603	14834
917.715	14914
917.826	14891
917.938	14876
918.049	14674
918.161	14925
918.272	14975
918.384	14887
918.495	14743
918.606	14667
918.717	14564
918.828	14693
918.939	14636
919.05	14415
919.161	14571
919.272	14454
919.383	14385
919.494	14610
919.604	14758
919.715	14564
919.826	14511
919.936	14541
920.047	14708
920.157	14617
920.267	14727
920.378	14640
920.488	14431
920.598	14674
920.708	14811
920.818	14705
920.928	14659
921.038	14815
921.148	14838
921.258	14507
921.368	14488
921.477	14366
921.587	14313
921.697	14187
921.806	14275
921.916	14210
922.025	14096
922.134	14039
922.244	14027
922.353	14020
922.462	13830
922.571	13845
922.68	13575
922.789	13647
922.898	13693
923.007	13639
923.116	13540
923.224	13582
923.333	13521
923.442	13468
923.55	13419
923.659	13411
923.767	13510
923.876	13301
923.984	13445
924.092	13343
924.201	13487
924.309	13365
924.417	13350
924.525	13137
924.633	13285
924.741	14035
924.849	13080
924.956	13206
925.064	13015
925.172	13023
925.279	13042
925.387	13042
925.494	13053
925.602	13190
925.709	13061
925.816	12932
925.924	13012
926.031	13088
926.138	12913
926.245	12993
926.352	12810
926.459	12973
926.566	12962
926.673	12897
926.779	12627
926.886	12760
926.993	12623
927.099	12525
927.206	12441
927.312	12578
927.419	12646
927.525	12479
927.631	12677
927.737	12460
927.843	12506
927.95	12311
928.056	12300
928.162	12380
928.267	12521
928.373	13088
928.479	12475
928.585	12167
928.69	12350
928.796	12376
928.901	12327
929.007	12133
929.112	12209
929.218	12243
929.323	12144
929.428	12076
929.533	12311
929.638	12030
929.743	12030
929.848	12125
929.953	12102
930.058	12060
930.163	11722
930.267	11847
930.372	11901
930.477	11684
930.581	11969
930.685	11859
930.79	11745
930.894	11783
930.998	11623
931.103	11824
931.207	11448
931.311	11330
931.415	11280
931.519	11113
931.623	11025
