Data from test_V78500241_3095.txt Node
Date: Fri Mar 25 16:03:14 CST 2022
User: usil
Spectrometer: V785-0024
Trigger mode: 0
Integration Time (sec): 4.000000E-1
Scans to average: 1
Nonlinearity correction enabled: false
Boxcar width: 0
Storing dark spectrum: false
XAxis mode: Wavelengths
Number of Pixels in Spectrum: 1024
>>>>>Begin Spectral Data<<<<<
801.071	28489
801.214	28493
801.356	28200
801.499	28055
801.641	28101
801.783	28051
801.926	28284
802.068	27994
802.211	28029
802.353	27835
802.496	27884
802.638	27789
802.78	27823
802.923	27591
803.065	27523
803.208	27800
803.35	27690
803.492	27846
803.635	27937
803.777	27953
803.919	28112
804.061	28261
804.204	28036
804.346	27914
804.488	27914
804.63	28067
804.773	28013
804.915	28135
805.057	28154
805.199	27972
805.341	28093
805.483	28230
805.626	28090
805.768	28013
805.91	28188
806.052	28204
806.194	27987
806.336	28318
806.478	28120
806.62	28093
806.762	28207
806.904	28493
807.046	28516
807.188	28538
807.33	28554
807.472	28713
807.614	28527
807.756	28466
807.898	28367
808.04	28363
808.182	28413
808.324	28417
808.465	28478
808.607	28630
808.749	28778
808.891	28896
809.033	28957
809.174	28828
809.316	28767
809.458	28995
809.6	28854
809.741	28881
809.883	28866
810.025	29094
810.166	29124
810.308	29056
810.45	28793
810.591	28949
810.733	28771
810.875	28786
811.016	28656
811.158	28706
811.299	29071
811.441	29052
811.582	28968
811.724	28862
811.865	28904
812.007	28812
812.148	28820
812.29	28968
812.431	29113
812.573	29151
812.714	29200
812.855	29318
812.997	29448
813.138	29608
813.279	29493
813.421	29387
813.562	29341
813.703	29162
813.845	29052
813.986	28725
814.127	28584
814.268	28527
814.41	28538
814.551	28531
814.692	28634
814.833	28356
814.974	28523
815.115	28500
815.256	28325
815.397	28550
815.539	28478
815.68	28280
815.821	28291
815.962	28363
816.103	28356
816.244	28188
816.385	28188
816.526	28131
816.666	27888
816.807	27770
816.948	28048
817.089	27895
817.23	27698
817.371	27895
817.512	27732
817.653	27751
817.793	27759
817.934	27861
818.075	27793
818.216	27865
818.356	27724
818.497	27667
818.638	27336
818.778	27739
818.919	27534
819.06	27595
819.2	27762
819.341	27797
819.481	27743
819.622	27922
819.762	28059
819.903	28090
820.043	28109
820.184	28017
820.324	27998
820.465	27968
820.605	27979
820.746	28074
820.886	27937
821.026	27953
821.167	27789
821.307	28044
821.447	27861
821.588	27720
821.728	27553
821.868	27709
822.008	27412
822.149	27401
822.289	27256
822.429	26990
822.569	26975
822.709	27039
822.849	26849
822.99	26895
823.13	26758
823.27	26636
823.41	26609
823.55	26453
823.69	26575
823.83	26606
823.97	26579
824.11	26419
824.25	26530
824.389	26514
824.529	26602
824.669	26507
824.809	26552
824.949	26708
825.089	26484
825.228	26480
825.368	26176
825.508	26370
825.648	26396
825.787	26438
825.927	26370
826.067	26256
826.206	26393
826.346	26343
826.485	26423
826.625	26332
826.765	26629
826.904	26320
827.044	26168
827.183	26062
827.323	26035
827.462	26218
827.601	26069
827.741	26001
827.88	26103
828.02	26024
828.159	25936
828.298	25928
828.437	26145
828.577	26008
828.716	26145
828.855	26016
828.994	25963
829.134	25818
829.273	25814
829.412	25780
829.551	25468
829.69	25746
829.829	25742
829.968	25723
830.107	25818
830.246	25753
830.385	25609
830.524	25571
830.663	25464
830.802	25457
830.941	25304
831.08	25270
831.219	25457
831.357	25445
831.496	25518
831.635	25369
831.774	25175
831.913	25209
832.051	25164
832.19	25114
832.329	25168
832.467	25046
832.606	24939
832.744	24943
832.883	24977
833.022	25069
833.16	24973
833.299	25148
833.437	25084
833.576	24924
833.714	25133
833.852	25091
833.991	25122
834.129	25107
834.267	25187
834.406	25019
834.544	25126
834.682	25095
834.821	25046
834.959	25209
835.097	25141
835.235	24981
835.373	25148
835.511	25034
835.65	24935
835.788	24951
835.926	24852
836.064	24814
836.202	24703
836.34	24916
836.478	25061
836.615	24886
836.753	25012
836.891	24996
837.029	24806
837.167	24859
837.305	24943
837.443	24795
837.58	24825
837.718	24875
837.856	24684
837.993	24635
838.131	24684
838.269	24623
838.406	24764
838.544	24707
838.681	24319
838.819	24376
838.956	24289
839.094	24163
839.231	24315
839.369	24384
839.506	24658
839.643	24490
839.781	24152
839.918	24251
840.055	24064
840.193	24144
840.33	24163
840.467	24117
840.604	24186
840.742	24380
840.879	24038
841.016	23973
841.153	23859
841.29	24304
841.427	24117
841.564	24079
841.701	24098
841.838	24140
841.975	24057
842.112	23969
842.249	24060
842.385	23710
842.522	24163
842.659	23977
842.796	24026
842.933	23927
843.069	23619
843.206	23722
843.343	23984
843.479	23946
843.616	23992
843.752	23707
843.889	23684
844.025	23824
844.162	23657
844.298	23680
844.435	23783
844.571	23649
844.708	23646
844.844	23836
844.98	23813
845.117	23817
845.253	23573
845.389	23531
845.525	23547
845.661	23436
845.798	23402
845.934	23471
846.07	23512
846.206	23280
846.342	23421
846.478	23296
846.614	23109
846.75	23246
846.886	23239
847.022	23200
847.158	23197
847.294	23067
847.429	23193
847.565	23185
847.701	23341
847.837	22809
847.972	22835
848.108	22968
848.244	22957
848.379	22645
848.515	22622
848.65	22664
848.786	22656
848.921	22881
849.057	22767
849.192	22706
849.328	22809
849.463	22713
849.598	22618
849.734	22721
849.869	22508
850.004	22485
850.14	22413
850.275	22424
850.41	22409
850.545	22360
850.68	22611
850.815	22447
850.95	22500
851.085	22725
851.22	22664
851.355	22447
851.49	22459
851.625	22470
851.76	22462
851.895	22363
852.03	22474
852.165	22360
852.299	22462
852.434	22573
852.569	22535
852.703	22523
852.838	22413
852.973	22603
853.107	22573
853.242	22481
853.376	22386
853.511	22268
853.645	22162
853.78	22276
853.914	22246
854.048	22207
854.183	22215
854.317	22276
854.451	22440
854.585	22314
854.72	22329
854.854	22402
854.988	22093
855.122	22303
855.256	22299
855.39	22242
855.524	22356
855.658	22265
855.792	22360
855.926	22344
856.06	22390
856.194	22287
856.327	22268
856.461	22268
856.595	22272
856.729	22280
856.862	22382
856.996	22265
857.13	22291
857.263	22379
857.397	22424
857.53	22318
857.664	22265
857.797	22310
857.931	22443
858.064	22242
858.197	22329
858.331	22295
858.464	22177
858.597	22101
858.731	22265
858.864	22303
858.997	22181
859.13	22192
859.263	22344
859.396	22341
859.529	22265
859.662	22287
859.795	22143
859.928	22268
860.061	22432
860.194	22474
860.327	22413
860.46	22333
860.592	22352
860.725	22443
860.858	22432
860.99	22223
861.123	22131
861.256	22238
861.388	22344
861.521	22968
861.653	22226
861.786	22067
861.918	22200
862.05	22059
862.183	22143
862.315	22223
862.447	22284
862.58	22162
862.712	22116
862.844	21918
862.976	22200
863.108	22040
863.24	22428
863.372	21915
863.504	22048
863.636	21960
863.768	22188
863.9	21934
864.032	21884
864.164	21979
864.296	21983
864.428	22006
864.559	22112
864.691	22086
864.823	22006
864.954	21857
865.086	21941
865.217	21842
865.349	21743
865.48	21956
865.612	21945
865.743	21941
865.875	21956
866.006	21804
866.137	22010
866.269	21915
866.4	21949
866.531	21854
866.662	21736
866.793	21785
866.924	21838
867.055	21949
867.186	21934
867.317	21747
867.448	21762
867.579	21785
867.71	21713
867.841	21720
867.972	21766
868.103	21751
868.233	21808
868.364	21797
868.495	21926
868.625	22090
868.756	22131
868.886	22078
869.017	22006
869.147	22112
869.278	22139
869.408	22109
869.539	22093
869.669	22135
869.799	22109
869.929	22181
870.06	22272
870.19	22261
870.32	22409
870.45	22451
870.58	22382
870.71	22459
870.84	22512
870.97	22379
871.1	22440
871.23	22713
871.36	22698
871.489	22474
871.619	22641
871.749	22637
871.879	22710
872.008	22713
872.138	22596
872.267	22675
872.397	22466
872.526	22592
872.656	22493
872.785	22436
872.915	22687
873.044	22691
873.173	22660
873.303	22793
873.432	22618
873.561	22683
873.69	22717
873.819	22618
873.948	22885
874.077	22717
874.206	22603
874.335	22584
874.464	22786
874.593	23010
874.722	22885
874.851	22919
874.979	22923
875.108	22991
875.237	22965
875.365	22824
875.494	22854
875.623	22911
875.751	22862
875.88	23033
876.008	23064
876.136	23071
876.265	23376
876.393	23372
876.521	23341
876.65	23341
876.778	23326
876.906	23227
877.034	23379
877.162	23318
877.29	23174
877.418	23296
877.546	23364
877.674	23258
877.802	23261
877.93	23265
878.058	23079
878.185	23094
878.313	23086
878.441	23269
878.568	23090
878.696	23147
878.824	23189
878.951	23311
879.079	23284
879.206	23467
879.333	23482
879.461	23299
879.588	23296
879.715	23296
879.842	23520
879.97	23299
880.097	23094
880.224	23052
880.351	23075
880.478	23121
880.605	22934
880.732	22953
880.859	23155
880.986	23018
881.112	23075
881.239	22892
881.366	22889
881.493	22668
881.619	22637
881.746	22672
881.872	22649
881.999	22527
882.125	22634
882.252	22618
882.378	22584
882.505	22637
882.631	22436
882.757	22341
882.883	22394
883.01	22295
883.136	22261
883.262	22192
883.388	22078
883.514	22360
883.64	22265
883.766	22177
883.892	22093
884.018	22097
884.143	22223
884.269	22402
884.395	21922
884.52	21869
884.646	21991
884.772	21831
884.897	21934
885.023	21972
885.148	21983
885.274	22124
885.399	21937
885.524	21983
885.65	22002
885.775	21857
885.9	21991
886.025	21968
886.15	21869
886.275	22017
886.4	21899
886.525	21899
886.65	21937
886.775	21766
886.9	21956
887.025	22048
887.149	21956
887.274	21641
887.399	21694
887.523	21686
887.648	21724
887.773	21511
887.897	21743
888.021	21743
888.146	21629
888.27	21808
888.395	21850
888.519	21778
888.643	21728
888.767	21701
888.891	21545
889.015	21504
889.139	21572
889.263	21431
889.387	21580
889.511	21652
889.635	21610
889.759	21526
889.883	21481
890.006	21416
890.13	21587
890.254	21401
890.377	21405
890.501	21230
890.624	21165
890.748	21214
890.871	21264
890.995	21020
891.118	20971
891.241	21104
891.364	21100
891.488	20967
891.611	21131
891.734	20982
891.857	21112
891.98	20982
892.103	21036
892.226	21066
892.349	21089
892.471	20746
892.594	20895
892.717	20990
892.839	20861
892.962	20948
893.085	21005
893.207	20906
893.33	20830
893.452	20754
893.575	20990
893.697	20906
893.819	21112
893.941	21142
894.064	21157
894.186	20830
894.308	20762
894.43	20956
894.552	21096
894.674	20956
894.796	20758
894.918	20902
895.04	20929
895.161	21013
895.283	20941
895.405	20857
895.526	21024
895.648	20872
895.769	20979
895.891	20933
896.012	21138
896.134	20971
896.255	20986
896.376	20826
896.498	20906
896.619	20986
896.74	20895
896.861	21074
896.982	21119
897.103	21351
897.224	21233
897.345	21230
897.466	21138
897.587	21188
897.708	21237
897.828	21116
897.949	21085
898.07	20990
898.19	21047
898.311	21127
898.431	20975
898.552	21100
898.672	21241
898.792	21207
898.913	21100
899.033	20963
899.153	20830
899.273	20887
899.393	20815
899.513	20880
899.633	20918
899.753	20815
899.873	20914
899.993	20845
900.113	20792
900.232	20849
900.352	20731
900.472	20655
900.591	20590
900.711	20648
900.83	20594
900.95	20644
901.069	20731
901.189	20537
901.308	20355
901.427	20214
901.546	20134
901.665	20294
901.784	20107
901.904	20012
902.023	20122
902.141	19757
902.26	19830
902.379	19791
902.498	19750
902.617	19632
902.735	19849
902.854	19666
902.973	19582
903.091	19426
903.21	19259
903.328	19362
903.446	19339
903.565	19099
903.683	19240
903.801	19065
903.919	19126
904.038	19095
904.156	18920
904.274	18905
904.392	18829
904.51	18954
904.627	18920
904.745	18863
904.863	19076
904.981	18776
905.098	18502
905.216	18620
905.334	18517
905.451	18654
905.569	18547
905.686	18635
905.803	18483
905.921	18357
906.038	18502
906.155	18403
906.272	18270
906.389	18338
906.506	18129
906.623	18110
906.74	18186
906.857	17965
906.974	17999
907.091	18053
907.208	18262
907.324	18072
907.441	17958
907.557	17836
907.674	17840
907.79	17779
907.907	17794
908.023	17783
908.139	17771
908.256	17756
908.372	17726
908.488	17786
908.604	17547
908.72	17570
908.836	17615
908.952	17467
909.068	17585
909.184	17699
909.3	17486
909.415	17551
909.531	17520
909.647	17307
909.762	17334
909.878	17083
909.993	17265
910.108	17235
910.224	17231
910.339	17170
910.454	17109
910.57	17006
910.685	16942
910.8	17265
910.915	17197
911.03	17064
911.145	16801
911.259	16691
911.374	16790
911.489	16679
911.604	16694
911.718	16596
911.833	16569
911.947	16493
912.062	16424
912.176	16573
912.291	16542
912.405	16493
912.519	16717
912.633	16752
912.748	16588
912.862	16527
912.976	16390
913.09	16291
913.204	16280
913.318	16466
913.431	16519
913.545	16466
913.659	16470
913.772	16257
913.886	16147
914	16082
914.113	16272
914.226	16318
914.34	16246
914.453	16067
914.566	16204
914.68	15960
914.793	15983
914.906	15793
915.019	15747
915.132	15637
915.245	15766
915.358	15819
915.47	15675
915.583	15732
915.696	15682
915.809	15884
915.921	15880
916.034	15686
916.146	15637
916.259	15686
916.371	15633
916.483	15728
916.595	15519
916.708	15564
916.82	15606
916.932	15515
917.044	15557
917.156	15538
917.268	15428
917.38	15450
917.491	15435
917.603	15340
917.715	15492
917.826	15359
917.938	15165
918.049	15222
918.161	15363
918.272	15443
918.384	15454
918.495	15256
918.606	15127
918.717	15001
918.828	15218
918.939	15127
919.05	15039
919.161	15097
919.272	14853
919.383	14994
919.494	15085
919.604	15218
919.715	15097
919.826	14990
919.936	15116
920.047	15157
920.157	15100
920.267	15150
920.378	15085
920.488	14986
920.598	15211
920.708	15488
920.818	15081
920.928	15173
921.038	15424
921.148	15268
921.258	15074
921.368	14883
921.477	14785
921.587	14739
921.697	14663
921.806	14857
921.916	14552
922.025	14484
922.134	14377
922.244	14415
922.353	14473
922.462	14343
922.571	14218
922.68	14088
922.789	14088
922.898	14119
923.007	14001
923.116	14065
923.224	14031
923.333	13909
923.442	13936
923.55	13826
923.659	13974
923.767	13871
923.876	13784
923.984	13947
924.092	13727
924.201	13795
924.309	13803
924.417	13772
924.525	13715
924.633	13761
924.741	14499
924.849	13514
924.956	13624
925.064	13449
925.172	13373
925.279	13403
925.387	13388
925.494	13502
925.602	13575
925.709	13445
925.816	13308
925.924	13400
926.031	13445
926.138	13381
926.245	13480
926.352	13209
926.459	13312
926.566	13521
926.673	13282
926.779	13168
926.886	13168
926.993	13091
927.099	13038
927.206	12970
927.312	12985
927.419	13069
927.525	13053
927.631	13091
927.737	12878
927.843	12776
927.95	12844
928.056	12833
928.162	12852
928.267	12798
928.373	13529
928.479	12829
928.585	12650
928.69	12798
928.796	12779
928.901	12642
929.007	12532
929.112	12757
929.218	12623
929.323	12540
929.428	12528
929.533	12616
929.638	12498
929.743	12490
929.848	12509
929.953	12452
930.058	12399
930.163	12121
930.267	12201
930.372	12426
930.477	12125
930.581	12391
930.685	12262
930.79	12057
930.894	12129
930.998	12049
931.103	12136
931.207	11882
931.311	11752
931.415	11684
931.519	11467
931.623	11448
