Data from test_V78500241_3517.txt Node
Date: Fri Mar 25 16:06:09 CST 2022
User: usil
Spectrometer: V785-0024
Trigger mode: 0
Integration Time (sec): 4.000000E-1
Scans to average: 1
Nonlinearity correction enabled: false
Boxcar width: 0
Storing dark spectrum: false
XAxis mode: Wavelengths
Number of Pixels in Spectrum: 1024
>>>>>Begin Spectral Data<<<<<
801.071	28805
801.214	28752
801.356	28462
801.499	28474
801.641	28424
801.783	28382
801.926	28398
802.068	28295
802.211	28261
802.353	28230
802.496	28314
802.638	27964
802.78	27953
802.923	27934
803.065	28147
803.208	27994
803.35	28070
803.492	28234
803.635	28177
803.777	28059
803.919	28223
804.061	28550
804.204	28287
804.346	28158
804.488	28215
804.63	28249
804.773	28078
804.915	28352
805.057	28542
805.199	28249
805.341	28371
805.483	28478
805.626	28474
805.768	28409
805.91	28459
806.052	28405
806.194	28443
806.336	28634
806.478	28493
806.62	28295
806.762	28698
806.904	28656
807.046	28900
807.188	29022
807.33	28908
807.472	28908
807.614	28858
807.756	28809
807.898	28812
808.04	28713
808.182	28740
808.324	28771
808.465	28683
808.607	29086
808.749	29018
808.891	29265
809.033	29227
809.174	29239
809.316	29086
809.458	29098
809.6	29079
809.741	29079
809.883	29356
810.025	29421
810.166	29364
810.308	29269
810.45	29280
810.591	29315
810.733	29292
810.875	29048
811.016	29086
811.158	28927
811.299	29227
811.441	29223
811.582	29311
811.724	29220
811.865	29124
812.007	29181
812.148	29178
812.29	29170
812.431	29353
812.573	29539
812.714	29592
812.855	29741
812.997	29779
813.138	29946
813.279	29843
813.421	29741
813.562	29649
813.703	29410
813.845	29391
813.986	29060
814.127	28961
814.268	28892
814.41	28987
814.551	28915
814.692	28957
814.833	28763
814.974	28801
815.115	28858
815.256	28774
815.397	28755
815.539	28698
815.68	28653
815.821	28546
815.962	28664
816.103	28687
816.244	28649
816.385	28428
816.526	28455
816.666	28322
816.807	28192
816.948	28242
817.089	28116
817.23	28287
817.371	28200
817.512	28154
817.653	28074
817.793	28082
817.934	28162
818.075	28188
818.216	28234
818.356	28238
818.497	28196
818.638	27934
818.778	27930
818.919	27937
819.06	28021
819.2	28013
819.341	28109
819.481	28226
819.622	28287
819.762	28561
819.903	28546
820.043	28394
820.184	28280
820.324	28386
820.465	28409
820.605	28230
820.746	28337
820.886	28044
821.026	28409
821.167	28344
821.307	28348
821.447	28185
821.588	28173
821.728	27907
821.868	27945
822.008	27728
822.149	27701
822.289	27682
822.429	27359
822.569	27393
822.709	27344
822.849	27230
822.99	27226
823.13	27131
823.27	26982
823.41	26971
823.55	26739
823.69	26940
823.83	27104
823.97	27001
824.11	26834
824.25	26785
824.389	26697
824.529	26773
824.669	26777
824.809	26948
824.949	26876
825.089	26880
825.228	26944
825.368	26678
825.508	26697
825.648	26731
825.787	26648
825.927	26815
826.067	26708
826.206	26724
826.346	26674
826.485	26762
826.625	26613
826.765	26948
826.904	26777
827.044	26526
827.183	26495
827.323	26522
827.462	26415
827.601	26465
827.741	26453
827.88	26450
828.02	26336
828.159	26377
828.298	26499
828.437	26427
828.577	26358
828.716	26453
828.855	26328
828.994	26221
829.134	26176
829.273	26081
829.412	25936
829.551	26077
829.69	26069
829.829	26164
829.968	26275
830.107	26142
830.246	26126
830.385	26100
830.524	26084
830.663	26005
830.802	25799
830.941	25928
831.08	25772
831.219	25849
831.357	25845
831.496	26027
831.635	25708
831.774	25544
831.913	25632
832.051	25548
832.19	25479
832.329	25594
832.467	25316
832.606	25400
832.744	25335
832.883	25278
833.022	25392
833.16	25228
833.299	25403
833.437	25434
833.576	25392
833.714	25419
833.852	25422
833.991	25556
834.129	25662
834.267	25502
834.406	25476
834.544	25430
834.682	25510
834.821	25537
834.959	25537
835.097	25384
835.235	25582
835.373	25479
835.511	25304
835.65	25190
835.788	25327
835.926	25202
836.064	25088
836.202	25206
836.34	25411
836.478	25377
836.615	25293
836.753	25362
836.891	25396
837.029	25339
837.167	25217
837.305	25247
837.443	25213
837.58	25050
837.718	25129
837.856	25148
837.993	25012
838.131	25091
838.269	24939
838.406	24977
838.544	24939
838.681	24882
838.819	24734
838.956	24566
839.094	24547
839.231	24604
839.369	24829
839.506	25038
839.643	24741
839.781	24547
839.918	24494
840.055	24631
840.193	24513
840.33	24460
840.467	24433
840.604	24563
840.742	24814
840.879	24304
841.016	24304
841.153	24422
841.29	24544
841.427	24471
841.564	24388
841.701	24410
841.838	24399
841.975	24441
842.112	24418
842.249	24281
842.385	24300
842.522	24521
842.659	24251
842.796	24224
842.933	24178
843.069	24110
843.206	24167
843.343	24213
843.479	24270
843.616	24182
843.752	23969
843.889	23904
844.025	24190
844.162	23954
844.298	24057
844.435	23961
844.571	23984
844.708	24018
844.844	24026
844.98	24205
845.117	24106
845.253	23946
845.389	23817
845.525	23931
845.661	23878
845.798	23672
845.934	23790
846.07	23642
846.206	23817
846.342	23874
846.478	23726
846.614	23543
846.75	23467
846.886	23505
847.022	23604
847.158	23615
847.294	23417
847.429	23535
847.565	23414
847.701	23714
847.837	23220
847.972	23280
848.108	23269
848.244	23166
848.379	22953
848.515	22953
848.65	22987
848.786	23083
848.921	23117
849.057	23025
849.192	23159
849.328	23102
849.463	23162
849.598	23041
849.734	22900
849.869	22946
850.004	22850
850.14	22786
850.275	22812
850.41	22790
850.545	22725
850.68	22816
850.815	22831
850.95	22797
851.085	23109
851.22	23052
851.355	22843
851.49	22908
851.625	22691
851.76	22733
851.895	22618
852.03	22618
852.165	22778
852.299	22850
852.434	22847
852.569	22854
852.703	22889
852.838	22968
852.973	22911
853.107	22847
853.242	22809
853.376	22626
853.511	22611
853.645	22599
853.78	22713
853.914	22626
854.048	22630
854.183	22649
854.317	22577
854.451	22892
854.585	22691
854.72	22778
854.854	22675
854.988	22538
855.122	22668
855.256	22500
855.39	22512
855.524	22759
855.658	22618
855.792	22664
855.926	22710
856.06	22835
856.194	22660
856.327	22459
856.461	22626
856.595	22519
856.729	22599
856.862	22656
856.996	22649
857.13	22729
857.263	22710
857.397	22801
857.53	22713
857.664	22672
857.797	22668
857.931	22656
858.064	22561
858.197	22664
858.331	22603
858.464	22519
858.597	22481
858.731	22523
858.864	22622
858.997	22615
859.13	22679
859.263	22584
859.396	22683
859.529	22519
859.662	22660
859.795	22588
859.928	22691
860.061	22710
860.194	22835
860.327	22694
860.46	22812
860.592	22824
860.725	22816
860.858	22759
860.99	22691
861.123	22546
861.256	22592
861.388	22618
861.521	23345
861.653	22417
861.786	22428
861.918	22459
862.05	22546
862.183	22535
862.315	22538
862.447	22691
862.58	22580
862.712	22219
862.844	22398
862.976	22497
863.108	22508
863.24	22645
863.372	22185
863.504	22329
863.636	22272
863.768	22405
863.9	22230
864.032	22424
864.164	22226
864.296	22329
864.428	22360
864.559	22500
864.691	22348
864.823	22398
864.954	22207
865.086	22344
865.217	22185
865.349	22120
865.48	22204
865.612	22135
865.743	22329
865.875	22276
866.006	22192
866.137	22063
866.269	22173
866.4	22185
866.531	22173
866.662	22029
866.793	22063
866.924	22101
867.055	22143
867.186	22169
867.317	22207
867.448	22074
867.579	22040
867.71	22097
867.841	22025
867.972	22223
868.103	22074
868.233	22128
868.364	22093
868.495	22284
868.625	22352
868.756	22428
868.886	22219
869.017	22413
869.147	22459
869.278	22485
869.408	22344
869.539	22325
869.669	22447
869.799	22531
869.929	22417
870.06	22428
870.19	22675
870.32	22668
870.45	22755
870.58	22755
870.71	22778
870.84	22862
870.97	22672
871.1	22740
871.23	23014
871.36	22858
871.489	22850
871.619	23029
871.749	22900
871.879	23014
872.008	23090
872.138	23029
872.267	22961
872.397	22721
872.526	22820
872.656	22706
872.785	22763
872.915	23041
873.044	23075
873.173	22927
873.303	22961
873.432	23025
873.561	23136
873.69	22934
873.819	22904
873.948	23094
874.077	23064
874.206	23003
874.335	23014
874.464	23117
874.593	23239
874.722	23181
874.851	23250
874.979	23288
875.108	23212
875.237	23113
875.365	23102
875.494	23166
875.623	23337
875.751	23220
875.88	23178
876.008	23326
876.136	23387
876.265	23634
876.393	23707
876.521	23737
876.65	23604
876.778	23524
876.906	23615
877.034	23531
877.162	23604
877.29	23471
877.418	23642
877.546	23581
877.674	23482
877.802	23581
877.93	23566
878.058	23440
878.185	23353
878.313	23391
878.441	23551
878.568	23398
878.696	23505
878.824	23611
878.951	23585
879.079	23676
879.206	23863
879.333	23661
879.461	23619
879.588	23680
879.715	23695
879.842	23893
879.97	23703
880.097	23436
880.224	23284
880.351	23360
880.478	23429
880.605	23383
880.732	23330
880.859	23611
880.986	23273
881.112	23349
881.239	23178
881.366	23033
881.493	22991
881.619	22953
881.746	23022
881.872	22946
881.999	22873
882.125	22786
882.252	22965
882.378	22854
882.505	23056
882.631	22755
882.757	22778
882.883	22672
883.01	22641
883.136	22557
883.262	22493
883.388	22459
883.514	22649
883.64	22573
883.766	22531
883.892	22485
884.018	22371
884.143	22474
884.269	22634
884.395	22318
884.52	22055
884.646	22200
884.772	22169
884.897	22223
885.023	22177
885.148	22207
885.274	22303
885.399	22363
885.524	22219
885.65	22318
885.775	22344
885.9	22196
886.025	22402
886.15	22337
886.275	22143
886.4	22082
886.525	22223
886.65	22040
886.775	22086
886.9	22310
887.025	22428
887.149	22215
887.274	22116
887.399	22021
887.523	21907
887.648	21899
887.773	21884
887.897	22116
888.021	21972
888.146	21915
888.27	22093
888.395	22120
888.519	21991
888.643	22090
888.767	22154
888.891	21816
889.015	21774
889.139	21762
889.263	21778
889.387	21854
889.511	21998
889.635	21873
889.759	21732
889.883	21747
890.006	21800
890.13	21873
890.254	21819
890.377	21717
890.501	21599
890.624	21454
890.748	21622
890.871	21462
890.995	21397
891.118	21142
891.241	21279
891.364	21325
891.488	21412
891.611	21370
891.734	21416
891.857	21275
891.98	21279
892.103	21302
892.226	21363
892.349	21317
892.471	21169
892.594	21230
892.717	21245
892.839	21138
892.962	21214
893.085	21313
893.207	21211
893.33	21066
893.452	21104
893.575	21291
893.697	21211
893.819	21424
893.941	21412
894.064	21260
894.186	21195
894.308	21138
894.43	21401
894.552	21420
894.674	21184
894.796	21199
894.918	21142
895.04	21192
895.161	21264
895.283	21211
895.405	21074
895.526	21214
895.648	21199
895.769	21306
895.891	21192
896.012	21214
896.134	21230
896.255	21222
896.376	21218
896.498	21180
896.619	21119
896.74	21154
896.861	21283
896.982	21439
897.103	21682
897.224	21458
897.345	21389
897.466	21355
897.587	21408
897.708	21485
897.828	21428
897.949	21302
898.07	21119
898.19	21230
898.311	21485
898.431	21298
898.552	21382
898.672	21382
898.792	21310
898.913	21370
899.033	21401
899.153	21188
899.273	21176
899.393	21173
899.513	21074
899.633	21138
899.753	21051
899.873	20986
899.993	21173
900.113	21024
900.232	21150
900.352	21093
900.472	20948
900.591	20781
900.711	20921
900.83	20823
900.95	20857
901.069	21058
901.189	20887
901.308	20514
901.427	20415
901.546	20457
901.665	20412
901.784	20526
901.904	20355
902.023	20237
902.141	19986
902.26	20062
902.379	20039
902.498	19944
902.617	19970
902.735	19944
902.854	19898
902.973	19898
903.091	19742
903.21	19643
903.328	19696
903.446	19457
903.565	19506
903.683	19354
903.801	19297
903.919	19381
904.038	19365
904.156	19179
904.274	19270
904.392	19133
904.51	19088
904.627	19236
904.745	19209
904.863	19244
904.981	18962
905.098	18764
905.216	18798
905.334	18886
905.451	18798
905.569	18924
905.686	18916
905.803	18802
905.921	18551
906.038	18627
906.155	18703
906.272	18650
906.389	18544
906.506	18433
906.623	18350
906.74	18388
906.857	18243
906.974	18171
907.091	18407
907.208	18490
907.324	18372
907.441	18190
907.557	18076
907.674	18034
907.79	17996
907.907	18076
908.023	18186
908.139	18064
908.256	18034
908.372	17988
908.488	17973
908.604	17767
908.72	17668
908.836	17695
908.952	17676
909.068	17684
909.184	17859
909.3	17809
909.415	17756
909.531	17764
909.647	17558
909.762	17425
909.878	17417
909.993	17391
910.108	17368
910.224	17421
910.339	17478
910.454	17254
910.57	17277
910.685	17132
910.8	17463
910.915	17429
911.03	17296
911.145	17010
911.259	16984
911.374	17010
911.489	17045
911.604	17033
911.718	16767
911.833	16797
911.947	16698
912.062	16717
912.176	16812
912.291	16835
912.405	16793
912.519	16965
912.633	16976
912.748	16774
912.862	16698
912.976	16634
913.09	16447
913.204	16653
913.318	16573
913.431	16618
913.545	16733
913.659	16717
913.772	16523
913.886	16432
914	16363
914.113	16538
914.226	16478
914.34	16413
914.453	16219
914.566	16352
914.68	16272
914.793	16131
914.906	16044
915.019	16036
915.132	15816
915.245	15945
915.358	15892
915.47	16025
915.583	15979
915.696	16013
915.809	16074
915.921	16147
916.034	15892
916.146	15804
916.259	15816
916.371	15865
916.483	15816
916.595	15835
916.708	15717
916.82	15720
916.932	15694
917.044	15720
917.156	15728
917.268	15576
917.38	15576
917.491	15618
917.603	15481
917.715	15633
917.826	15686
917.938	15603
918.049	15428
918.161	15561
918.272	15724
918.384	15618
918.495	15466
918.606	15367
918.717	15207
918.828	15355
918.939	15351
919.05	15237
919.161	15279
919.272	15051
919.383	15184
919.494	15351
919.604	15435
919.715	15298
919.826	15089
919.936	15226
920.047	15424
920.157	15264
920.267	15431
920.378	15291
920.488	15218
920.598	15431
920.708	15485
920.818	15344
920.928	15298
921.038	15454
921.148	15481
921.258	15241
921.368	15051
921.477	15024
921.587	14933
921.697	14899
921.806	14998
921.916	14895
922.025	14632
922.134	14575
922.244	14549
922.353	14617
922.462	14473
922.571	14484
922.68	14301
922.789	14233
922.898	14313
923.007	14218
923.116	14347
923.224	14282
923.333	14157
923.442	14096
923.55	14088
923.659	14008
923.767	14123
923.876	14081
923.984	14096
924.092	13970
924.201	14058
924.309	14016
924.417	13963
924.525	13902
924.633	13887
924.741	14796
924.849	13761
924.956	13883
925.064	13582
925.172	13616
925.279	13628
925.387	13639
925.494	13647
925.602	13860
925.709	13666
925.816	13487
925.924	13510
926.031	13658
926.138	13514
926.245	13685
926.352	13453
926.459	13594
926.566	13571
926.673	13529
926.779	13487
926.886	13259
926.993	13225
927.099	13202
927.206	13099
927.312	13183
927.419	13225
927.525	13171
927.631	13168
927.737	13072
927.843	13072
927.95	12829
928.056	13000
928.162	13023
928.267	13019
928.373	13605
928.479	13084
928.585	12814
928.69	12943
928.796	12882
928.901	12939
929.007	12711
929.112	12890
929.218	12764
929.323	12650
929.428	12654
929.533	12768
929.638	12635
929.743	12658
929.848	12627
929.953	12650
930.058	12620
930.163	12327
930.267	12441
930.372	12513
930.477	12353
930.581	12471
930.685	12395
930.79	12178
930.894	12270
930.998	12201
931.103	12319
931.207	12019
931.311	11920
931.415	11908
931.519	11589
931.623	11543
