Data from test_V78500241_45.txt Node
Date: Fri Mar 25 15:42:06 CST 2022
User: usil
Spectrometer: V785-0024
Trigger mode: 0
Integration Time (sec): 4.000000E-1
Scans to average: 1
Nonlinearity correction enabled: false
Boxcar width: 0
Storing dark spectrum: false
XAxis mode: Wavelengths
Number of Pixels in Spectrum: 1024
>>>>>Begin Spectral Data<<<<<
801.071	28710
801.214	28645
801.356	28356
801.499	28261
801.641	28276
801.783	28162
801.926	28299
802.068	28109
802.211	28162
802.353	27869
802.496	27873
802.638	27800
802.78	27812
802.923	27728
803.065	27591
803.208	27644
803.35	27876
803.492	28025
803.635	27918
803.777	27861
803.919	27869
804.061	28128
804.204	27781
804.346	27762
804.488	27831
804.63	27785
804.773	27572
804.915	27789
805.057	27766
805.199	27595
805.341	27823
805.483	27892
805.626	27850
805.768	27739
805.91	27937
806.052	27941
806.194	27717
806.336	27994
806.478	27937
806.62	27926
806.762	28013
806.904	28032
807.046	28459
807.188	28196
807.33	28162
807.472	28322
807.614	28246
807.756	28242
807.898	27960
808.04	27945
808.182	28086
808.324	28124
808.465	27968
808.607	28207
808.749	28261
808.891	28459
809.033	28550
809.174	28337
809.316	28337
809.458	28413
809.6	28166
809.741	28497
809.883	28440
810.025	28653
810.166	28580
810.308	28588
810.45	28561
810.591	28447
810.733	28379
810.875	28295
811.016	28139
811.158	28200
811.299	28322
811.441	28386
811.582	28459
811.724	28185
811.865	28207
812.007	28325
812.148	28223
812.29	28318
812.431	28386
812.573	28478
812.714	28584
812.855	28679
812.997	28687
813.138	29018
813.279	28980
813.421	28687
813.562	28653
813.703	28500
813.845	28386
813.986	28086
814.127	27785
814.268	27831
814.41	27759
814.551	27842
814.692	27899
814.833	27766
814.974	27679
815.115	27865
815.256	27614
815.397	27568
815.539	27641
815.68	27549
815.821	27447
815.962	27603
816.103	27424
816.244	27439
816.385	27233
816.526	27214
816.666	27055
816.807	26872
816.948	27039
817.089	27074
817.23	26929
817.371	26792
817.512	26823
817.653	26876
817.793	26746
817.934	26872
818.075	26800
818.216	26838
818.356	26872
818.497	26731
818.638	26571
818.778	26530
818.919	26587
819.06	26697
819.2	26735
819.341	26765
819.481	26609
819.622	26876
819.762	26975
819.903	26963
820.043	26918
820.184	26811
820.324	26864
820.465	26937
820.605	26906
820.746	26773
820.886	26537
821.026	26712
821.167	26727
821.307	26872
821.447	26686
821.588	26663
821.728	26526
821.868	26389
822.008	26130
822.149	26142
822.289	26126
822.429	25978
822.569	25966
822.709	25841
822.849	25715
822.99	25677
823.13	25616
823.27	25655
823.41	25518
823.55	25499
823.69	25445
823.83	25430
823.97	25335
824.11	25175
824.25	25088
824.389	25266
824.529	25266
824.669	25225
824.809	25293
824.949	25369
825.089	25190
825.228	25179
825.368	25107
825.508	25091
825.648	25008
825.787	25019
825.927	25004
826.067	24905
826.206	24932
826.346	25023
826.485	25012
826.625	24951
826.765	25061
826.904	24871
827.044	24825
827.183	24764
827.323	24593
827.462	24760
827.601	24612
827.741	24593
827.88	24684
828.02	24513
828.159	24563
828.298	24547
828.437	24616
828.577	24475
828.716	24711
828.855	24521
828.994	24460
829.134	24289
829.273	24319
829.412	24190
829.551	24258
829.69	24369
829.829	24319
829.968	24319
830.107	24376
830.246	24216
830.385	24235
830.524	24129
830.663	24068
830.802	23897
830.941	23798
831.08	23805
831.219	23866
831.357	23840
831.496	24030
831.635	23752
831.774	23794
831.913	23600
832.051	23596
832.19	23653
832.329	23486
832.467	23341
832.606	23505
832.744	23417
832.883	23474
833.022	23421
833.16	23410
833.299	23330
833.437	23296
833.576	23543
833.714	23471
833.852	23486
833.991	23566
834.129	23501
834.267	23543
834.406	23459
834.544	23592
834.682	23467
834.821	23258
834.959	23463
835.097	23334
835.235	23433
835.373	23322
835.511	23417
835.65	23353
835.788	23128
835.926	23109
836.064	22942
836.202	23014
836.34	23269
836.478	23280
836.615	23147
836.753	23334
836.891	23368
837.029	23322
837.167	23166
837.305	23041
837.443	23121
837.58	23010
837.718	23143
837.856	23018
837.993	22953
838.131	22866
838.269	22965
838.406	22946
838.544	22820
838.681	22653
838.819	22656
838.956	22523
839.094	22535
839.231	22531
839.369	22592
839.506	22919
839.643	22675
839.781	22557
839.918	22421
840.055	22466
840.193	22413
840.33	22421
840.467	22443
840.604	22417
840.742	22588
840.879	22173
841.016	22268
841.153	22265
841.29	22554
841.427	22268
841.564	22329
841.701	22306
841.838	22272
841.975	22226
842.112	22295
842.249	22101
842.385	22097
842.522	22337
842.659	22162
842.796	22097
842.933	22051
843.069	22029
843.206	22017
843.343	22082
843.479	22032
843.616	22105
843.752	21831
843.889	21808
844.025	21915
844.162	21762
844.298	21846
844.435	21770
844.571	21770
844.708	21823
844.844	21987
844.98	21922
845.117	21880
845.253	21663
845.389	21610
845.525	21698
845.661	21652
845.798	21492
845.934	21557
846.07	21428
846.206	21458
846.342	21591
846.478	21515
846.614	21340
846.75	21195
846.886	21184
847.022	21340
847.158	21218
847.294	21249
847.429	21218
847.565	21116
847.701	21466
847.837	20891
847.972	20910
848.108	20941
848.244	21005
848.379	20830
848.515	20800
848.65	20735
848.786	20705
848.921	20769
849.057	20902
849.192	20788
849.328	20762
849.463	20891
849.598	20644
849.734	20724
849.869	20598
850.004	20438
850.14	20374
850.275	20419
850.41	20351
850.545	20404
850.68	20469
850.815	20533
850.95	20476
851.085	20731
851.22	20495
851.355	20514
851.49	20393
851.625	20301
851.76	20412
851.895	20408
852.03	20358
852.165	20556
852.299	20499
852.434	20522
852.569	20514
852.703	20495
852.838	20488
852.973	20625
853.107	20560
853.242	20370
853.376	20366
853.511	20168
853.645	20237
853.78	20469
853.914	20229
854.048	20309
854.183	20183
854.317	20218
854.451	20473
854.585	20221
854.72	20332
854.854	20317
854.988	20214
855.122	20385
855.256	20115
855.39	20199
855.524	20282
855.658	20305
855.792	20275
855.926	20221
856.06	20317
856.194	20377
856.327	20248
856.461	20149
856.595	20168
856.729	20317
856.862	20385
856.996	20237
857.13	20233
857.263	20381
857.397	20434
857.53	20267
857.664	20256
857.797	20278
857.931	20446
858.064	20187
858.197	20343
858.331	20119
858.464	20206
858.597	20138
858.731	20183
858.864	20176
858.997	20191
859.13	20168
859.263	20202
859.396	20145
859.529	20122
859.662	20096
859.795	20088
859.928	20172
860.061	20286
860.194	20427
860.327	20149
860.46	20271
860.592	20294
860.725	20271
860.858	20309
860.99	20172
861.123	20054
861.256	20119
861.388	20267
861.521	20731
861.653	20081
861.786	20065
861.918	20027
862.05	20054
862.183	20320
862.315	20294
862.447	20298
862.58	20187
862.712	20054
862.844	19951
862.976	19913
863.108	20035
863.24	20275
863.372	19791
863.504	19761
863.636	19932
863.768	19902
863.9	19830
864.032	19772
864.164	19788
864.296	19947
864.428	19887
864.559	19909
864.691	19989
864.823	19841
864.954	19852
865.086	19807
865.217	19780
865.349	19628
865.48	19811
865.612	19845
865.743	19868
865.875	19712
866.006	19742
866.137	19784
866.269	19830
866.4	19765
866.531	19742
866.662	19521
866.793	19670
866.924	19761
867.055	19772
867.186	19647
867.317	19727
867.448	19544
867.579	19628
867.71	19506
867.841	19628
867.972	19632
868.103	19696
868.233	19689
868.364	19696
868.495	19715
868.625	19883
868.756	20096
868.886	19875
869.017	19970
869.147	20001
869.278	20043
869.408	20020
869.539	19947
869.669	20043
869.799	19928
869.929	20115
870.06	20024
870.19	20252
870.32	20271
870.45	20362
870.58	20370
870.71	20495
870.84	20400
870.97	20210
871.1	20324
871.23	20427
871.36	20533
871.489	20339
871.619	20488
871.749	20537
871.879	20587
872.008	20590
872.138	20473
872.267	20571
872.397	20457
872.526	20343
872.656	20301
872.785	20400
872.915	20568
873.044	20686
873.173	20636
873.303	20667
873.432	20667
873.561	20682
873.69	20674
873.819	20609
873.948	20689
874.077	20537
874.206	20575
874.335	20541
874.464	20716
874.593	20823
874.722	20629
874.851	20815
874.979	20883
875.108	20948
875.237	20754
875.365	20720
875.494	20876
875.623	20887
875.751	20815
875.88	20826
876.008	20982
876.136	21093
876.265	21226
876.393	21351
876.521	21256
876.65	21336
876.778	21249
876.906	21119
877.034	21146
877.162	21142
877.29	21028
877.418	21093
877.546	21138
877.674	21199
877.802	21188
877.93	21180
878.058	21138
878.185	21058
878.313	21199
878.441	21249
878.568	21154
878.696	21169
878.824	21272
878.951	21329
879.079	21355
879.206	21447
879.333	21332
879.461	21066
879.588	21348
879.715	21397
879.842	21538
879.97	21252
880.097	21043
880.224	20971
880.351	20990
880.478	20994
880.605	20952
880.732	20952
880.859	21382
880.986	21036
881.112	20948
881.239	20960
881.366	20754
881.493	20686
881.619	20674
881.746	20651
881.872	20606
881.999	20598
882.125	20530
882.252	20651
882.378	20541
882.505	20796
882.631	20511
882.757	20446
882.883	20446
883.01	20377
883.136	20172
883.262	20214
883.388	20096
883.514	20370
883.64	20404
883.766	20298
883.892	20187
884.018	20221
884.143	20301
884.269	20454
884.395	20153
884.52	20050
884.646	19989
884.772	19978
884.897	19875
885.023	19978
885.148	20039
885.274	20103
885.399	20134
885.524	19871
885.65	19925
885.775	20001
885.9	19989
886.025	20119
886.15	19997
886.275	19936
886.4	19833
886.525	20005
886.65	19894
886.775	19921
886.9	20107
887.025	20183
887.149	19898
887.274	19807
887.399	19655
887.523	19674
887.648	19651
887.773	19529
887.897	19791
888.021	19818
888.146	19616
888.27	19746
888.395	19826
888.519	19719
888.643	19693
888.767	19769
888.891	19502
889.015	19472
889.139	19594
889.263	19464
889.387	19582
889.511	19708
889.635	19693
889.759	19499
889.883	19491
890.006	19559
890.13	19620
890.254	19422
890.377	19354
890.501	19320
890.624	19247
890.748	19381
890.871	19202
890.995	19118
891.118	18962
891.241	19194
891.364	19114
891.488	19266
891.611	19141
891.734	19099
891.857	19133
891.98	19202
892.103	19320
892.226	19141
892.349	19053
892.471	18856
892.594	19103
892.717	19034
892.839	18970
892.962	19012
893.085	19091
893.207	19050
893.33	18890
893.452	19103
893.575	19053
893.697	18962
893.819	19190
893.941	19251
894.064	19179
894.186	18977
894.308	19015
894.43	19057
894.552	19293
894.674	19145
894.796	19019
894.918	19076
895.04	19023
895.161	19183
895.283	19137
895.405	19008
895.526	19004
895.648	19015
895.769	19076
895.891	19118
896.012	19107
896.134	19126
896.255	19023
896.376	19012
896.498	19156
896.619	19171
896.74	19122
896.861	19206
896.982	19495
897.103	19506
897.224	19434
897.345	19346
897.466	19426
897.587	19457
897.708	19464
897.828	19320
897.949	19194
898.07	19114
898.19	19187
898.311	19400
898.431	19266
898.552	19270
898.672	19388
898.792	19449
898.913	19373
899.033	19034
899.153	19133
899.273	18954
899.393	19057
899.513	19187
899.633	18966
899.753	19141
899.873	18916
899.993	19042
900.113	18871
900.232	18970
900.352	18962
900.472	18817
900.591	18840
900.711	18856
900.83	18726
900.95	18905
901.069	18829
901.189	18844
901.308	18456
901.427	18460
901.546	18479
901.665	18544
901.784	18513
901.904	18372
902.023	18194
902.141	17996
902.26	17992
902.379	18030
902.498	17980
902.617	17870
902.735	18003
902.854	17824
902.973	17859
903.091	17589
903.21	17665
903.328	17608
903.446	17516
903.565	17455
903.683	17402
903.801	17261
903.919	17395
904.038	17406
904.156	17204
904.274	17292
904.392	17124
904.51	17193
904.627	17143
904.745	17242
904.863	17231
904.981	16999
905.098	16809
905.216	16748
905.334	16820
905.451	16850
905.569	16869
905.686	16847
905.803	16797
905.921	16736
906.038	16748
906.155	16615
906.272	16615
906.389	16546
906.506	16466
906.623	16462
906.74	16382
906.857	16310
906.974	16371
907.091	16459
907.208	16592
907.324	16375
907.441	16333
907.557	16158
907.674	16082
907.79	16082
907.907	16067
908.023	16055
908.139	16051
908.256	16048
908.372	15930
908.488	15983
908.604	15895
908.72	15724
908.836	15812
908.952	15705
909.068	15732
909.184	15816
909.3	15778
909.415	15728
909.531	15812
909.647	15538
909.762	15454
909.878	15481
909.993	15534
910.108	15374
910.224	15420
910.339	15454
910.454	15329
910.57	15291
910.685	15173
910.8	15549
910.915	15405
911.03	15287
911.145	15192
911.259	15077
911.374	15070
911.489	15017
911.604	14937
911.718	14849
911.833	14765
911.947	14811
912.062	14667
912.176	14861
912.291	14887
912.405	14864
912.519	14979
912.633	14906
912.748	14834
912.862	14781
912.976	14644
913.09	14476
913.204	14579
913.318	14617
913.431	14781
913.545	14579
913.659	14743
913.772	14617
913.886	14495
914	14320
914.113	14511
914.226	14629
914.34	14564
914.453	14366
914.566	14598
914.68	14317
914.793	14286
914.906	14161
915.019	14115
915.132	14077
915.245	14100
915.358	14134
915.47	14119
915.583	14077
915.696	14210
915.809	14202
915.921	14202
916.034	14020
916.146	14088
916.259	14035
916.371	14039
916.483	14077
916.595	13989
916.708	14020
916.82	13978
916.932	13940
917.044	13879
917.156	13883
917.268	13833
917.38	13761
917.491	13750
917.603	13791
917.715	13784
917.826	13818
917.938	13696
918.049	13647
918.161	13685
918.272	13803
918.384	13894
918.495	13647
918.606	13590
918.717	13487
918.828	13605
918.939	13563
919.05	13358
919.161	13468
919.272	13289
919.383	13327
919.494	13590
919.604	13799
919.715	13426
919.826	13441
919.936	13495
920.047	13506
920.157	13460
920.267	13639
920.378	13430
920.488	13403
920.598	13696
920.708	13776
920.818	13643
920.928	13571
921.038	13738
921.148	13601
921.258	13430
921.368	13350
921.477	13122
921.587	13308
921.697	13141
921.806	13259
921.916	13175
922.025	12920
922.134	12897
922.244	12886
922.353	12894
922.462	12768
922.571	12692
922.68	12555
922.789	12452
922.898	12521
923.007	12460
923.116	12517
923.224	12479
923.333	12460
923.442	12441
923.55	12350
923.659	12273
923.767	12422
923.876	12289
923.984	12437
924.092	12315
924.201	12235
924.309	12216
924.417	12258
924.525	12209
924.633	12205
924.741	13091
924.849	12038
924.956	12209
925.064	12019
925.172	11859
925.279	11942
925.387	12038
925.494	12011
925.602	12171
925.709	12026
925.816	11931
925.924	12003
926.031	12034
926.138	11958
926.245	12026
926.352	11889
926.459	11988
926.566	12026
926.673	11878
926.779	11752
926.886	11836
926.993	11562
927.099	11512
927.206	11551
927.312	11528
927.419	11577
927.525	11581
927.631	11695
927.737	11535
927.843	11452
927.95	11299
928.056	11402
928.162	11372
928.267	11547
928.373	12095
928.479	11539
928.585	11311
928.69	11341
928.796	11395
928.901	11280
929.007	11201
929.112	11334
929.218	11204
929.323	11197
929.428	11128
929.533	11296
929.638	11098
929.743	11128
929.848	11201
929.953	11181
930.058	10999
930.163	10862
930.267	10900
930.372	11025
930.477	10873
930.581	11143
930.685	10934
930.79	10672
930.894	10805
930.998	10672
931.103	10881
931.207	10474
931.311	10382
931.415	10337
931.519	10211
931.623	10044
