Data from test_V78500241_1181.txt Node
Date: Fri Mar 25 15:49:58 CST 2022
User: usil
Spectrometer: V785-0024
Trigger mode: 0
Integration Time (sec): 4.000000E-1
Scans to average: 1
Nonlinearity correction enabled: false
Boxcar width: 0
Storing dark spectrum: false
XAxis mode: Wavelengths
Number of Pixels in Spectrum: 1024
>>>>>Begin Spectral Data<<<<<
801.071	28588
801.214	28538
801.356	28375
801.499	28310
801.641	28166
801.783	28169
801.926	28295
802.068	28200
802.211	28112
802.353	28135
802.496	27831
802.638	27785
802.78	27831
802.923	27819
803.065	27797
803.208	27884
803.35	27918
803.492	28013
803.635	28112
803.777	28097
803.919	28131
804.061	28352
804.204	28128
804.346	28131
804.488	28097
804.63	28139
804.773	28074
804.915	28219
805.057	28196
805.199	28166
805.341	28093
805.483	28276
805.626	28211
805.768	28147
805.91	28059
806.052	28299
806.194	28120
806.336	28337
806.478	28306
806.62	28226
806.762	28417
806.904	28535
807.046	28683
807.188	28725
807.33	28782
807.472	28653
807.614	28771
807.756	28729
807.898	28584
808.04	28489
808.182	28523
808.324	28508
808.465	28592
808.607	28847
808.749	28995
808.891	28953
809.033	29124
809.174	28984
809.316	28946
809.458	28896
809.6	28927
809.741	28961
809.883	29185
810.025	29166
810.166	29269
810.308	29223
810.45	29208
810.591	29155
810.733	29018
810.875	28843
811.016	28919
811.158	28774
811.299	29151
811.441	29151
811.582	29254
811.724	29044
811.865	28866
812.007	28942
812.148	28911
812.29	28877
812.431	29258
812.573	29273
812.714	29520
812.855	29463
812.997	29627
813.138	29824
813.279	29585
813.421	29676
813.562	29459
813.703	29292
813.845	29109
813.986	28919
814.127	28820
814.268	28759
814.41	28603
814.551	28691
814.692	28858
814.833	28687
814.974	28538
815.115	28816
815.256	28611
815.397	28622
815.539	28523
815.68	28421
815.821	28421
815.962	28478
816.103	28481
816.244	28470
816.385	28200
816.526	28287
816.666	28181
816.807	27835
816.948	28124
817.089	28139
817.23	28048
817.371	28032
817.512	28097
817.653	28036
817.793	27888
817.934	27953
818.075	28051
818.216	27941
818.356	28017
818.497	27717
818.638	27770
818.778	27793
818.919	27686
819.06	27846
819.2	27892
819.341	28078
819.481	28010
819.622	28158
819.762	28211
819.903	28276
820.043	28097
820.184	27960
820.324	28154
820.465	28139
820.605	28158
820.746	28078
820.886	28029
821.026	28185
821.167	28257
821.307	28188
821.447	27991
821.588	27937
821.728	27739
821.868	27739
822.008	27408
822.149	27477
822.289	27466
822.429	27195
822.569	27150
822.709	27039
822.849	26948
822.99	27047
823.13	27036
823.27	26895
823.41	26754
823.55	26693
823.69	26952
823.83	26857
823.97	26758
824.11	26609
824.25	26651
824.389	26644
824.529	26727
824.669	26594
824.809	26754
824.949	26765
825.089	26686
825.228	26674
825.368	26590
825.508	26453
825.648	26689
825.787	26476
825.927	26640
826.067	26374
826.206	26579
826.346	26560
826.485	26609
826.625	26518
826.765	26621
826.904	26469
827.044	26351
827.183	26461
827.323	26180
827.462	26278
827.601	26252
827.741	26233
827.88	26358
828.02	26130
828.159	26278
828.298	26225
828.437	26267
828.577	26259
828.716	26419
828.855	26035
828.994	25887
829.134	25818
829.273	25860
829.412	25837
829.551	25788
829.69	25887
829.829	25966
829.968	25936
830.107	25936
830.246	25902
830.385	25765
830.524	25849
830.663	25769
830.802	25635
830.941	25594
831.08	25350
831.219	25658
831.357	25506
831.496	25689
831.635	25422
831.774	25571
831.913	25502
832.051	25217
832.19	25377
832.329	25343
832.467	25194
832.606	25168
832.744	25308
832.883	25076
833.022	25335
833.16	25183
833.299	25217
833.437	25209
833.576	25327
833.714	25270
833.852	25266
833.991	25247
834.129	25400
834.267	25316
834.406	25202
834.544	25293
834.682	25122
834.821	25187
834.959	25430
835.097	25183
835.235	25354
835.373	25122
835.511	25198
835.65	25179
835.788	25114
835.926	25095
836.064	24958
836.202	24882
836.34	25042
836.478	25103
836.615	24973
836.753	25126
836.891	25069
837.029	25225
837.167	25034
837.305	24856
837.443	25050
837.58	24913
837.718	24939
837.856	24901
837.993	24806
838.131	24905
838.269	24787
838.406	24745
838.544	24688
838.681	24536
838.819	24471
838.956	24479
839.094	24426
839.231	24486
839.369	24616
839.506	24616
839.643	24589
839.781	24369
839.918	24376
840.055	24403
840.193	24353
840.33	24452
840.467	24232
840.604	24365
840.742	24536
840.879	24114
841.016	24148
841.153	24243
841.29	24456
841.427	24125
841.564	24350
841.701	24152
841.838	24266
841.975	24148
842.112	24174
842.249	24072
842.385	23980
842.522	24247
842.659	24076
842.796	24060
842.933	24083
843.069	23885
843.206	23950
843.343	24026
843.479	24174
843.616	23874
843.752	23840
843.889	23726
844.025	24015
844.162	23813
844.298	23836
844.435	23809
844.571	23840
844.708	23813
844.844	23874
844.98	23889
845.117	23927
845.253	23897
845.389	23611
845.525	23649
845.661	23710
845.798	23589
845.934	23608
846.07	23509
846.206	23592
846.342	23676
846.478	23535
846.614	23364
846.75	23326
846.886	23280
847.022	23334
847.158	23299
847.294	23162
847.429	23265
847.565	23303
847.701	23463
847.837	22999
847.972	23025
848.108	23170
848.244	22995
848.379	22843
848.515	22866
848.65	22782
848.786	22824
848.921	22805
849.057	22839
849.192	22991
849.328	22869
849.463	22755
849.598	22797
849.734	22812
849.869	22782
850.004	22603
850.14	22664
850.275	22729
850.41	22618
850.545	22565
850.68	22371
850.815	22565
850.95	22656
851.085	22683
851.22	22679
851.355	22546
851.49	22626
851.625	22584
851.76	22668
851.895	22527
852.03	22653
852.165	22702
852.299	22580
852.434	22778
852.569	22630
852.703	22660
852.838	22580
852.973	22793
853.107	22710
853.242	22421
853.376	22432
853.511	22200
853.645	22352
853.78	22443
853.914	22462
854.048	22352
854.183	22497
854.317	22497
854.451	22573
854.585	22424
854.72	22398
854.854	22390
854.988	22405
855.122	22538
855.256	22367
855.39	22295
855.524	22352
855.658	22424
855.792	22474
855.926	22417
856.06	22382
856.194	22546
856.327	22447
856.461	22386
856.595	22386
856.729	22360
856.862	22424
856.996	22394
857.13	22561
857.263	22577
857.397	22428
857.53	22478
857.664	22432
857.797	22405
857.931	22428
858.064	22478
858.197	22554
858.331	22451
858.464	22405
858.597	22295
858.731	22421
858.864	22367
858.997	22405
859.13	22371
859.263	22382
859.396	22462
859.529	22333
859.662	22303
859.795	22485
859.928	22409
860.061	22565
860.194	22611
860.327	22455
860.46	22310
860.592	22519
860.725	22569
860.858	22474
860.99	22413
861.123	22363
861.256	22306
861.388	22421
861.521	23216
861.653	22238
861.786	22147
861.918	22207
862.05	22234
862.183	22322
862.315	22386
862.447	22451
862.58	22238
862.712	22048
862.844	22093
862.976	22230
863.108	22154
863.24	22550
863.372	22086
863.504	22040
863.636	22059
863.768	22135
863.9	22131
864.032	22055
864.164	22059
864.296	22112
864.428	22185
864.559	22242
864.691	22268
864.823	22158
864.954	22074
865.086	22070
865.217	22010
865.349	21857
865.48	21998
865.612	21945
865.743	22135
865.875	22021
866.006	21937
866.137	22063
866.269	21983
866.4	22006
866.531	21949
866.662	21884
866.793	21922
866.924	21873
867.055	21937
867.186	22025
867.317	21941
867.448	21873
867.579	21880
867.71	21739
867.841	21759
867.972	21922
868.103	21884
868.233	21915
868.364	21964
868.495	22048
868.625	22128
868.756	22242
868.886	22105
869.017	22128
869.147	22253
869.278	22314
869.408	22200
869.539	22139
869.669	22261
869.799	22356
869.929	22295
870.06	22390
870.19	22478
870.32	22443
870.45	22584
870.58	22504
870.71	22660
870.84	22622
870.97	22527
871.1	22451
871.23	22698
871.36	22641
871.489	22702
871.619	22668
871.749	22733
871.879	22801
872.008	22911
872.138	22759
872.267	22752
872.397	22710
872.526	22573
872.656	22550
872.785	22615
872.915	22805
873.044	22816
873.173	22892
873.303	22767
873.432	22679
873.561	22824
873.69	22786
873.819	22801
873.948	22869
874.077	22755
874.206	22656
874.335	22809
874.464	22919
874.593	22942
874.722	22873
874.851	23044
874.979	23029
875.108	23075
875.237	22980
875.365	22904
875.494	22915
875.623	23105
875.751	22923
875.88	23010
876.008	23162
876.136	23136
876.265	23467
876.393	23436
876.521	23387
876.65	23493
876.778	23455
876.906	23341
877.034	23288
877.162	23376
877.29	23299
877.418	23395
877.546	23330
877.674	23265
877.802	23258
877.93	23311
878.058	23246
878.185	23216
878.313	23315
878.441	23391
878.568	23231
878.696	23425
878.824	23334
878.951	23307
879.079	23600
879.206	23676
879.333	23452
879.461	23459
879.588	23318
879.715	23455
879.842	23516
879.97	23452
880.097	23235
880.224	23242
880.351	23204
880.478	23242
880.605	23098
880.732	23208
880.859	23406
880.986	23174
881.112	23265
881.239	23010
881.366	22908
881.493	22763
881.619	22771
881.746	22850
881.872	22786
881.999	22782
882.125	22713
882.252	22710
882.378	22634
882.505	22755
882.631	22630
882.757	22417
882.883	22538
883.01	22440
883.136	22360
883.262	22276
883.388	22249
883.514	22459
883.64	22455
883.766	22310
883.892	22013
884.018	22154
884.143	22169
884.269	22257
884.395	22105
884.52	21949
884.646	22013
884.772	22006
884.897	21873
885.023	21994
885.148	22002
885.274	22253
885.399	22059
885.524	22051
885.65	21915
885.775	21934
885.9	21918
886.025	22162
886.15	22124
886.275	21983
886.4	21808
886.525	21873
886.65	21956
886.775	21941
886.9	22116
887.025	22253
887.149	22048
887.274	21701
887.399	21812
887.523	21816
887.648	21694
887.773	21690
887.897	21827
888.021	21808
888.146	21648
888.27	21915
888.395	21911
888.519	21808
888.643	21850
888.767	21819
888.891	21675
889.015	21488
889.139	21652
889.263	21599
889.387	21717
889.511	21732
889.635	21804
889.759	21667
889.883	21576
890.006	21599
890.13	21618
890.254	21408
890.377	21523
890.501	21393
890.624	21340
890.748	21348
890.871	21264
890.995	21100
891.118	21096
891.241	21150
891.364	20933
891.488	21249
891.611	21070
891.734	21085
891.857	21146
891.98	21119
892.103	21165
892.226	21188
892.349	20998
892.471	20876
892.594	20990
892.717	21020
892.839	20960
892.962	20880
893.085	21028
893.207	20952
893.33	20861
893.452	21024
893.575	21047
893.697	20914
893.819	21169
893.941	21165
894.064	21066
894.186	21096
894.308	20925
894.43	21017
894.552	21108
894.674	21138
894.796	20807
894.918	20982
895.04	21081
895.161	21062
895.283	20975
895.405	20952
895.526	20990
895.648	20929
895.769	21055
895.891	21039
896.012	20998
896.134	21058
896.255	21020
896.376	20963
896.498	21077
896.619	21108
896.74	21009
896.861	21100
896.982	21389
897.103	21428
897.224	21184
897.345	21260
897.466	21184
897.587	21306
897.708	21203
897.828	21188
897.949	21154
898.07	20982
898.19	21096
898.311	21169
898.431	21184
898.552	21233
898.672	21127
898.792	21260
898.913	21203
899.033	21165
899.153	21001
899.273	20864
899.393	21001
899.513	20899
899.633	20956
899.753	20971
899.873	20861
899.993	21047
900.113	20845
900.232	20899
900.352	20830
900.472	20804
900.591	20648
900.711	20667
900.83	20731
900.95	20815
901.069	20716
901.189	20499
901.308	20298
901.427	20313
901.546	20366
901.665	20317
901.784	20309
901.904	20206
902.023	20081
902.141	19913
902.26	19780
902.379	19845
902.498	19803
902.617	19700
902.735	19674
902.854	19750
902.973	19700
903.091	19426
903.21	19358
903.328	19441
903.446	19308
903.565	19244
903.683	19133
903.801	19122
903.919	19148
904.038	19171
904.156	19038
904.274	19046
904.392	18954
904.51	18875
904.627	18928
904.745	18981
904.863	19023
904.981	18772
905.098	18585
905.216	18749
905.334	18764
905.451	18745
905.569	18810
905.686	18707
905.803	18620
905.921	18525
906.038	18639
906.155	18448
906.272	18323
906.389	18365
906.506	18144
906.623	18197
906.74	18213
906.857	18079
906.974	18015
907.091	18251
907.208	18273
907.324	18190
907.441	18163
907.557	17935
907.674	17882
907.79	17779
907.907	17843
908.023	17904
908.139	17973
908.256	17923
908.372	17733
908.488	17752
908.604	17684
908.72	17691
908.836	17672
908.952	17520
909.068	17665
909.184	17714
909.3	17551
909.415	17627
909.531	17577
909.647	17292
909.762	17444
909.878	17337
909.993	17356
910.108	17223
910.224	17269
910.339	17299
910.454	17083
910.57	17140
910.685	17045
910.8	17273
910.915	17162
911.03	17018
911.145	16968
911.259	16980
911.374	16885
911.489	16896
911.604	16797
911.718	16672
911.833	16622
911.947	16500
912.062	16577
912.176	16577
912.291	16752
912.405	16607
912.519	16812
912.633	16801
912.748	16611
912.862	16561
912.976	16371
913.09	16276
913.204	16421
913.318	16516
913.431	16481
913.545	16504
913.659	16561
913.772	16352
913.886	16306
914	16253
914.113	16333
914.226	16287
914.34	16246
914.453	16067
914.566	16196
914.68	16097
914.793	16013
914.906	15861
915.019	15835
915.132	15781
915.245	15736
915.358	15774
915.47	15789
915.583	15766
915.696	15720
915.809	15918
915.921	15972
916.034	15747
916.146	15667
916.259	15549
916.371	15625
916.483	15812
916.595	15648
916.708	15690
916.82	15584
916.932	15641
917.044	15553
917.156	15500
917.268	15374
917.38	15542
917.491	15416
917.603	15526
917.715	15530
917.826	15515
917.938	15389
918.049	15294
918.161	15389
918.272	15473
918.384	15481
918.495	15287
918.606	15302
918.717	15123
918.828	15180
918.939	15146
919.05	15051
919.161	15127
919.272	14960
919.383	15043
919.494	15249
919.604	15363
919.715	15127
919.826	15116
919.936	15089
920.047	15218
920.157	15062
920.267	15336
920.378	15074
920.488	15173
920.598	15226
920.708	15431
920.818	15302
920.928	15176
921.038	15469
921.148	15355
921.258	15077
921.368	14956
921.477	14899
921.587	14872
921.697	14689
921.806	14853
921.916	14724
922.025	14598
922.134	14427
922.244	14393
922.353	14533
922.462	14320
922.571	14221
922.68	14119
922.789	14130
922.898	14153
923.007	14100
923.116	14183
923.224	14046
923.333	14100
923.442	13940
923.55	13963
923.659	13902
923.767	13997
923.876	13951
923.984	13917
924.092	13780
924.201	13898
924.309	13845
924.417	13940
924.525	13590
924.633	13830
924.741	14552
924.849	13544
924.956	13658
925.064	13674
925.172	13502
925.279	13529
925.387	13559
925.494	13487
925.602	13594
925.709	13575
925.816	13472
925.924	13438
926.031	13483
926.138	13392
926.245	13563
926.352	13419
926.459	13476
926.566	13559
926.673	13324
926.779	13335
926.886	13187
926.993	13046
927.099	13012
927.206	12989
927.312	12981
927.419	13091
927.525	13061
927.631	13042
927.737	13046
927.843	12939
927.95	12772
928.056	12973
928.162	12856
928.267	12932
928.373	13521
928.479	13004
928.585	12578
928.69	12833
928.796	12840
928.901	12749
929.007	12715
929.112	12719
929.218	12700
929.323	12578
929.428	12684
929.533	12570
929.638	12467
929.743	12563
929.848	12597
929.953	12517
930.058	12452
930.163	12247
930.267	12270
930.372	12399
930.477	12148
930.581	12433
930.685	12213
930.79	12144
930.894	12182
930.998	12087
931.103	12159
931.207	11927
931.311	11790
931.415	11764
931.519	11452
931.623	11417
