Data from test_V78500241_2717.txt Node
Date: Fri Mar 25 16:00:37 CST 2022
User: usil
Spectrometer: V785-0024
Trigger mode: 0
Integration Time (sec): 4.000000E-1
Scans to average: 1
Nonlinearity correction enabled: false
Boxcar width: 0
Storing dark spectrum: false
XAxis mode: Wavelengths
Number of Pixels in Spectrum: 1024
>>>>>Begin Spectral Data<<<<<
801.071	28782
801.214	28782
801.356	28641
801.499	28542
801.641	28363
801.783	28421
801.926	28493
802.068	28451
802.211	28371
802.353	28097
802.496	28048
802.638	28086
802.78	28044
802.923	28166
803.065	28055
803.208	28097
803.35	28120
803.492	28249
803.635	28230
803.777	28177
803.919	28322
804.061	28592
804.204	28428
804.346	28291
804.488	28356
804.63	28447
804.773	28188
804.915	28500
805.057	28497
805.199	28265
805.341	28455
805.483	28546
805.626	28417
805.768	28398
805.91	28436
806.052	28599
806.194	28367
806.336	28573
806.478	28493
806.62	28523
806.762	28752
806.904	28767
807.046	28957
807.188	28946
807.33	29083
807.472	28938
807.614	28801
807.756	28965
807.898	28816
808.04	28866
808.182	28835
808.324	28835
808.465	29010
808.607	28976
808.749	29311
808.891	29174
809.033	29425
809.174	29311
809.316	29178
809.458	29250
809.6	29242
809.741	29315
809.883	29322
810.025	29509
810.166	29539
810.308	29543
810.45	29326
810.591	29406
810.733	29299
810.875	29193
811.016	29018
811.158	29132
811.299	29303
811.441	29391
811.582	29246
811.724	29273
811.865	29109
812.007	29193
812.148	29318
812.29	29212
812.431	29425
812.573	29501
812.714	29756
812.855	29756
812.997	29775
813.138	30007
813.279	29756
813.421	29843
813.562	29665
813.703	29547
813.845	29425
813.986	29212
814.127	29052
814.268	28896
814.41	28908
814.551	28778
814.692	28972
814.833	28797
814.974	28854
815.115	28812
815.256	28763
815.397	28786
815.539	28908
815.68	28611
815.821	28653
815.962	28702
816.103	28713
816.244	28630
816.385	28466
816.526	28584
816.666	28398
816.807	28253
816.948	28226
817.089	28352
817.23	28394
817.371	28253
817.512	28166
817.653	28257
817.793	28246
817.934	28337
818.075	28173
818.216	28166
818.356	28318
818.497	28017
818.638	28040
818.778	27991
818.919	28010
819.06	28101
819.2	28055
819.341	28257
819.481	28284
819.622	28478
819.762	28577
819.903	28542
820.043	28470
820.184	28322
820.324	28421
820.465	28519
820.605	28295
820.746	28356
820.886	28097
821.026	28413
821.167	28204
821.307	28401
821.447	28265
821.588	28188
821.728	28158
821.868	27831
822.008	27778
822.149	27766
822.289	27717
822.429	27561
822.569	27367
822.709	27580
822.849	27199
822.99	27233
823.13	27230
823.27	27222
823.41	27135
823.55	26857
823.69	27104
823.83	27074
823.97	27108
824.11	26880
824.25	27017
824.389	26838
824.529	26880
824.669	26914
824.809	27051
824.949	27005
825.089	26880
825.228	26956
825.368	26655
825.508	26842
825.648	26735
825.787	26811
825.927	26845
826.067	26857
826.206	26788
826.346	26796
826.485	26853
826.625	26804
826.765	27005
826.904	26842
827.044	26537
827.183	26518
827.323	26484
827.462	26590
827.601	26469
827.741	26625
827.88	26522
828.02	26301
828.159	26434
828.298	26541
828.437	26492
828.577	26427
828.716	26575
828.855	26355
828.994	26180
829.134	26210
829.273	26408
829.412	26286
829.551	25959
829.69	26202
829.829	26119
829.968	26153
830.107	26358
830.246	26229
830.385	26054
830.524	26012
830.663	26027
830.802	25932
830.941	25719
831.08	25826
831.219	25917
831.357	25883
831.496	26058
831.635	25780
831.774	25742
831.913	25700
832.051	25571
832.19	25624
832.329	25472
832.467	25441
832.606	25400
832.744	25438
832.883	25491
833.022	25540
833.16	25491
833.299	25472
833.437	25582
833.576	25609
833.714	25533
833.852	25479
833.991	25658
834.129	25601
834.267	25548
834.406	25529
834.544	25529
834.682	25544
834.821	25525
834.959	25674
835.097	25506
835.235	25567
835.373	25384
835.511	25586
835.65	25491
835.788	25460
835.926	25183
836.064	25141
836.202	25168
836.34	25343
836.478	25571
836.615	25198
836.753	25362
836.891	25544
837.029	25434
837.167	25152
837.305	25232
837.443	25282
837.58	25088
837.718	25255
837.856	25168
837.993	25110
838.131	25160
838.269	24996
838.406	25209
838.544	24985
838.681	24958
838.819	24844
838.956	24578
839.094	24597
839.231	24749
839.369	24787
839.506	25103
839.643	24905
839.781	24536
839.918	24525
840.055	24502
840.193	24738
840.33	24620
840.467	24521
840.604	24654
840.742	24802
840.879	24464
841.016	24395
841.153	24452
841.29	24722
841.427	24490
841.564	24589
841.701	24639
841.838	24582
841.975	24315
842.112	24498
842.249	24327
842.385	24380
842.522	24525
842.659	24418
842.796	24334
842.933	24319
843.069	24266
843.206	24270
843.343	24304
843.479	24384
843.616	24296
843.752	24133
843.889	24053
844.025	24190
844.162	24102
844.298	24163
844.435	24034
844.571	23999
844.708	23988
844.844	24155
844.98	24273
845.117	24213
845.253	23946
845.389	23935
845.525	24034
845.661	23916
845.798	23691
845.934	23992
846.07	23756
846.206	23847
846.342	23863
846.478	23779
846.614	23638
846.75	23482
846.886	23467
847.022	23566
847.158	23512
847.294	23600
847.429	23512
847.565	23444
847.701	23745
847.837	23326
847.972	23235
848.108	23261
848.244	23254
848.379	23235
848.515	23220
848.65	22946
848.786	23174
848.921	23128
849.057	23143
849.192	23204
849.328	23094
849.463	23117
849.598	23056
849.734	23056
849.869	22949
850.004	23041
850.14	22930
850.275	22862
850.41	22672
850.545	22866
850.68	22793
850.815	22961
850.95	22991
851.085	22965
851.22	22957
851.355	22965
851.49	22854
851.625	22900
851.76	22664
851.895	22767
852.03	22691
852.165	22797
852.299	22885
852.434	23075
852.569	22889
852.703	22869
852.838	22923
852.973	22965
853.107	22961
853.242	22843
853.376	22721
853.511	22622
853.645	22637
853.78	22790
853.914	22782
854.048	22641
854.183	22637
854.317	22771
854.451	22892
854.585	22706
854.72	22649
854.854	22729
854.988	22599
855.122	22649
855.256	22618
855.39	22679
855.524	22717
855.658	22778
855.792	22782
855.926	22668
856.06	22706
856.194	22729
856.327	22736
856.461	22729
856.595	22672
856.729	22767
856.862	22866
856.996	22748
857.13	22774
857.263	22820
857.397	22812
857.53	22740
857.664	22862
857.797	22729
857.931	22816
858.064	22740
858.197	22847
858.331	22755
858.464	22691
858.597	22569
858.731	22763
858.864	22615
858.997	22615
859.13	22805
859.263	22812
859.396	22862
859.529	22812
859.662	22561
859.795	22725
859.928	22774
860.061	22923
860.194	23006
860.327	22843
860.46	22721
860.592	22793
860.725	22911
860.858	22793
860.99	22786
861.123	22725
861.256	22637
861.388	22713
861.521	23421
861.653	22531
861.786	22478
861.918	22630
862.05	22660
862.183	22668
862.315	22516
862.447	22637
862.58	22733
862.712	22386
862.844	22382
862.976	22622
863.108	22489
863.24	22763
863.372	22402
863.504	22398
863.636	22386
863.768	22535
863.9	22417
864.032	22409
864.164	22428
864.296	22478
864.428	22573
864.559	22641
864.691	22497
864.823	22599
864.954	22375
865.086	22455
865.217	22333
865.349	22284
865.48	22344
865.612	22360
865.743	22447
865.875	22379
866.006	22219
866.137	22314
866.269	22363
866.4	22230
866.531	22131
866.662	22333
866.793	22261
866.924	22192
867.055	22333
867.186	22249
867.317	22211
867.448	22158
867.579	22226
867.71	22078
867.841	22048
867.972	22211
868.103	22303
868.233	22173
868.364	22200
868.495	22261
868.625	22557
868.756	22577
868.886	22299
869.017	22573
869.147	22535
869.278	22645
869.408	22363
869.539	22447
869.669	22588
869.799	22611
869.929	22592
870.06	22512
870.19	22835
870.32	22675
870.45	22759
870.58	22816
870.71	23037
870.84	22904
870.97	22980
871.1	22923
871.23	22980
871.36	23010
871.489	23052
871.619	23003
871.749	23018
871.879	23109
872.008	23315
872.138	22976
872.267	23033
872.397	22850
872.526	22938
872.656	22987
872.785	23003
872.915	23033
873.044	23140
873.173	22995
873.303	23071
873.432	23113
873.561	23105
873.69	23258
873.819	23052
873.948	23239
874.077	23083
874.206	22965
874.335	23067
874.464	23117
874.593	23299
874.722	23273
874.851	23387
874.979	23311
875.108	23463
875.237	23326
875.365	23162
875.494	23349
875.623	23372
875.751	23208
875.88	23303
876.008	23410
876.136	23543
876.265	23802
876.393	23859
876.521	23707
876.65	23794
876.778	23703
876.906	23585
877.034	23676
877.162	23722
877.29	23573
877.418	23657
877.546	23657
877.674	23653
877.802	23604
877.93	23611
878.058	23585
878.185	23417
878.313	23531
878.441	23627
878.568	23440
878.696	23505
878.824	23748
878.951	23828
879.079	23764
879.206	23980
879.333	23707
879.461	23627
879.588	23722
879.715	23707
879.842	23946
879.97	23737
880.097	23455
880.224	23448
880.351	23490
880.478	23254
880.605	23440
880.732	23448
880.859	23668
880.986	23364
881.112	23520
881.239	23303
881.366	23185
881.493	23170
881.619	23037
881.746	23071
881.872	22976
881.999	23048
882.125	23044
882.252	23048
882.378	22919
882.505	22995
882.631	22866
882.757	22877
882.883	22828
883.01	22634
883.136	22660
883.262	22622
883.388	22481
883.514	22588
883.64	22675
883.766	22698
883.892	22371
884.018	22542
884.143	22527
884.269	22740
884.395	22303
884.52	22356
884.646	22363
884.772	22246
884.897	22291
885.023	22299
885.148	22390
885.274	22512
885.399	22356
885.524	22310
885.65	22246
885.775	22207
885.9	22242
886.025	22413
886.15	22322
886.275	22215
886.4	22215
886.525	22257
886.65	22253
886.775	22188
886.9	22382
887.025	22546
887.149	22230
887.274	22029
887.399	22135
887.523	22067
887.648	21888
887.773	22055
887.897	22128
888.021	22097
888.146	21991
888.27	22238
888.395	22276
888.519	22131
888.643	22055
888.767	22101
888.891	22059
889.015	21865
889.139	21823
889.263	21861
889.387	21915
889.511	22090
889.635	21922
889.759	21808
889.883	21869
890.006	21888
890.13	21865
890.254	21701
890.377	21732
890.501	21622
890.624	21641
890.748	21633
890.871	21523
890.995	21386
891.118	21325
891.241	21397
891.364	21443
891.488	21622
891.611	21397
891.734	21450
891.857	21530
891.98	21447
892.103	21386
892.226	21412
892.349	21306
892.471	21169
892.594	21306
892.717	21393
892.839	21195
892.962	21211
893.085	21291
893.207	21306
893.33	21195
893.452	21192
893.575	21408
893.697	21268
893.819	21462
893.941	21378
894.064	21386
894.186	21344
894.308	21226
894.43	21370
894.552	21412
894.674	21351
894.796	21203
894.918	21161
895.04	21154
895.161	21359
895.283	21279
895.405	21218
895.526	21291
895.648	21230
895.769	21275
895.891	21218
896.012	21233
896.134	21298
896.255	21344
896.376	21249
896.498	21161
896.619	21321
896.74	21195
896.861	21378
896.982	21507
897.103	21778
897.224	21595
897.345	21340
897.466	21359
897.587	21325
897.708	21530
897.828	21370
897.949	21469
898.07	21351
898.19	21386
898.311	21481
898.431	21424
898.552	21431
898.672	21492
898.792	21466
898.913	21458
899.033	21382
899.153	21355
899.273	21028
899.393	21173
899.513	21127
899.633	21157
899.753	21150
899.873	21024
899.993	21142
900.113	21150
900.232	21249
900.352	21028
900.472	21089
900.591	21024
900.711	20883
900.83	20842
900.95	20986
901.069	20986
901.189	20731
901.308	20689
901.427	20518
901.546	20476
901.665	20473
901.784	20594
901.904	20343
902.023	20336
902.141	20084
902.26	19887
902.379	20122
902.498	20058
902.617	20031
902.735	19925
902.854	19967
902.973	19814
903.091	19727
903.21	19635
903.328	19734
903.446	19525
903.565	19506
903.683	19441
903.801	19282
903.919	19373
904.038	19365
904.156	19244
904.274	19419
904.392	19156
904.51	19175
904.627	19247
904.745	19160
904.863	19209
904.981	18996
905.098	18878
905.216	19027
905.334	18954
905.451	18958
905.569	18863
905.686	18920
905.803	18867
905.921	18658
906.038	18802
906.155	18802
906.272	18521
906.389	18597
906.506	18448
906.623	18369
906.74	18395
906.857	18323
906.974	18399
907.091	18437
907.208	18513
907.324	18502
907.441	18350
907.557	18102
907.674	18133
907.79	18045
907.907	18129
908.023	18072
908.139	18114
908.256	17992
908.372	17992
908.488	17977
908.604	17901
908.72	17764
908.836	17923
908.952	17794
909.068	17859
909.184	17863
909.3	17760
909.415	17767
909.531	17703
909.647	17608
909.762	17581
909.878	17520
909.993	17497
910.108	17516
910.224	17474
910.339	17474
910.454	17330
910.57	17246
910.685	17147
910.8	17509
910.915	17512
911.03	17212
911.145	17239
911.259	16987
911.374	17193
911.489	16911
911.604	17045
911.718	16904
911.833	16820
911.947	16771
912.062	16694
912.176	16828
912.291	16797
912.405	16820
912.519	17067
912.633	17064
912.748	16797
912.862	16889
912.976	16664
913.09	16584
913.204	16561
913.318	16672
913.431	16740
913.545	16687
913.659	16744
913.772	16580
913.886	16451
914	16500
914.113	16516
914.226	16459
914.34	16500
914.453	16405
914.566	16440
914.68	16223
914.793	16291
914.906	16093
915.019	15895
915.132	16032
915.245	15949
915.358	16002
915.47	16071
915.583	15972
915.696	16002
915.809	16090
915.921	16139
916.034	15941
916.146	15880
916.259	15949
916.371	15956
916.483	15827
916.595	15766
916.708	15873
916.82	15759
916.932	15739
917.044	15800
917.156	15698
917.268	15705
917.38	15629
917.491	15641
917.603	15614
917.715	15720
917.826	15618
917.938	15629
918.049	15401
918.161	15584
918.272	15652
918.384	15728
918.495	15481
918.606	15435
918.717	15393
918.828	15420
918.939	15412
919.05	15336
919.161	15279
919.272	15131
919.383	15169
919.494	15408
919.604	15538
919.715	15378
919.826	15188
919.936	15317
920.047	15370
920.157	15329
920.267	15454
920.378	15363
920.488	15359
920.598	15405
920.708	15644
920.818	15496
920.928	15439
921.038	15545
921.148	15523
921.258	15252
921.368	15123
921.477	14994
921.587	15055
921.697	14857
921.806	14986
921.916	14937
922.025	14781
922.134	14674
922.244	14689
922.353	14724
922.462	14564
922.571	14484
922.68	14385
922.789	14377
922.898	14233
923.007	14202
923.116	14294
923.224	14263
923.333	14221
923.442	14153
923.55	14130
923.659	14199
923.767	14206
923.876	14054
923.984	14134
924.092	14020
924.201	14065
924.309	13978
924.417	14084
924.525	13925
924.633	13890
924.741	14914
924.849	13715
924.956	13879
925.064	13799
925.172	13662
925.279	13685
925.387	13655
925.494	13727
925.602	13852
925.709	13700
925.816	13670
925.924	13689
926.031	13643
926.138	13670
926.245	13647
926.352	13544
926.459	13639
926.566	13655
926.673	13460
926.779	13373
926.886	13445
926.993	13209
927.099	13274
927.206	13202
927.312	13133
927.419	13198
927.525	13126
927.631	13289
927.737	13084
927.843	13076
927.95	12981
928.056	13019
928.162	13050
928.267	13038
928.373	13651
928.479	13065
928.585	12909
928.69	12916
928.796	12977
928.901	12909
929.007	12734
929.112	12897
929.218	12932
929.323	12764
929.428	12726
929.533	12806
929.638	12627
929.743	12642
929.848	12753
929.953	12616
930.058	12525
930.163	12460
930.267	12391
930.372	12509
930.477	12384
930.581	12623
930.685	12471
930.79	12247
930.894	12296
930.998	12270
931.103	12334
931.207	12064
931.311	11923
931.415	11836
931.519	11657
931.623	11710
