Data from test_V78500241_809.txt Node
Date: Fri Mar 25 15:47:24 CST 2022
User: usil
Spectrometer: V785-0024
Trigger mode: 0
Integration Time (sec): 4.000000E-1
Scans to average: 1
Nonlinearity correction enabled: false
Boxcar width: 0
Storing dark spectrum: false
XAxis mode: Wavelengths
Number of Pixels in Spectrum: 1024
>>>>>Begin Spectral Data<<<<<
801.071	28192
801.214	28105
801.356	27724
801.499	27808
801.641	27644
801.783	27694
801.926	27816
802.068	27667
802.211	27549
802.353	27545
802.496	27348
802.638	27294
802.78	27329
802.923	27283
803.065	27241
803.208	27336
803.35	27332
803.492	27481
803.635	27549
803.777	27306
803.919	27614
804.061	27831
804.204	27671
804.346	27644
804.488	27424
804.63	27549
804.773	27325
804.915	27542
805.057	27770
805.199	27595
805.341	27671
805.483	27686
805.626	27793
805.768	27462
805.91	27709
806.052	27561
806.194	27622
806.336	27869
806.478	27728
806.62	27797
806.762	27785
806.904	27983
807.046	28272
807.188	28090
807.33	28093
807.472	28185
807.614	28032
807.756	28196
807.898	27819
808.04	27930
808.182	27903
808.324	28055
808.465	27972
808.607	28265
808.749	28432
808.891	28466
809.033	28481
809.174	28386
809.316	28398
809.458	28341
809.6	28238
809.741	28508
809.883	28489
810.025	28618
810.166	28710
810.308	28637
810.45	28831
810.591	28508
810.733	28447
810.875	28348
811.016	28223
811.158	28226
811.299	28497
811.441	28691
811.582	28546
811.724	28363
811.865	28382
812.007	28409
812.148	28382
812.29	28447
812.431	28523
812.573	28816
812.714	28748
812.855	28885
812.997	28972
813.138	29140
813.279	28946
813.421	28953
813.562	28999
813.703	28634
813.845	28466
813.986	28424
814.127	28230
814.268	28074
814.41	28116
814.551	28017
814.692	28192
814.833	28044
814.974	28116
815.115	28032
815.256	27835
815.397	28010
815.539	27960
815.68	27869
815.821	27804
815.962	28063
816.103	27819
816.244	27800
816.385	27743
816.526	27583
816.666	27595
816.807	27443
816.948	27473
817.089	27424
817.23	27439
817.371	27458
817.512	27439
817.653	27344
817.793	27412
817.934	27355
818.075	27389
818.216	27488
818.356	27321
818.497	27241
818.638	27264
818.778	27119
818.919	27173
819.06	27332
819.2	27306
819.341	27519
819.481	27458
819.622	27587
819.762	27610
819.903	27709
820.043	27614
820.184	27622
820.324	27549
820.465	27580
820.605	27454
820.746	27538
820.886	27386
821.026	27519
821.167	27466
821.307	27622
821.447	27348
821.588	27165
821.728	27222
821.868	27154
822.008	26842
822.149	26849
822.289	26933
822.429	26560
822.569	26606
822.709	26560
822.849	26571
822.99	26404
823.13	26358
823.27	26206
823.41	26187
823.55	26081
823.69	26237
823.83	26134
823.97	26153
824.11	25947
824.25	25875
824.389	26119
824.529	26031
824.669	26001
824.809	26183
824.949	26145
825.089	26119
825.228	26073
825.368	25795
825.508	25784
825.648	25906
825.787	25898
825.927	25993
826.067	25807
826.206	25830
826.346	25947
826.485	25989
826.625	25871
826.765	26005
826.904	25928
827.044	25628
827.183	25742
827.323	25578
827.462	25628
827.601	25765
827.741	25757
827.88	25738
828.02	25521
828.159	25548
828.298	25586
828.437	25594
828.577	25457
828.716	25696
828.855	25529
828.994	25381
829.134	25331
829.273	25331
829.412	25247
829.551	25221
829.69	25373
829.829	25400
829.968	25362
830.107	25362
830.246	25251
830.385	25221
830.524	25278
830.663	25118
830.802	25012
830.941	24814
831.08	24867
831.219	25008
831.357	24985
831.496	25084
831.635	24821
831.774	24776
831.913	24806
832.051	24585
832.19	24787
832.329	24681
832.467	24715
832.606	24597
832.744	24555
832.883	24612
833.022	24456
833.16	24570
833.299	24563
833.437	24525
833.576	24631
833.714	24631
833.852	24574
833.991	24745
834.129	24711
834.267	24749
834.406	24665
834.544	24749
834.682	24715
834.821	24673
834.959	24859
835.097	24627
835.235	24597
835.373	24418
835.511	24650
835.65	24460
835.788	24467
835.926	24342
836.064	24190
836.202	24357
836.34	24563
836.478	24502
836.615	24410
836.753	24456
836.891	24559
837.029	24547
837.167	24490
837.305	24350
837.443	24395
837.58	24323
837.718	24334
837.856	24292
837.993	24273
838.131	24342
838.269	24216
838.406	24266
838.544	24213
838.681	23931
838.819	23969
838.956	23752
839.094	23699
839.231	23695
839.369	23923
839.506	24239
839.643	24038
839.781	23634
839.918	23668
840.055	23745
840.193	23661
840.33	23535
840.467	23695
840.604	23771
840.742	23794
840.879	23570
841.016	23627
841.153	23649
841.29	23668
841.427	23680
841.564	23687
841.701	23771
841.838	23566
841.975	23562
842.112	23646
842.249	23509
842.385	23414
842.522	23608
842.659	23395
842.796	23337
842.933	23474
843.069	23315
843.206	23269
843.343	23493
843.479	23520
843.616	23311
843.752	23227
843.889	23311
844.025	23440
844.162	23200
844.298	23242
844.435	23200
844.571	23166
844.708	23166
844.844	23368
844.98	23315
845.117	23204
845.253	23220
845.389	23033
845.525	23041
845.661	22984
845.798	23022
845.934	22915
846.07	22927
846.206	22984
846.342	23124
846.478	22976
846.614	22733
846.75	22634
846.886	22622
847.022	22694
847.158	22778
847.294	22649
847.429	22694
847.565	22687
847.701	22877
847.837	22474
847.972	22352
848.108	22596
848.244	22432
848.379	22299
848.515	22238
848.65	22226
848.786	22325
848.921	22230
849.057	22344
849.192	22356
849.328	22386
849.463	22177
849.598	22223
849.734	22204
849.869	22124
850.004	22017
850.14	22090
850.275	21960
850.41	21857
850.545	22029
850.68	22143
850.815	21979
850.95	22002
851.085	22109
851.22	22154
851.355	21994
851.49	22017
851.625	22010
851.76	21987
851.895	21968
852.03	21964
852.165	22010
852.299	22124
852.434	22055
852.569	22109
852.703	22025
852.838	22063
852.973	22032
853.107	22105
853.242	22036
853.376	21827
853.511	21793
853.645	21747
853.78	21857
853.914	21907
854.048	21808
854.183	21778
854.317	21861
854.451	22010
854.585	21827
854.72	21835
854.854	21915
854.988	21816
855.122	21823
855.256	21709
855.39	21819
855.524	21895
855.658	21884
855.792	21762
855.926	21922
856.06	21972
856.194	21892
856.327	21831
856.461	21701
856.595	21823
856.729	21827
856.862	22010
856.996	21888
857.13	22025
857.263	21994
857.397	21903
857.53	21869
857.664	21926
857.797	21808
857.931	22051
858.064	21892
858.197	21987
858.331	21838
858.464	21770
858.597	21641
858.731	21755
858.864	21766
858.997	21819
859.13	21724
859.263	21880
859.396	21926
859.529	21842
859.662	21895
859.795	21819
859.928	21926
860.061	21937
860.194	22074
860.327	21888
860.46	21873
860.592	21941
860.725	21949
860.858	22002
860.99	21861
861.123	21698
861.256	21793
861.388	21781
861.521	22432
861.653	21686
861.786	21660
861.918	21660
862.05	21755
862.183	21736
862.315	21869
862.447	21774
862.58	21686
862.712	21572
862.844	21382
862.976	21648
863.108	21755
863.24	22021
863.372	21561
863.504	21462
863.636	21557
863.768	21557
863.9	21473
864.032	21504
864.164	21515
864.296	21603
864.428	21637
864.559	21515
864.691	21603
864.823	21656
864.954	21526
865.086	21473
865.217	21526
865.349	21332
865.48	21481
865.612	21587
865.743	21545
865.875	21450
866.006	21393
866.137	21336
866.269	21462
866.4	21534
866.531	21428
866.662	21237
866.793	21332
866.924	21382
867.055	21405
867.186	21408
867.317	21336
867.448	21367
867.579	21382
867.71	21302
867.841	21264
867.972	21401
868.103	21317
868.233	21458
868.364	21420
868.495	21587
868.625	21656
868.756	21686
868.886	21542
869.017	21648
869.147	21679
869.278	21713
869.408	21690
869.539	21595
869.669	21713
869.799	21686
869.929	21778
870.06	21622
870.19	22006
870.32	21819
870.45	21903
870.58	22109
870.71	22070
870.84	21987
870.97	21979
871.1	21991
871.23	22124
871.36	22219
871.489	22162
871.619	22196
871.749	22204
871.879	22246
872.008	22200
872.138	22128
872.267	22135
872.397	22131
872.526	22051
872.656	22173
872.785	21945
872.915	22337
873.044	22344
873.173	22150
873.303	22284
873.432	22246
873.561	22394
873.69	22204
873.819	22181
873.948	22329
874.077	22280
874.206	22238
874.335	22276
874.464	22306
874.593	22538
874.722	22432
874.851	22409
874.979	22432
875.108	22500
875.237	22367
875.365	22424
875.494	22504
875.623	22474
875.751	22390
875.88	22535
876.008	22519
876.136	22668
876.265	22801
876.393	22987
876.521	22972
876.65	22949
876.778	22759
876.906	23029
877.034	22805
877.162	22729
877.29	22752
877.418	22729
877.546	22843
877.674	22710
877.802	22687
877.93	22809
878.058	22767
878.185	22622
878.313	22683
878.441	22820
878.568	22641
878.696	22698
878.824	22862
878.951	22866
879.079	22869
879.206	22987
879.333	22961
879.461	22774
879.588	22934
879.715	22866
879.842	23010
879.97	22763
880.097	22729
880.224	22618
880.351	22550
880.478	22656
880.605	22565
880.732	22645
880.859	22805
880.986	22645
881.112	22596
881.239	22485
881.366	22455
881.493	22333
881.619	22238
881.746	22234
881.872	22147
881.999	22265
882.125	22200
882.252	22188
882.378	22185
882.505	22131
882.631	21953
882.757	21987
882.883	22059
883.01	21876
883.136	21781
883.262	21770
883.388	21698
883.514	21907
883.64	21945
883.766	21724
883.892	21682
884.018	21633
884.143	21884
884.269	21918
884.395	21564
884.52	21557
884.646	21568
884.772	21405
884.897	21329
885.023	21450
885.148	21591
885.274	21530
885.399	21663
885.524	21515
885.65	21447
885.775	21686
885.9	21488
886.025	21629
886.15	21557
886.275	21458
886.4	21424
886.525	21477
886.65	21428
886.775	21485
886.9	21519
887.025	21759
887.149	21500
887.274	21454
887.399	21207
887.523	21332
887.648	21142
887.773	21218
887.897	21401
888.021	21370
888.146	21207
888.27	21283
888.395	21412
888.519	21230
888.643	21359
888.767	21252
888.891	21036
889.015	21096
889.139	21036
889.263	21077
889.387	21188
889.511	21313
889.635	21214
889.759	21043
889.883	21108
890.006	21093
890.13	21180
890.254	21028
890.377	20948
890.501	20842
890.624	20773
890.748	20838
890.871	20727
890.995	20659
891.118	20575
891.241	20594
891.364	20541
891.488	20819
891.611	20564
891.734	20606
891.857	20689
891.98	20598
892.103	20727
892.226	20556
892.349	20659
892.471	20385
892.594	20499
892.717	20644
892.839	20609
892.962	20575
893.085	20488
893.207	20533
893.33	20419
893.452	20564
893.575	20594
893.697	20488
893.819	20705
893.941	20560
894.064	20617
894.186	20362
894.308	20381
894.43	20606
894.552	20670
894.674	20568
894.796	20438
894.918	20545
895.04	20404
895.161	20533
895.283	20537
895.405	20385
895.526	20404
895.648	20514
895.769	20590
895.891	20571
896.012	20686
896.134	20446
896.255	20571
896.376	20503
896.498	20541
896.619	20613
896.74	20495
896.861	20579
896.982	20762
897.103	20952
897.224	20861
897.345	20716
897.466	20708
897.587	20735
897.708	20785
897.828	20716
897.949	20636
898.07	20560
898.19	20724
898.311	20807
898.431	20667
898.552	20720
898.672	20754
898.792	20788
898.913	20773
899.033	20655
899.153	20514
899.273	20389
899.393	20469
899.513	20492
899.633	20556
899.753	20549
899.873	20461
899.993	20514
900.113	20313
900.232	20450
900.352	20408
900.472	20374
900.591	20142
900.711	20263
900.83	20244
900.95	20313
901.069	20317
901.189	20107
901.308	19902
901.427	19814
901.546	19791
901.665	19780
901.784	19830
901.904	19753
902.023	19651
902.141	19430
902.26	19244
902.379	19449
902.498	19392
902.617	19270
902.735	19434
902.854	19335
902.973	19202
903.091	19004
903.21	18954
903.328	19034
903.446	18844
903.565	18840
903.683	18829
903.801	18719
903.919	18753
904.038	18635
904.156	18593
904.274	18658
904.392	18494
904.51	18574
904.627	18582
904.745	18616
904.863	18616
904.981	18391
905.098	18262
905.216	18178
905.334	18262
905.451	18125
905.569	18167
905.686	18140
905.803	18174
905.921	18076
906.038	18034
906.155	18072
906.272	18026
906.389	17923
906.506	17741
906.623	17851
906.74	17722
906.857	17627
906.974	17558
907.091	17767
907.208	17817
907.324	17756
907.441	17638
907.557	17524
907.674	17581
907.79	17452
907.907	17490
908.023	17501
908.139	17379
908.256	17455
908.372	17265
908.488	17284
908.604	17231
908.72	17086
908.836	17105
908.952	17220
909.068	17159
909.184	17216
909.3	17174
909.415	17132
909.531	17117
909.647	17022
909.762	16995
909.878	16805
909.993	16854
910.108	16847
910.224	16805
910.339	16866
910.454	16740
910.57	16691
910.685	16645
910.8	16877
910.915	16752
911.03	16691
911.145	16512
911.259	16546
911.374	16478
911.489	16295
911.604	16352
911.718	16234
911.833	16185
911.947	16116
912.062	16150
912.176	16284
912.291	16276
912.405	16268
912.519	16367
912.633	16394
912.748	16185
912.862	16192
912.976	16036
913.09	15956
913.204	15945
913.318	15964
913.431	16166
913.545	16276
913.659	16124
913.772	15945
913.886	15869
914	15717
914.113	15922
914.226	15911
914.34	15892
914.453	15774
914.566	15823
914.68	15736
914.793	15656
914.906	15511
915.019	15405
915.132	15340
915.245	15458
915.358	15553
915.47	15450
915.583	15466
915.696	15389
915.809	15587
915.921	15496
916.034	15313
916.146	15351
916.259	15249
916.371	15359
916.483	15310
916.595	15294
916.708	15169
916.82	15222
916.932	15146
917.044	15233
917.156	15131
917.268	15161
917.38	15127
917.491	15074
917.603	15039
917.715	15058
917.826	15203
917.938	15043
918.049	14830
918.161	14944
918.272	15089
918.384	15192
918.495	14963
918.606	14857
918.717	14750
918.828	14826
918.939	14796
919.05	14769
919.161	14765
919.272	14606
919.383	14697
919.494	14880
919.604	15020
919.715	14834
919.826	14667
919.936	14823
920.047	14804
920.157	14804
920.267	14979
920.378	14769
920.488	14788
920.598	14929
920.708	15062
920.818	14842
920.928	14990
921.038	15020
921.148	15036
921.258	14708
921.368	14670
921.477	14549
921.587	14583
921.697	14480
921.806	14442
921.916	14431
922.025	14210
922.134	14073
922.244	14119
922.353	14115
922.462	14138
922.571	13974
922.68	13890
922.789	13708
922.898	13845
923.007	13677
923.116	13769
923.224	13765
923.333	13738
923.442	13639
923.55	13651
923.659	13613
923.767	13643
923.876	13594
923.984	13613
924.092	13544
924.201	13605
924.309	13468
924.417	13556
924.525	13438
924.633	13495
924.741	14385
924.849	13308
924.956	13362
925.064	13324
925.172	13190
925.279	13095
925.387	13236
925.494	13194
925.602	13244
925.709	13312
925.816	13076
925.924	13202
926.031	13304
926.138	13129
926.245	13240
926.352	13110
926.459	13164
926.566	13171
926.673	13046
926.779	12973
926.886	12973
926.993	12825
927.099	12776
927.206	12662
927.312	12730
927.419	12787
927.525	12738
927.631	12772
927.737	12715
927.843	12528
927.95	12460
928.056	12635
928.162	12601
928.267	12578
928.373	13217
928.479	12776
928.585	12407
928.69	12547
928.796	12506
928.901	12467
929.007	12251
929.112	12479
929.218	12433
929.323	12300
929.428	12330
929.533	12460
929.638	12232
929.743	12163
929.848	12353
929.953	12247
930.058	12129
930.163	11855
930.267	11958
930.372	12106
930.477	11958
930.581	12117
930.685	12034
930.79	11870
930.894	11950
930.998	11824
931.103	11973
931.207	11608
931.311	11532
931.415	11395
931.519	11292
931.623	11288
