Data from test_V78500241_476.txt Node
Date: Fri Mar 25 15:45:05 CST 2022
User: usil
Spectrometer: V785-0024
Trigger mode: 0
Integration Time (sec): 4.000000E-1
Scans to average: 1
Nonlinearity correction enabled: false
Boxcar width: 0
Storing dark spectrum: false
XAxis mode: Wavelengths
Number of Pixels in Spectrum: 1024
>>>>>Begin Spectral Data<<<<<
801.071	27614
801.214	27454
801.356	27420
801.499	27378
801.641	27066
801.783	27146
801.926	27135
802.068	27055
802.211	27001
802.353	26990
802.496	26933
802.638	26819
802.78	26857
802.923	26819
803.065	26701
803.208	26693
803.35	26758
803.492	26883
803.635	26800
803.777	26845
803.919	26963
804.061	27287
804.204	26906
804.346	26800
804.488	26975
804.63	26834
804.773	26845
804.915	26967
805.057	27017
805.199	26975
805.341	27116
805.483	27123
805.626	26971
805.768	26933
805.91	27089
806.052	27104
806.194	27047
806.336	27230
806.478	27009
806.62	27066
806.762	27131
806.904	27363
807.046	27618
807.188	27496
807.33	27473
807.472	27564
807.614	27359
807.756	27374
807.898	27142
808.04	27233
808.182	27138
808.324	27192
808.465	27268
808.607	27500
808.749	27629
808.891	27743
809.033	27869
809.174	27751
809.316	27747
809.458	27774
809.6	27599
809.741	27838
809.883	27778
810.025	27987
810.166	27941
810.308	28006
810.45	28021
810.591	27968
810.733	27785
810.875	27709
811.016	27701
811.158	27633
811.299	27732
811.441	27835
811.582	27903
811.724	27690
811.865	27633
812.007	27808
812.148	27660
812.29	27705
812.431	27956
812.573	28036
812.714	28188
812.855	28310
812.997	28341
813.138	28329
813.279	28394
813.421	28223
813.562	28230
813.703	28048
813.845	27907
813.986	27671
814.127	27424
814.268	27416
814.41	27424
814.551	27211
814.692	27530
814.833	27306
814.974	27401
815.115	27370
815.256	27127
815.397	27195
815.539	27287
815.68	27180
815.821	27127
815.962	27089
816.103	27070
816.244	27028
816.385	26762
816.526	26883
816.666	26731
816.807	26609
816.948	26807
817.089	26819
817.23	26804
817.371	26705
817.512	26659
817.653	26575
817.793	26526
817.934	26724
818.075	26682
818.216	26522
818.356	26568
818.497	26488
818.638	26389
818.778	26400
818.919	26332
819.06	26389
819.2	26522
819.341	26613
819.481	26602
819.622	26765
819.762	26925
819.903	26758
820.043	26746
820.184	26765
820.324	26769
820.465	26807
820.605	26609
820.746	26754
820.886	26587
821.026	26739
821.167	26636
821.307	26815
821.447	26473
821.588	26518
821.728	26389
821.868	26301
822.008	26008
822.149	26035
822.289	26001
822.429	25780
822.569	25719
822.709	25666
822.849	25635
822.99	25651
823.13	25601
823.27	25529
823.41	25392
823.55	25187
823.69	25483
823.83	25468
823.97	25422
824.11	25240
824.25	25327
824.389	25266
824.529	25411
824.669	25297
824.809	25445
824.949	25358
825.089	25369
825.228	25396
825.368	25076
825.508	25038
825.648	25095
825.787	25137
825.927	25145
826.067	24795
826.206	25080
826.346	25148
826.485	25069
826.625	25133
826.765	25114
826.904	25118
827.044	24787
827.183	24814
827.323	24635
827.462	24806
827.601	24810
827.741	24738
827.88	24856
828.02	24654
828.159	24677
828.298	24760
828.437	24829
828.577	24795
828.716	24897
828.855	24661
828.994	24479
829.134	24544
829.273	24490
829.412	24475
829.551	24448
829.69	24426
829.829	24509
829.968	24696
830.107	24574
830.246	24585
830.385	24471
830.524	24357
830.663	24235
830.802	24117
830.941	24155
831.08	24011
831.219	24129
831.357	24205
831.496	24323
831.635	24117
831.774	24049
831.913	23939
832.051	23863
832.19	23771
832.329	23878
832.467	23821
832.606	23741
832.744	23707
832.883	23710
833.022	23737
833.16	23817
833.299	23703
833.437	23733
833.576	23813
833.714	23931
833.852	23882
833.991	23973
834.129	23916
834.267	23889
834.406	23885
834.544	23984
834.682	23794
834.821	23794
834.959	24038
835.097	23710
835.235	23901
835.373	23866
835.511	23691
835.65	23722
835.788	23699
835.926	23448
836.064	23471
836.202	23467
836.34	23668
836.478	23699
836.615	23615
836.753	23668
836.891	23592
837.029	23646
837.167	23592
837.305	23516
837.443	23562
837.58	23497
837.718	23516
837.856	23562
837.993	23417
838.131	23490
838.269	23353
838.406	23478
838.544	23265
838.681	23254
838.819	23147
838.956	22938
839.094	22976
839.231	22965
839.369	23109
839.506	23242
839.643	23090
839.781	22968
839.918	22839
840.055	22980
840.193	22972
840.33	22946
840.467	22949
840.604	22866
840.742	23140
840.879	22679
841.016	22930
841.153	22664
841.29	22881
841.427	22790
841.564	22946
841.701	22790
841.838	22820
841.975	22687
842.112	22706
842.249	22809
842.385	22740
842.522	22946
842.659	22839
842.796	22557
842.933	22679
843.069	22596
843.206	22618
843.343	22634
843.479	22626
843.616	22580
843.752	22322
843.889	22382
844.025	22447
844.162	22481
844.298	22489
844.435	22398
844.571	22371
844.708	22360
844.844	22527
844.98	22592
845.117	22386
845.253	22367
845.389	22242
845.525	22215
845.661	22226
845.798	22299
845.934	22192
846.07	22147
846.206	22169
846.342	22181
846.478	22086
846.614	21968
846.75	21808
846.886	21857
847.022	21892
847.158	21861
847.294	21869
847.429	21903
847.565	21838
847.701	22097
847.837	21698
847.972	21545
848.108	21671
848.244	21778
848.379	21519
848.515	21488
848.65	21564
848.786	21435
848.921	21344
849.057	21534
849.192	21523
849.328	21549
849.463	21370
849.598	21412
849.734	21348
849.869	21214
850.004	21062
850.14	21127
850.275	21173
850.41	21096
850.545	21165
850.68	21291
850.815	21169
850.95	21203
851.085	21424
851.22	21310
851.355	21116
851.49	21127
851.625	21176
851.76	21154
851.895	21074
852.03	21180
852.165	21169
852.299	21279
852.434	21340
852.569	21241
852.703	21237
852.838	21245
852.973	21382
853.107	21325
853.242	21039
853.376	21169
853.511	20899
853.645	20910
853.78	21188
853.914	21055
854.048	20994
854.183	21089
854.317	21055
854.451	21112
854.585	20979
854.72	21043
854.854	21127
854.988	20975
855.122	21036
855.256	21009
855.39	20952
855.524	21104
855.658	21093
855.792	21047
855.926	21096
856.06	21123
856.194	21081
856.327	20979
856.461	21024
856.595	20956
856.729	21039
856.862	21173
856.996	21188
857.13	21142
857.263	21081
857.397	21116
857.53	21074
857.664	21039
857.797	21058
857.931	21123
858.064	21089
858.197	21070
858.331	21055
858.464	20910
858.597	20887
858.731	20937
858.864	21009
858.997	20937
859.13	20990
859.263	21127
859.396	21154
859.529	20998
859.662	21009
859.795	20929
859.928	20990
860.061	21154
860.194	21325
860.327	21032
860.46	21058
860.592	21112
860.725	21226
860.858	21188
860.99	21077
861.123	20906
861.256	20914
861.388	20994
861.521	21633
861.653	20971
861.786	20754
861.918	20785
862.05	20982
862.183	20929
862.315	20918
862.447	21047
862.58	20864
862.712	20788
862.844	20777
862.976	20746
863.108	20777
863.24	21256
863.372	20708
863.504	20804
863.636	20765
863.768	20731
863.9	20739
864.032	20712
864.164	20731
864.296	20632
864.428	20823
864.559	20750
864.691	20777
864.823	20807
864.954	20712
865.086	20777
865.217	20644
865.349	20571
865.48	20613
865.612	20682
865.743	20785
865.875	20579
866.006	20613
866.137	20644
866.269	20701
866.4	20609
866.531	20564
866.662	20526
866.793	20545
866.924	20667
867.055	20613
867.186	20598
867.317	20503
867.448	20484
867.579	20488
867.71	20522
867.841	20511
867.972	20537
868.103	20522
868.233	20568
868.364	20602
868.495	20648
868.625	20815
868.756	20994
868.886	20670
869.017	20849
869.147	20914
869.278	20990
869.408	20857
869.539	20857
869.669	20880
869.799	20830
869.929	20925
870.06	20960
870.19	21005
870.32	21214
870.45	21252
870.58	21135
870.71	21321
870.84	21397
870.97	21195
871.1	21207
871.23	21386
871.36	21359
871.489	21340
871.619	21477
871.749	21408
871.879	21454
872.008	21393
872.138	21416
872.267	21439
872.397	21279
872.526	21233
872.656	21249
872.785	21184
872.915	21523
873.044	21549
873.173	21439
873.303	21359
873.432	21587
873.561	21724
873.69	21412
873.819	21488
873.948	21568
874.077	21443
874.206	21329
874.335	21393
874.464	21545
874.593	21709
874.722	21633
874.851	21694
874.979	21785
875.108	21739
875.237	21686
875.365	21488
875.494	21591
875.623	21789
875.751	21641
875.88	21739
876.008	21770
876.136	21994
876.265	22143
876.393	22211
876.521	22154
876.65	22219
876.778	22025
876.906	21949
877.034	21975
877.162	21949
877.29	21975
877.418	22150
877.546	22116
877.674	22105
877.802	21926
877.93	22207
878.058	22093
878.185	21941
878.313	22093
878.441	21953
878.568	21911
878.696	21975
878.824	22173
878.951	22162
879.079	22284
879.206	22436
879.333	22185
879.461	22166
879.588	22181
879.715	22192
879.842	22360
879.97	22120
880.097	22044
880.224	21918
880.351	21922
880.478	21945
880.605	21759
880.732	21937
880.859	22128
880.986	21827
881.112	21953
881.239	21854
881.366	21485
881.493	21610
881.619	21458
881.746	21496
881.872	21500
881.999	21416
882.125	21431
882.252	21447
882.378	21340
882.505	21557
882.631	21355
882.757	21233
882.883	21188
883.01	21093
883.136	21131
883.262	21043
883.388	20971
883.514	21138
883.64	21188
883.766	21108
883.892	20864
884.018	20990
884.143	21112
884.269	21173
884.395	20887
884.52	20785
884.646	20883
884.772	20705
884.897	20834
885.023	20902
885.148	20849
885.274	20982
885.399	20971
885.524	20929
885.65	20788
885.775	20800
885.9	20792
886.025	20979
886.15	20921
886.275	20708
886.4	20762
886.525	20861
886.65	20598
886.775	20781
886.9	20895
887.025	20952
887.149	20762
887.274	20716
887.399	20708
887.523	20629
887.648	20602
887.773	20400
887.897	20651
888.021	20537
888.146	20473
888.27	20636
888.395	20712
888.519	20545
888.643	20632
888.767	20629
888.891	20549
889.015	20332
889.139	20476
889.263	20336
889.387	20537
889.511	20678
889.635	20556
889.759	20256
889.883	20370
890.006	20461
890.13	20488
890.254	20248
890.377	20313
890.501	20176
890.624	20134
890.748	20172
890.871	19959
890.995	19947
891.118	19883
891.241	19898
891.364	19970
891.488	20043
891.611	20012
891.734	19974
891.857	19989
891.98	20062
892.103	19890
892.226	19925
892.349	19780
892.471	19731
892.594	19986
892.717	19879
892.839	19738
892.962	19947
893.085	20031
893.207	19814
893.33	19811
893.452	19712
893.575	19955
893.697	19837
893.819	20111
893.941	20081
894.064	19989
894.186	19814
894.308	19727
894.43	20012
894.552	19940
894.674	19963
894.796	19833
894.918	19761
895.04	19928
895.161	19864
895.283	19986
895.405	19772
895.526	19917
895.648	19780
895.769	19784
895.891	19944
896.012	19940
896.134	19974
896.255	19879
896.376	19818
896.498	19871
896.619	19868
896.74	19944
896.861	19978
896.982	20206
897.103	20396
897.224	20214
897.345	19959
897.466	20020
897.587	20115
897.708	20218
897.828	20107
897.949	20027
898.07	19947
898.19	20065
898.311	20172
898.431	20020
898.552	20054
898.672	20210
898.792	20275
898.913	20149
899.033	19936
899.153	20012
899.273	19936
899.393	19769
899.513	19898
899.633	19826
899.753	19940
899.873	19757
899.993	19879
900.113	19734
900.232	19856
900.352	19890
900.472	19693
900.591	19628
900.711	19772
900.83	19635
900.95	19727
901.069	19693
901.189	19616
901.308	19278
901.427	19194
901.546	19274
901.665	19221
901.784	19270
901.904	19080
902.023	18947
902.141	18833
902.26	18776
902.379	18871
902.498	18837
902.617	18593
902.735	18814
902.854	18703
902.973	18593
903.091	18544
903.21	18334
903.328	18410
903.446	18342
903.565	18224
903.683	18213
903.801	18003
903.919	18148
904.038	18091
904.156	17920
904.274	18045
904.392	17901
904.51	17882
904.627	17939
904.745	17939
904.863	18038
904.981	17726
905.098	17653
905.216	17687
905.334	17684
905.451	17611
905.569	17611
905.686	17691
905.803	17695
905.921	17505
906.038	17520
906.155	17543
906.272	17353
906.389	17376
906.506	17242
906.623	17246
906.74	17166
906.857	16984
906.974	17098
907.091	17261
907.208	17318
907.324	17269
907.441	17098
907.557	16892
907.674	17075
907.79	16953
907.907	16889
908.023	16934
908.139	16866
908.256	16885
908.372	16702
908.488	16687
908.604	16736
908.72	16558
908.836	16748
908.952	16561
909.068	16634
909.184	16710
909.3	16656
909.415	16626
909.531	16622
909.647	16344
909.762	16295
909.878	16211
909.993	16443
910.108	16341
910.224	16303
910.339	16280
910.454	16166
910.57	16147
910.685	16139
910.8	16398
910.915	16272
911.03	16078
911.145	16025
911.259	15907
911.374	15964
911.489	15922
911.604	15751
911.718	15682
911.833	15667
911.947	15614
912.062	15462
912.176	15679
912.291	15644
912.405	15641
912.519	15861
912.633	15880
912.748	15698
912.862	15671
912.976	15572
913.09	15367
913.204	15458
913.318	15477
913.431	15595
913.545	15496
913.659	15603
913.772	15370
913.886	15207
914	15268
914.113	15367
914.226	15439
914.34	15412
914.453	15161
914.566	15332
914.68	15169
914.793	15207
914.906	14952
915.019	14868
915.132	14902
915.245	14853
915.358	14872
915.47	15028
915.583	14960
915.696	14861
915.809	15032
915.921	15009
916.034	14845
916.146	14887
916.259	14861
916.371	14933
916.483	14853
916.595	14823
916.708	14689
916.82	14693
916.932	14693
917.044	14659
917.156	14648
917.268	14594
917.38	14617
917.491	14674
917.603	14629
917.715	14606
917.826	14701
917.938	14427
918.049	14427
918.161	14583
918.272	14594
918.384	14644
918.495	14495
918.606	14336
918.717	14290
918.828	14385
918.939	14355
919.05	14210
919.161	14256
919.272	14168
919.383	14153
919.494	14317
919.604	14518
919.715	14301
919.826	14229
919.936	14229
920.047	14320
920.157	14358
920.267	14518
920.378	14271
920.488	14237
920.598	14484
920.708	14556
920.818	14427
920.928	14332
921.038	14655
921.148	14590
921.258	14282
921.368	14145
921.477	14088
921.587	14069
921.697	13902
921.806	14081
921.916	13795
922.025	13731
922.134	13780
922.244	13639
922.353	13784
922.462	13597
922.571	13491
922.68	13388
922.789	13324
922.898	13373
923.007	13324
923.116	13316
923.224	13381
923.333	13285
923.442	13133
923.55	13129
923.659	13206
923.767	13152
923.876	13057
923.984	13179
924.092	13034
924.201	13152
924.309	13129
924.417	13099
924.525	12985
924.633	12996
924.741	13636
924.849	12916
924.956	12966
925.064	12817
925.172	12692
925.279	12749
925.387	12802
925.494	12791
925.602	12954
925.709	12722
925.816	12616
925.924	12715
926.031	12772
926.138	12707
926.245	12719
926.352	12620
926.459	12779
926.566	12734
926.673	12616
926.779	12585
926.886	12555
926.993	12483
927.099	12334
927.206	12342
927.312	12323
927.419	12414
927.525	12448
927.631	12388
927.737	12232
927.843	12102
927.95	12064
928.056	12155
928.162	12205
928.267	12190
928.373	12749
928.479	12300
928.585	12034
928.69	12076
928.796	12197
928.901	11935
929.007	11874
929.112	12098
929.218	11992
929.323	11965
929.428	11889
929.533	12079
929.638	11783
929.743	11809
929.848	11988
929.953	11840
930.058	11745
930.163	11630
930.267	11619
930.372	11760
930.477	11554
930.581	11851
930.685	11695
930.79	11512
930.894	11471
930.998	11497
931.103	11562
931.207	11231
931.311	11159
931.415	11079
931.519	10873
931.623	10911
