Data from test_V78500241_843.txt Node
Date: Fri Mar 25 15:47:38 CST 2022
User: usil
Spectrometer: V785-0024
Trigger mode: 0
Integration Time (sec): 4.000000E-1
Scans to average: 1
Nonlinearity correction enabled: false
Boxcar width: 0
Storing dark spectrum: false
XAxis mode: Wavelengths
Number of Pixels in Spectrum: 1024
>>>>>Begin Spectral Data<<<<<
801.071	27743
801.214	27686
801.356	27420
801.499	27382
801.641	27294
801.783	27264
801.926	27378
802.068	27336
802.211	27294
802.353	27138
802.496	26921
802.638	26937
802.78	26762
802.923	26910
803.065	26952
803.208	26998
803.35	27001
803.492	27062
803.635	27070
803.777	26971
803.919	27146
804.061	27382
804.204	27039
804.346	27108
804.488	27005
804.63	27051
804.773	27001
804.915	27173
805.057	27252
805.199	27138
805.341	27249
805.483	27336
805.626	27207
805.768	27112
805.91	27260
806.052	27294
806.194	27180
806.336	27561
806.478	27344
806.62	27268
806.762	27458
806.904	27523
807.046	27808
807.188	27701
807.33	27804
807.472	27709
807.614	27766
807.756	27808
807.898	27561
808.04	27542
808.182	27462
808.324	27382
808.465	27519
808.607	27816
808.749	27892
808.891	28101
809.033	28059
809.174	27956
809.316	28040
809.458	27899
809.6	27964
809.741	27941
809.883	28116
810.025	28268
810.166	28177
810.308	28150
810.45	28086
810.591	28128
810.733	27895
810.875	27998
811.016	27960
811.158	27789
811.299	28090
811.441	28158
811.582	28166
811.724	28006
811.865	27937
812.007	28128
812.148	27987
812.29	27979
812.431	28135
812.573	28303
812.714	28219
812.855	28344
812.997	28500
813.138	28641
813.279	28569
813.421	28443
813.562	28394
813.703	28333
813.845	28185
813.986	27964
814.127	27720
814.268	27500
814.41	27747
814.551	27660
814.692	27599
814.833	27599
814.974	27545
815.115	27587
815.256	27454
815.397	27348
815.539	27439
815.68	27363
815.821	27447
815.962	27439
816.103	27412
816.244	27389
816.385	27291
816.526	27249
816.666	26982
816.807	26929
816.948	27127
817.089	26933
817.23	26887
817.371	26952
817.512	26921
817.653	26910
817.793	26880
817.934	26823
818.075	26952
818.216	26948
818.356	26830
818.497	26952
818.638	26583
818.778	26682
818.919	26705
819.06	26655
819.2	26804
819.341	26872
819.481	26925
819.622	27096
819.762	27230
819.903	27039
820.043	26967
820.184	27032
820.324	26986
820.465	27165
820.605	26948
820.746	27051
820.886	26948
821.026	26826
821.167	26940
821.307	27066
821.447	27017
821.588	26925
821.728	26811
821.868	26625
822.008	26419
822.149	26336
822.289	26301
822.429	26149
822.569	26024
822.709	26164
822.849	25940
822.99	25913
823.13	25955
823.27	25887
823.41	25712
823.55	25590
823.69	25791
823.83	25799
823.97	25677
824.11	25495
824.25	25400
824.389	25582
824.529	25590
824.669	25544
824.809	25727
824.949	25578
825.089	25597
825.228	25616
825.368	25430
825.508	25377
825.648	25434
825.787	25590
825.927	25487
826.067	25316
826.206	25384
826.346	25411
826.485	25518
826.625	25434
826.765	25479
826.904	25392
827.044	25168
827.183	25118
827.323	25088
827.462	25118
827.601	25152
827.741	25183
827.88	25129
828.02	24916
828.159	25110
828.298	25137
828.437	25308
828.577	25046
828.716	25190
828.855	24932
828.994	24810
829.134	24867
829.273	24825
829.412	24707
829.551	24650
829.69	24757
829.829	24688
829.968	24897
830.107	24928
830.246	24757
830.385	24703
830.524	24578
830.663	24635
830.802	24661
830.941	24315
831.08	24308
831.219	24414
831.357	24426
831.496	24528
831.635	24369
831.774	24494
831.913	24311
832.051	24224
832.19	24068
832.329	24190
832.467	23999
832.606	24018
832.744	24049
832.883	24011
833.022	24068
833.16	24083
833.299	24148
833.437	24110
833.576	24163
833.714	24174
833.852	24186
833.991	24228
834.129	24239
834.267	24174
834.406	24197
834.544	24194
834.682	24133
834.821	24209
834.959	24224
835.097	24102
835.235	24232
835.373	24106
835.511	24079
835.65	24057
835.788	23958
835.926	23794
836.064	23866
836.202	23794
836.34	24072
836.478	23954
836.615	23908
836.753	23977
836.891	24133
837.029	23965
837.167	23893
837.305	23931
837.443	23805
837.58	23859
837.718	24022
837.856	23878
837.993	23771
838.131	23722
838.269	23767
838.406	23737
838.544	23748
838.681	23490
838.819	23509
838.956	23258
839.094	23185
839.231	23341
839.369	23478
839.506	23714
839.643	23528
839.781	23376
839.918	23204
840.055	23254
840.193	23322
840.33	23292
840.467	23170
840.604	23216
840.742	23452
840.879	23216
841.016	23064
841.153	23235
841.29	23269
841.427	23284
841.564	23254
841.701	23136
841.838	23117
841.975	23102
842.112	23140
842.249	23098
842.385	22930
842.522	23185
842.659	23033
842.796	22949
842.933	23143
843.069	22972
843.206	22908
843.343	22984
843.479	23022
843.616	22927
843.752	22755
843.889	22755
844.025	22984
844.162	22759
844.298	22793
844.435	22748
844.571	22736
844.708	22774
844.844	22881
844.98	22862
845.117	22782
845.253	22630
845.389	22653
845.525	22538
845.661	22603
845.798	22550
845.934	22523
846.07	22405
846.206	22470
846.342	22679
846.478	22466
846.614	22287
846.75	22135
846.886	22154
847.022	22322
847.158	22204
847.294	22147
847.429	22128
847.565	22154
847.701	22466
847.837	21949
847.972	21884
848.108	21994
848.244	22055
848.379	21857
848.515	21812
848.65	21709
848.786	21800
848.921	21743
849.057	21975
849.192	21873
849.328	21781
849.463	21739
849.598	21698
849.734	21747
849.869	21698
850.004	21603
850.14	21496
850.275	21652
850.41	21492
850.545	21580
850.68	21466
850.815	21599
850.95	21389
851.085	21641
851.22	21660
851.355	21523
851.49	21595
851.625	21564
851.76	21564
851.895	21511
852.03	21534
852.165	21492
852.299	21671
852.434	21679
852.569	21610
852.703	21568
852.838	21603
852.973	21530
853.107	21667
853.242	21553
853.376	21291
853.511	21321
853.645	21408
853.78	21447
853.914	21416
854.048	21393
854.183	21397
854.317	21439
854.451	21599
854.585	21420
854.72	21428
854.854	21389
854.988	21351
855.122	21435
855.256	21157
855.39	21332
855.524	21408
855.658	21534
855.792	21329
855.926	21363
856.06	21420
856.194	21454
856.327	21287
856.461	21302
856.595	21348
856.729	21405
856.862	21580
856.996	21367
857.13	21591
857.263	21564
857.397	21625
857.53	21313
857.664	21344
857.797	21454
857.931	21473
858.064	21435
858.197	21408
858.331	21355
858.464	21469
858.597	21272
858.731	21291
858.864	21351
858.997	21268
859.13	21367
859.263	21424
859.396	21382
859.529	21306
859.662	21332
859.795	21275
859.928	21435
860.061	21580
860.194	21572
860.327	21397
860.46	21378
860.592	21492
860.725	21561
860.858	21485
860.99	21477
861.123	21340
861.256	21408
861.388	21424
861.521	22036
861.653	21184
861.786	21146
861.918	21169
862.05	21363
862.183	21317
862.315	21374
862.447	21401
862.58	21344
862.712	21135
862.844	20948
862.976	21161
863.108	21226
863.24	21492
863.372	20937
863.504	21150
863.636	21081
863.768	21119
863.9	21058
864.032	20960
864.164	21085
864.296	21066
864.428	21195
864.559	21184
864.691	21100
864.823	21127
864.954	21051
865.086	20960
865.217	21013
865.349	20979
865.48	21017
865.612	20990
865.743	20990
865.875	20971
866.006	20883
866.137	20994
866.269	21036
866.4	20925
866.531	20853
866.662	20899
866.793	20868
866.924	21005
867.055	21074
867.186	20986
867.317	20963
867.448	20804
867.579	20883
867.71	20849
867.841	20716
867.972	20963
868.103	20918
868.233	20880
868.364	20891
868.495	20944
868.625	21165
868.756	21211
868.886	21100
869.017	21108
869.147	21294
869.278	21336
869.408	21298
869.539	21161
869.669	21207
869.799	21142
869.929	21313
870.06	21245
870.19	21488
870.32	21488
870.45	21477
870.58	21564
870.71	21587
870.84	21701
870.97	21572
871.1	21557
871.23	21816
871.36	21751
871.489	21682
871.619	21720
871.749	21800
871.879	21831
872.008	21827
872.138	21728
872.267	21720
872.397	21587
872.526	21641
872.656	21564
872.785	21622
872.915	21785
873.044	21842
873.173	21846
873.303	21873
873.432	21907
873.561	21941
873.69	21793
873.819	21804
873.948	21736
874.077	21850
874.206	21789
874.335	21838
874.464	22017
874.593	22101
874.722	21930
874.851	22063
874.979	21975
875.108	22105
875.237	21991
875.365	21949
875.494	21915
875.623	21949
875.751	21975
875.88	21979
876.008	22272
876.136	22059
876.265	22367
876.393	22493
876.521	22459
876.65	22493
876.778	22405
876.906	22360
877.034	22375
877.162	22360
877.29	22242
877.418	22318
877.546	22379
877.674	22417
877.802	22371
877.93	22398
878.058	22329
878.185	22242
878.313	22226
878.441	22356
878.568	22177
878.696	22196
878.824	22504
878.951	22443
879.079	22580
879.206	22573
879.333	22535
879.461	22394
879.588	22409
879.715	22535
879.842	22580
879.97	22508
880.097	22341
880.224	22124
880.351	22181
880.478	22238
880.605	22086
880.732	22261
880.859	22367
880.986	22314
881.112	22150
881.239	22124
881.366	21873
881.493	21808
881.619	21755
881.746	21770
881.872	21770
881.999	21667
882.125	21663
882.252	21720
882.378	21800
882.505	21941
882.631	21614
882.757	21507
882.883	21450
883.01	21500
883.136	21336
883.262	21329
883.388	21241
883.514	21466
883.64	21397
883.766	21428
883.892	21211
884.018	21336
884.143	21359
884.269	21511
884.395	21157
884.52	21020
884.646	21070
884.772	20986
884.897	21062
885.023	21119
885.148	21142
885.274	21184
885.399	21127
885.524	21154
885.65	21070
885.775	21108
885.9	21051
886.025	21226
886.15	21131
886.275	21005
886.4	21036
886.525	21028
886.65	21116
886.775	21032
886.9	21233
887.025	21154
887.149	21001
887.274	21020
887.399	20807
887.523	20902
887.648	20762
887.773	20724
887.897	20895
888.021	20887
888.146	20762
888.27	20963
888.395	20998
888.519	20777
888.643	20880
888.767	20990
888.891	20686
889.015	20556
889.139	20655
889.263	20689
889.387	20838
889.511	20849
889.635	20895
889.759	20746
889.883	20602
890.006	20708
890.13	20663
890.254	20507
890.377	20552
890.501	20613
890.624	20339
890.748	20423
890.871	20317
890.995	20332
891.118	20130
891.241	20240
891.364	20233
891.488	20298
891.611	20214
891.734	20294
891.857	20286
891.98	20298
892.103	20442
892.226	20301
892.349	20187
892.471	19959
892.594	20214
892.717	20187
892.839	20107
892.962	20191
893.085	20229
893.207	20069
893.33	19875
893.452	19997
893.575	20248
893.697	20153
893.819	20336
893.941	20317
894.064	20240
894.186	20031
894.308	19993
894.43	20252
894.552	20202
894.674	20244
894.796	20054
894.918	20088
895.04	20065
895.161	20187
895.283	20172
895.405	20164
895.526	20081
895.648	20180
895.769	20073
895.891	20202
896.012	20195
896.134	20240
896.255	20142
896.376	19997
896.498	20221
896.619	20195
896.74	20119
896.861	20267
896.982	20442
897.103	20537
897.224	20408
897.345	20412
897.466	20377
897.587	20434
897.708	20438
897.828	20495
897.949	20332
898.07	20191
898.19	20301
898.311	20396
898.431	20301
898.552	20313
898.672	20324
898.792	20434
898.913	20275
899.033	20233
899.153	20130
899.273	20058
899.393	20035
899.513	20157
899.633	20100
899.753	20126
899.873	20046
899.993	20065
900.113	20035
900.232	19879
900.352	19993
900.472	19967
900.591	19871
900.711	20031
900.83	19917
900.95	20001
901.069	19875
901.189	19871
901.308	19620
901.427	19556
901.546	19411
901.665	19571
901.784	19396
901.904	19419
902.023	19206
902.141	19061
902.26	19122
902.379	19015
902.498	18977
902.617	18951
902.735	19000
902.854	18958
902.973	18852
903.091	18661
903.21	18589
903.328	18604
903.446	18555
903.565	18410
903.683	18437
903.801	18391
903.919	18342
904.038	18330
904.156	18323
904.274	18399
904.392	18273
904.51	18171
904.627	18072
904.745	18251
904.863	18308
904.981	17931
905.098	17901
905.216	17980
905.334	17973
905.451	17908
905.569	17847
905.686	17988
905.803	17855
905.921	17745
906.038	17843
906.155	17604
906.272	17570
906.389	17562
906.506	17573
906.623	17551
906.74	17372
906.857	17250
906.974	17345
907.091	17467
907.208	17535
907.324	17474
907.441	17303
907.557	17143
907.674	17071
907.79	17075
907.907	17170
908.023	17090
908.139	17258
908.256	17067
908.372	17071
908.488	16972
908.604	16873
908.72	16816
908.836	16923
908.952	16809
909.068	16896
909.184	16995
909.3	16820
909.415	16892
909.531	16862
909.647	16615
909.762	16561
909.878	16470
909.993	16474
910.108	16569
910.224	16637
910.339	16508
910.454	16398
910.57	16318
910.685	16318
910.8	16554
910.915	16481
911.03	16303
911.145	16150
911.259	16143
911.374	16112
911.489	16086
911.604	16090
911.718	15861
911.833	15934
911.947	15789
912.062	15838
912.176	15934
912.291	15953
912.405	15880
912.519	15922
912.633	16067
912.748	15964
912.862	15797
912.976	15709
913.09	15629
913.204	15774
913.318	15709
913.431	15641
913.545	15865
913.659	15743
913.772	15625
913.886	15496
914	15405
914.113	15599
914.226	15561
914.34	15530
914.453	15469
914.566	15614
914.68	15492
914.793	15355
914.906	15195
915.019	15188
915.132	15039
915.245	15108
915.358	15131
915.47	15192
915.583	15184
915.696	15135
915.809	15332
915.921	15249
916.034	15108
916.146	15058
916.259	14982
916.371	15070
916.483	15077
916.595	14941
916.708	14929
916.82	14944
916.932	14967
917.044	14956
917.156	14864
917.268	14750
917.38	14823
917.491	14667
917.603	14777
917.715	14868
917.826	14834
917.938	14712
918.049	14632
918.161	14727
918.272	14834
918.384	14918
918.495	14800
918.606	14610
918.717	14469
918.828	14545
918.939	14465
919.05	14438
919.161	14461
919.272	14275
919.383	14377
919.494	14587
919.604	14819
919.715	14484
919.826	14446
919.936	14488
920.047	14446
920.157	14492
920.267	14697
920.378	14503
920.488	14400
920.598	14606
920.708	14804
920.818	14636
920.928	14617
921.038	14785
921.148	14830
921.258	14419
921.368	14400
921.477	14252
921.587	14187
921.697	14050
921.806	14271
921.916	14103
922.025	14020
922.134	13868
922.244	13898
922.353	13963
922.462	13769
922.571	13712
922.68	13575
922.789	13540
922.898	13544
923.007	13502
923.116	13597
923.224	13506
923.333	13544
923.442	13381
923.55	13308
923.659	13377
923.767	13415
923.876	13316
923.984	13464
924.092	13209
924.201	13274
924.309	13293
924.417	13324
924.525	13202
924.633	13164
924.741	14233
924.849	13099
924.956	13149
925.064	12996
925.172	12913
925.279	12958
925.387	12905
925.494	12924
925.602	12962
925.709	13031
925.816	12913
925.924	12821
926.031	12966
926.138	12920
926.245	12913
926.352	12795
926.459	12977
926.566	13008
926.673	12802
926.779	12745
926.886	12673
926.993	12547
927.099	12479
927.206	12437
927.312	12464
927.419	12570
927.525	12483
927.631	12509
927.737	12372
927.843	12311
927.95	12220
928.056	12308
928.162	12391
928.267	12380
928.373	13065
928.479	12350
928.585	12182
928.69	12289
928.796	12369
928.901	12140
929.007	12114
929.112	12243
929.218	12171
929.323	12076
929.428	12129
929.533	12224
929.638	11977
929.743	11992
929.848	11999
929.953	11973
930.058	11958
930.163	11783
930.267	11722
930.372	11950
930.477	11665
930.581	11840
930.685	11836
930.79	11570
930.894	11642
930.998	11714
931.103	11703
931.207	11463
931.311	11288
931.415	11189
931.519	10961
931.623	11045
