Data from test_V78500241_1934.txt Node
Date: Fri Mar 25 15:55:11 CST 2022
User: usil
Spectrometer: V785-0024
Trigger mode: 0
Integration Time (sec): 4.000000E-1
Scans to average: 1
Nonlinearity correction enabled: false
Boxcar width: 0
Storing dark spectrum: false
XAxis mode: Wavelengths
Number of Pixels in Spectrum: 1024
>>>>>Begin Spectral Data<<<<<
801.071	28512
801.214	28459
801.356	28276
801.499	28226
801.641	28017
801.783	28051
801.926	28207
802.068	28177
802.211	28158
802.353	27975
802.496	27797
802.638	27774
802.78	27861
802.923	27644
803.065	27671
803.208	27759
803.35	27770
803.492	27949
803.635	28169
803.777	27838
803.919	28002
804.061	28333
804.204	28090
804.346	27941
804.488	27960
804.63	28032
804.773	28006
804.915	28067
805.057	28055
805.199	27911
805.341	28082
805.483	28310
805.626	28246
805.768	28078
805.91	28055
806.052	28238
806.194	28006
806.336	28379
806.478	28196
806.62	28204
806.762	28424
806.904	28295
807.046	28664
807.188	28599
807.33	28596
807.472	28744
807.614	28554
807.756	28603
807.898	28405
808.04	28390
808.182	28401
808.324	28394
808.465	28443
808.607	28763
808.749	28839
808.891	28991
809.033	28930
809.174	29018
809.316	28831
809.458	28900
809.6	28683
809.741	28972
809.883	29086
810.025	29166
810.166	29006
810.308	29102
810.45	29132
810.591	29025
810.733	28923
810.875	28881
811.016	28850
811.158	28615
811.299	29022
811.441	29094
811.582	29018
811.724	28869
811.865	28812
812.007	28702
812.148	28953
812.29	28858
812.431	28980
812.573	29349
812.714	29273
812.855	29326
812.997	29387
813.138	29604
813.279	29486
813.421	29463
813.562	29159
813.703	29242
813.845	29060
813.986	28744
814.127	28675
814.268	28626
814.41	28637
814.551	28656
814.692	28504
814.833	28497
814.974	28668
815.115	28542
815.256	28417
815.397	28497
815.539	28421
815.68	28436
815.821	28310
815.962	28421
816.103	28379
816.244	28143
816.385	28162
816.526	28196
816.666	27941
816.807	27892
816.948	27956
817.089	27899
817.23	27884
817.371	27854
817.512	27838
817.653	27720
817.793	27854
817.934	27892
818.075	27998
818.216	27918
818.356	27850
818.497	27732
818.638	27701
818.778	27717
818.919	27701
819.06	27774
819.2	27831
819.341	27861
819.481	27907
819.622	27960
819.762	28253
819.903	28040
820.043	28048
820.184	27987
820.324	27975
820.465	28002
820.605	28044
820.746	28097
820.886	27876
821.026	28059
821.167	27918
821.307	28067
821.447	27854
821.588	27751
821.728	27747
821.868	27622
822.008	27351
822.149	27252
822.289	27245
822.429	27112
822.569	27051
822.709	26921
822.849	26807
822.99	26952
823.13	26948
823.27	26686
823.41	26621
823.55	26514
823.69	26655
823.83	26674
823.97	26598
824.11	26469
824.25	26415
824.389	26560
824.529	26560
824.669	26507
824.809	26651
824.949	26598
825.089	26609
825.228	26514
825.368	26423
825.508	26434
825.648	26476
825.787	26431
825.927	26385
826.067	26351
826.206	26438
826.346	26351
826.485	26370
826.625	26267
826.765	26537
826.904	26343
827.044	26176
827.183	26256
827.323	25986
827.462	26168
827.601	26081
827.741	26062
827.88	26237
828.02	26043
828.159	26054
828.298	25917
828.437	26058
828.577	26077
828.716	26115
828.855	25978
828.994	25833
829.134	25826
829.273	25856
829.412	25693
829.551	25852
829.69	25860
829.829	25734
829.968	25746
830.107	25852
830.246	25860
830.385	25624
830.524	25620
830.663	25567
830.802	25537
830.941	25365
831.08	25415
831.219	25567
831.357	25510
831.496	25643
831.635	25426
831.774	25392
831.913	25263
832.051	25263
832.19	25209
832.329	25209
832.467	25156
832.606	25069
832.744	25034
832.883	25084
833.022	24981
833.16	25023
833.299	25069
833.437	25114
833.576	25198
833.714	25110
833.852	25232
833.991	25080
834.129	25270
834.267	25236
834.406	25069
834.544	25217
834.682	25118
834.821	24977
834.959	25236
835.097	24966
835.235	25133
835.373	25187
835.511	25034
835.65	25091
835.788	25057
835.926	24856
836.064	24673
836.202	24806
836.34	24856
836.478	24894
836.615	24905
836.753	24821
836.891	25034
837.029	24939
837.167	24890
837.305	24882
837.443	24783
837.58	24837
837.718	24894
837.856	24810
837.993	24559
838.131	24798
838.269	24612
838.406	24623
838.544	24639
838.681	24334
838.819	24369
838.956	24281
839.094	24254
839.231	24311
839.369	24399
839.506	24604
839.643	24525
839.781	24197
839.918	24163
840.055	24140
840.193	24304
840.33	24201
840.467	24205
840.604	24277
840.742	24391
840.879	24007
841.016	23980
841.153	24102
841.29	24251
841.427	24182
841.564	24117
841.701	24178
841.838	24079
841.975	24129
842.112	24041
842.249	23980
842.385	23901
842.522	24186
842.659	23958
842.796	23954
842.933	23866
843.069	23863
843.206	23870
843.343	23748
843.479	23885
843.616	23893
843.752	23710
843.889	23691
844.025	23714
844.162	23680
844.298	23790
844.435	23585
844.571	23665
844.708	23722
844.844	23790
844.98	23840
845.117	23756
845.253	23554
845.389	23524
845.525	23596
845.661	23436
845.798	23493
845.934	23482
846.07	23425
846.206	23436
846.342	23672
846.478	23299
846.614	23033
846.75	23003
846.886	22957
847.022	23178
847.158	23102
847.294	23147
847.429	23067
847.565	23124
847.701	23337
847.837	22854
847.972	22801
848.108	22972
848.244	22835
848.379	22710
848.515	22618
848.65	22698
848.786	22752
848.921	22763
849.057	22717
849.192	22805
849.328	22797
849.463	22664
849.598	22694
849.734	22615
849.869	22592
850.004	22546
850.14	22455
850.275	22538
850.41	22516
850.545	22379
850.68	22394
850.815	22508
850.95	22451
851.085	22687
851.22	22554
851.355	22531
851.49	22443
851.625	22394
851.76	22538
851.895	22390
852.03	22421
852.165	22443
852.299	22508
852.434	22634
852.569	22462
852.703	22527
852.838	22527
852.973	22618
853.107	22516
853.242	22459
853.376	22295
853.511	22154
853.645	22268
853.78	22249
853.914	22280
854.048	22325
854.183	22276
854.317	22333
854.451	22500
854.585	22261
854.72	22333
854.854	22455
854.988	22207
855.122	22318
855.256	22128
855.39	22257
855.524	22390
855.658	22265
855.792	22394
855.926	22303
856.06	22447
856.194	22447
856.327	22181
856.461	22265
856.595	22177
856.729	22402
856.862	22538
856.996	22371
857.13	22337
857.263	22447
857.397	22356
857.53	22272
857.664	22337
857.797	22299
857.931	22363
858.064	22238
858.197	22318
858.331	22238
858.464	22181
858.597	22291
858.731	22215
858.864	22226
858.997	22211
859.13	22310
859.263	22413
859.396	22421
859.529	22188
859.662	22268
859.795	22219
859.928	22306
860.061	22394
860.194	22405
860.327	22352
860.46	22314
860.592	22417
860.725	22516
860.858	22409
860.99	22253
861.123	22135
861.256	22291
861.388	22306
861.521	23204
861.653	22082
861.786	22086
861.918	22139
862.05	22325
862.183	22242
862.315	22242
862.447	22238
862.58	22295
862.712	21956
862.844	21804
862.976	22070
863.108	22082
863.24	22405
863.372	21915
863.504	21979
863.636	21926
863.768	22074
863.9	21876
864.032	21732
864.164	21895
864.296	22029
864.428	22173
864.559	22002
864.691	22036
864.823	22029
864.954	21869
865.086	22051
865.217	21960
865.349	21888
865.48	21937
865.612	21880
865.743	22048
865.875	21926
866.006	21972
866.137	21876
866.269	21895
866.4	21918
866.531	21717
866.662	21709
866.793	21918
866.924	21804
867.055	21926
867.186	21823
867.317	21660
867.448	21728
867.579	21873
867.71	21793
867.841	21686
867.972	21850
868.103	21728
868.233	21755
868.364	21732
868.495	21838
868.625	21949
868.756	22116
868.886	21953
869.017	21941
869.147	22177
869.278	22139
869.408	22013
869.539	21968
869.669	22131
869.799	22192
869.929	22067
870.06	22230
870.19	22341
870.32	22261
870.45	22455
870.58	22363
870.71	22554
870.84	22550
870.97	22363
871.1	22272
871.23	22569
871.36	22611
871.489	22348
871.619	22645
871.749	22531
871.879	22755
872.008	22694
872.138	22580
872.267	22626
872.397	22542
872.526	22386
872.656	22512
872.785	22489
872.915	22847
873.044	22641
873.173	22569
873.303	22713
873.432	22694
873.561	22782
873.69	22611
873.819	22656
873.948	22679
874.077	22725
874.206	22527
874.335	22713
874.464	22691
874.593	22873
874.722	22816
874.851	22869
874.979	22778
875.108	22915
875.237	22839
875.365	22801
875.494	22809
875.623	22904
875.751	22786
875.88	22984
876.008	23094
876.136	23185
876.265	23250
876.393	23280
876.521	23490
876.65	23402
876.778	23254
876.906	23170
877.034	23239
877.162	23223
877.29	23242
877.418	23379
877.546	23193
877.674	23189
877.802	23178
877.93	23208
878.058	23193
878.185	23204
878.313	23181
878.441	23117
878.568	23064
878.696	23147
878.824	23235
878.951	23117
879.079	23330
879.206	23459
879.333	23421
879.461	23200
879.588	23254
879.715	23433
879.842	23406
879.97	23299
880.097	22930
880.224	23052
880.351	23022
880.478	23239
880.605	22927
880.732	23056
880.859	23349
880.986	23029
881.112	23060
881.239	22930
881.366	22687
881.493	22687
881.619	22554
881.746	22691
881.872	22550
881.999	22493
882.125	22523
882.252	22527
882.378	22577
882.505	22637
882.631	22497
882.757	22280
882.883	22382
883.01	22394
883.136	22135
883.262	22169
883.388	22093
883.514	22272
883.64	22280
883.766	22204
883.892	22025
884.018	22124
884.143	22166
884.269	22356
884.395	22029
884.52	21880
884.646	22013
884.772	21903
884.897	21728
885.023	21926
885.148	21964
885.274	21998
885.399	22010
885.524	21835
885.65	21968
885.775	21842
885.9	21774
886.025	21998
886.15	21907
886.275	21945
886.4	21816
886.525	21800
886.65	21682
886.775	21945
886.9	22036
887.025	22029
887.149	21755
887.274	21800
887.399	21682
887.523	21743
887.648	21614
887.773	21675
887.897	21770
888.021	21835
888.146	21671
888.27	21717
888.395	21739
888.519	21663
888.643	21793
888.767	21603
888.891	21660
889.015	21389
889.139	21443
889.263	21458
889.387	21675
889.511	21709
889.635	21500
889.759	21439
889.883	21431
890.006	21420
890.13	21504
890.254	21397
890.377	21374
890.501	21195
890.624	21169
890.748	21184
890.871	21150
890.995	21039
891.118	21043
891.241	21055
891.364	21032
891.488	21199
891.611	20979
891.734	21001
891.857	21058
891.98	21017
892.103	21131
892.226	20963
892.349	21017
892.471	20823
892.594	20876
892.717	20918
892.839	20914
892.962	20887
893.085	20937
893.207	20883
893.33	20857
893.452	20880
893.575	20990
893.697	20906
893.819	21047
893.941	21127
894.064	21001
894.186	20792
894.308	20720
894.43	21020
894.552	21039
894.674	20929
894.796	20883
894.918	20872
895.04	20849
895.161	20982
895.283	20887
895.405	20849
895.526	21009
895.648	20804
895.769	20834
895.891	20861
896.012	20944
896.134	20826
896.255	20998
896.376	20876
896.498	20880
896.619	20853
896.74	20724
896.861	20849
896.982	21085
897.103	21408
897.224	21135
897.345	21188
897.466	21024
897.587	21051
897.708	21150
897.828	21039
897.949	20933
898.07	20864
898.19	21051
898.311	21093
898.431	21013
898.552	21195
898.672	21203
898.792	21096
898.913	21173
899.033	20960
899.153	20937
899.273	20796
899.393	20880
899.513	20929
899.633	20838
899.753	20872
899.873	20788
899.993	20891
900.113	20819
900.232	20906
900.352	20743
900.472	20609
900.591	20541
900.711	20648
900.83	20571
900.95	20815
901.069	20609
901.189	20454
901.308	20259
901.427	20157
901.546	20084
901.665	20199
901.784	20111
901.904	20027
902.023	19887
902.141	19689
902.26	19799
902.379	19750
902.498	19620
902.617	19567
902.735	19666
902.854	19670
902.973	19548
903.091	19289
903.21	19259
903.328	19228
903.446	19156
903.565	19118
903.683	19145
903.801	19084
903.919	19046
904.038	19015
904.156	18947
904.274	19088
904.392	18776
904.51	18814
904.627	18981
904.745	18935
904.863	18947
904.981	18703
905.098	18460
905.216	18563
905.334	18475
905.451	18589
905.569	18460
905.686	18616
905.803	18509
905.921	18289
906.038	18361
906.155	18296
906.272	18232
906.389	18304
906.506	18060
906.623	18026
906.74	18026
906.857	18057
906.974	17977
907.091	18194
907.208	18235
907.324	18019
907.441	18030
907.557	17847
907.674	17817
907.79	17741
907.907	17805
908.023	17729
908.139	17809
908.256	17760
908.372	17623
908.488	17672
908.604	17501
908.72	17524
908.836	17600
908.952	17414
909.068	17452
909.184	17551
909.3	17490
909.415	17547
909.531	17493
909.647	17246
909.762	17227
909.878	17193
909.993	17254
910.108	17204
910.224	17117
910.339	17181
910.454	17052
910.57	16938
910.685	17003
910.8	17227
910.915	17227
911.03	17033
911.145	16835
911.259	16797
911.374	16771
911.489	16729
911.604	16653
911.718	16592
911.833	16554
911.947	16421
912.062	16500
912.176	16618
912.291	16523
912.405	16558
912.519	16675
912.633	16782
912.748	16573
912.862	16470
912.976	16341
913.09	16226
913.204	16219
913.318	16329
913.431	16363
913.545	16382
913.659	16451
913.772	16246
913.886	16200
914	16150
914.113	16177
914.226	16352
914.34	16131
914.453	15994
914.566	16200
914.68	15998
914.793	15983
914.906	15789
915.019	15755
915.132	15618
915.245	15774
915.358	15705
915.47	15663
915.583	15652
915.696	15698
915.809	15865
915.921	15766
916.034	15641
916.146	15542
916.259	15622
916.371	15686
916.483	15606
916.595	15545
916.708	15542
916.82	15526
916.932	15488
917.044	15488
917.156	15397
917.268	15382
917.38	15439
917.491	15355
917.603	15389
917.715	15443
917.826	15454
917.938	15302
918.049	15173
918.161	15389
918.272	15412
918.384	15412
918.495	15192
918.606	15135
918.717	15020
918.828	15195
918.939	15176
919.05	14971
919.161	15108
919.272	14842
919.383	14975
919.494	15081
919.604	15218
919.715	15066
919.826	14960
919.936	15112
920.047	15165
920.157	15017
920.267	15249
920.378	15165
920.488	15028
920.598	15165
920.708	15374
920.818	15157
920.928	15199
921.038	15291
921.148	15199
921.258	15024
921.368	14929
921.477	14746
921.587	14651
921.697	14705
921.806	14727
921.916	14659
922.025	14408
922.134	14465
922.244	14347
922.353	14511
922.462	14282
922.571	14278
922.68	14088
922.789	14107
922.898	14111
923.007	14043
923.116	14069
923.224	14077
923.333	14027
923.442	13993
923.55	13822
923.659	13970
923.767	13978
923.876	13845
923.984	13887
924.092	13795
924.201	13784
924.309	13799
924.417	13765
924.525	13666
924.633	13715
924.741	14644
924.849	13571
924.956	13613
925.064	13502
925.172	13411
925.279	13400
925.387	13529
925.494	13422
925.602	13464
925.709	13464
925.816	13350
925.924	13301
926.031	13369
926.138	13377
926.245	13407
926.352	13278
926.459	13411
926.566	13396
926.673	13316
926.779	13126
926.886	13202
926.993	13099
927.099	13046
927.206	12939
927.312	12833
927.419	13053
927.525	13015
927.631	12989
927.737	12863
927.843	12821
927.95	12738
928.056	12719
928.162	12776
928.267	12894
928.373	13476
928.479	12814
928.585	12654
928.69	12783
928.796	12757
928.901	12563
929.007	12506
929.112	12608
929.218	12631
929.323	12517
929.428	12570
929.533	12639
929.638	12437
929.743	12334
929.848	12532
929.953	12437
930.058	12304
930.163	12201
930.267	12194
930.372	12334
930.477	12098
930.581	12330
930.685	12277
930.79	12091
930.894	12095
930.998	12038
931.103	12133
931.207	11764
931.311	11741
931.415	11619
931.519	11444
931.623	11471
