Data from test_V78500241_2400.txt Node
Date: Fri Mar 25 15:58:25 CST 2022
User: usil
Spectrometer: V785-0024
Trigger mode: 0
Integration Time (sec): 4.000000E-1
Scans to average: 1
Nonlinearity correction enabled: false
Boxcar width: 0
Storing dark spectrum: false
XAxis mode: Wavelengths
Number of Pixels in Spectrum: 1024
>>>>>Begin Spectral Data<<<<<
801.071	29022
801.214	28946
801.356	28820
801.499	28618
801.641	28637
801.783	28611
801.926	28405
802.068	28542
802.211	28455
802.353	28455
802.496	28310
802.638	28246
802.78	28196
802.923	28238
803.065	28147
803.208	28188
803.35	28211
803.492	28470
803.635	28459
803.777	28333
803.919	28519
804.061	28656
804.204	28626
804.346	28451
804.488	28386
804.63	28668
804.773	28527
804.915	28641
805.057	28588
805.199	28519
805.341	28656
805.483	28790
805.626	28744
805.768	28607
805.91	28702
806.052	28649
806.194	28660
806.336	28793
806.478	28736
806.62	28744
806.762	28702
806.904	28991
807.046	29277
807.188	29109
807.33	29136
807.472	29296
807.614	29064
807.756	29010
807.898	28892
808.04	28782
808.182	28919
808.324	29064
808.465	28995
808.607	29181
808.749	29284
808.891	29322
809.033	29619
809.174	29452
809.316	29273
809.458	29395
809.6	29330
809.741	29501
809.883	29596
810.025	29794
810.166	29783
810.308	29642
810.45	29638
810.591	29463
810.733	29372
810.875	29410
811.016	29326
811.158	29379
811.299	29509
811.441	29562
811.582	29547
811.724	29421
811.865	29398
812.007	29444
812.148	29307
812.29	29318
812.431	29733
812.573	29783
812.714	29741
812.855	29950
812.997	30038
813.138	30114
813.279	30053
813.421	30026
813.562	29836
813.703	29775
813.845	29604
813.986	29337
814.127	29277
814.268	29128
814.41	29128
814.551	29181
814.692	29185
814.833	29064
814.974	29048
815.115	29140
815.256	28862
815.397	29037
815.539	28984
815.68	29048
815.821	28873
815.962	28862
816.103	28885
816.244	28843
816.385	28790
816.526	28538
816.666	28451
816.807	28440
816.948	28428
817.089	28630
817.23	28405
817.371	28386
817.512	28398
817.653	28440
817.793	28341
817.934	28428
818.075	28363
818.216	28500
818.356	28265
818.497	28325
818.638	28234
818.778	28177
818.919	28158
819.06	28154
819.2	28382
819.341	28535
819.481	28401
819.622	28519
819.762	28793
819.903	28653
820.043	28778
820.184	28580
820.324	28478
820.465	28603
820.605	28599
820.746	28519
820.886	28485
821.026	28535
821.167	28584
821.307	28565
821.447	28394
821.588	28322
821.728	28318
821.868	28268
822.008	27956
822.149	27808
822.289	28021
822.429	27728
822.569	27542
822.709	27542
822.849	27519
822.99	27370
823.13	27431
823.27	27405
823.41	27279
823.55	27116
823.69	27241
823.83	27245
823.97	27127
824.11	27017
824.25	27032
824.389	26925
824.529	27104
824.669	27104
824.809	27146
824.949	27089
825.089	27142
825.228	27222
825.368	26872
825.508	26872
825.648	26944
825.787	27058
825.927	26960
826.067	26815
826.206	26910
826.346	26899
826.485	27074
826.625	26971
826.765	27093
826.904	27116
827.044	26636
827.183	26746
827.323	26663
827.462	26758
827.601	26663
827.741	26686
827.88	26579
828.02	26686
828.159	26533
828.298	26674
828.437	26823
828.577	26674
828.716	26849
828.855	26545
828.994	26339
829.134	26294
829.273	26324
829.412	26305
829.551	26438
829.69	26332
829.829	26358
829.968	26408
830.107	26461
830.246	26221
830.385	26214
830.524	26199
830.663	26069
830.802	26088
830.941	26001
831.08	25974
831.219	25940
831.357	25947
831.496	26172
831.635	26164
831.774	25890
831.913	25780
832.051	25803
832.19	25807
832.329	25704
832.467	25620
832.606	25537
832.744	25605
832.883	25575
833.022	25590
833.16	25651
833.299	25601
833.437	25647
833.576	25696
833.714	25738
833.852	25616
833.991	25670
834.129	25776
834.267	25643
834.406	25712
834.544	25765
834.682	25647
834.821	25708
834.959	25765
835.097	25662
835.235	25643
835.373	25586
835.511	25601
835.65	25499
835.788	25540
835.926	25312
836.064	25202
836.202	25460
836.34	25434
836.478	25628
836.615	25430
836.753	25525
836.891	25635
837.029	25510
837.167	25453
837.305	25400
837.443	25460
837.58	25289
837.718	25304
837.856	25419
837.993	25388
838.131	25354
838.269	25179
838.406	25289
838.544	25015
838.681	24939
838.819	25061
838.956	24833
839.094	24848
839.231	24913
839.369	24848
839.506	25240
839.643	24951
839.781	24741
839.918	24779
840.055	24798
840.193	24776
840.33	24764
840.467	24635
840.604	24669
840.742	25023
840.879	24536
841.016	24532
841.153	24692
841.29	24707
841.427	24779
841.564	24684
841.701	24654
841.838	24753
841.975	24517
842.112	24483
842.249	24426
842.385	24471
842.522	24623
842.659	24661
842.796	24486
842.933	24597
843.069	24254
843.206	24445
843.343	24433
843.479	24486
843.616	24460
843.752	24197
843.889	24171
844.025	24388
844.162	24323
844.298	24319
844.435	24285
844.571	24220
844.708	24178
844.844	24342
844.98	24456
845.117	24391
845.253	24224
845.389	24079
845.525	24155
845.661	24045
845.798	23882
845.934	24034
846.07	23973
846.206	23980
846.342	24095
846.478	23923
846.614	23752
846.75	23589
846.886	23707
847.022	23672
847.158	23665
847.294	23558
847.429	23649
847.565	23779
847.701	23889
847.837	23349
847.972	23395
848.108	23493
848.244	23501
848.379	23265
848.515	23132
848.65	23239
848.786	23200
848.921	23223
849.057	23395
849.192	23353
849.328	23345
849.463	23242
849.598	23246
849.734	23200
849.869	23117
850.004	23003
850.14	22984
850.275	23140
850.41	23052
850.545	22949
850.68	22991
850.815	23189
850.95	22991
851.085	23197
851.22	23258
851.355	23094
851.49	22904
851.625	23048
851.76	22984
851.895	22972
852.03	22930
852.165	23041
852.299	23102
852.434	23204
852.569	22999
852.703	23014
852.838	23185
852.973	23102
853.107	23143
853.242	22942
853.376	22797
853.511	22702
853.645	22854
853.78	22885
853.914	22748
854.048	22877
854.183	22622
854.317	22919
854.451	22942
854.585	22839
854.72	22774
854.854	22942
854.988	22771
855.122	22767
855.256	22683
855.39	22801
855.524	22782
855.658	22862
855.792	22835
855.926	22759
856.06	22858
856.194	22885
856.327	22797
856.461	22938
856.595	22645
856.729	22946
856.862	22946
856.996	22816
857.13	22908
857.263	22885
857.397	22972
857.53	22763
857.664	22782
857.797	22896
857.931	23014
858.064	22782
858.197	22900
858.331	22828
858.464	22645
858.597	22588
858.731	22881
858.864	22866
858.997	22721
859.13	22748
859.263	22900
859.396	22812
859.529	22850
859.662	22767
859.795	22664
859.928	22999
860.061	23113
860.194	23022
860.327	22812
860.46	22858
860.592	22866
860.725	22911
860.858	22816
860.99	22850
861.123	22725
861.256	22824
861.388	22752
861.521	23474
861.653	22607
861.786	22645
861.918	22645
862.05	22759
862.183	22729
862.315	22725
862.447	22744
862.58	22755
862.712	22466
862.844	22535
862.976	22637
863.108	22664
863.24	23041
863.372	22500
863.504	22557
863.636	22481
863.768	22500
863.9	22554
864.032	22459
864.164	22554
864.296	22607
864.428	22592
864.559	22698
864.691	22584
864.823	22554
864.954	22363
865.086	22573
865.217	22466
865.349	22363
865.48	22478
865.612	22360
865.743	22451
865.875	22333
866.006	22367
866.137	22363
866.269	22470
866.4	22428
866.531	22421
866.662	22306
866.793	22310
866.924	22363
867.055	22325
867.186	22379
867.317	22265
867.448	22367
867.579	22348
867.71	22215
867.841	22253
867.972	22341
868.103	22325
868.233	22295
868.364	22447
868.495	22519
868.625	22516
868.756	22660
868.886	22603
869.017	22538
869.147	22645
869.278	22759
869.408	22603
869.539	22519
869.669	22599
869.799	22683
869.929	22706
870.06	22672
870.19	22900
870.32	22809
870.45	22953
870.58	22869
870.71	22972
870.84	23102
870.97	22999
871.1	23018
871.23	23204
871.36	23204
871.489	23174
871.619	23147
871.749	23181
871.879	23170
872.008	23311
872.138	23147
872.267	23121
872.397	23052
872.526	22957
872.656	23033
872.785	23037
872.915	23265
873.044	23258
873.173	23239
873.303	23239
873.432	23364
873.561	23269
873.69	23265
873.819	23246
873.948	23258
874.077	23349
874.206	23162
874.335	23269
874.464	23337
874.593	23444
874.722	23406
874.851	23463
874.979	23425
875.108	23376
875.237	23356
875.365	23341
875.494	23337
875.623	23417
875.751	23265
875.88	23467
876.008	23448
876.136	23570
876.265	23672
876.393	23882
876.521	23836
876.65	23893
876.778	23684
876.906	23771
877.034	23756
877.162	23794
877.29	23805
877.418	23665
877.546	23786
877.674	23794
877.802	23657
877.93	23642
878.058	23668
878.185	23573
878.313	23771
878.441	23722
878.568	23570
878.696	23668
878.824	23760
878.951	23832
879.079	23882
879.206	24049
879.333	23828
879.461	23741
879.588	23760
879.715	23874
879.842	24068
879.97	23786
880.097	23551
880.224	23516
880.351	23608
880.478	23512
880.605	23581
880.732	23615
880.859	23741
880.986	23528
881.112	23608
881.239	23387
881.366	23250
881.493	23117
881.619	23208
881.746	23223
881.872	23075
881.999	22980
882.125	22965
882.252	23159
882.378	23022
882.505	23223
882.631	22980
882.757	22759
882.883	22908
883.01	22733
883.136	22668
883.262	22683
883.388	22546
883.514	22736
883.64	22877
883.766	22664
883.892	22459
884.018	22565
884.143	22603
884.269	22771
884.395	22527
884.52	22451
884.646	22371
884.772	22337
884.897	22268
885.023	22459
885.148	22470
885.274	22516
885.399	22615
885.524	22390
885.65	22394
885.775	22470
885.9	22379
886.025	22516
886.15	22478
886.275	22363
886.4	22238
886.525	22318
886.65	22337
886.775	22230
886.9	22493
887.025	22565
887.149	22417
887.274	22120
887.399	22154
887.523	22128
887.648	22093
887.773	22162
887.897	22207
888.021	22188
888.146	22162
888.27	22314
888.395	22154
888.519	22249
888.643	22086
888.767	22272
888.891	22166
889.015	21987
889.139	21960
889.263	21975
889.387	22029
889.511	22166
889.635	22105
889.759	21903
889.883	21846
890.006	22032
890.13	22002
890.254	21922
890.377	21831
890.501	21755
890.624	21660
890.748	21705
890.871	21488
890.995	21519
891.118	21294
891.241	21447
891.364	21606
891.488	21553
891.611	21580
891.734	21458
891.857	21564
891.98	21519
892.103	21412
892.226	21439
892.349	21488
892.471	21218
892.594	21488
892.717	21481
892.839	21351
892.962	21321
893.085	21458
893.207	21340
893.33	21443
893.452	21310
893.575	21401
893.697	21325
893.819	21606
893.941	21553
894.064	21454
894.186	21302
894.308	21237
894.43	21424
894.552	21492
894.674	21496
894.796	21332
894.918	21260
895.04	21317
895.161	21443
895.283	21363
895.405	21351
895.526	21408
895.648	21321
895.769	21397
895.891	21340
896.012	21412
896.134	21287
896.255	21344
896.376	21321
896.498	21363
896.619	21401
896.74	21287
896.861	21336
896.982	21610
897.103	21781
897.224	21564
897.345	21450
897.466	21549
897.587	21492
897.708	21671
897.828	21545
897.949	21496
898.07	21549
898.19	21492
898.311	21690
898.431	21469
898.552	21504
898.672	21625
898.792	21618
898.913	21595
899.033	21386
899.153	21424
899.273	21237
899.393	21249
899.513	21279
899.633	21264
899.753	21272
899.873	21199
899.993	21260
900.113	21306
900.232	21119
900.352	21100
900.472	21142
900.591	20990
900.711	20994
900.83	20994
900.95	21142
901.069	21131
901.189	20785
901.308	20724
901.427	20545
901.546	20571
901.665	20686
901.784	20533
901.904	20545
902.023	20434
902.141	20130
902.26	20081
902.379	20157
902.498	20062
902.617	20058
902.735	20058
902.854	20100
902.973	19932
903.091	19788
903.21	19761
903.328	19689
903.446	19658
903.565	19586
903.683	19681
903.801	19502
903.919	19544
904.038	19415
904.156	19335
904.274	19430
904.392	19316
904.51	19266
904.627	19304
904.745	19308
904.863	19255
904.981	19046
905.098	18954
905.216	19004
905.334	18977
905.451	19027
905.569	18894
905.686	18935
905.803	18981
905.921	18783
906.038	18791
906.155	18787
906.272	18650
906.389	18658
906.506	18467
906.623	18608
906.74	18464
906.857	18418
906.974	18407
907.091	18566
907.208	18608
907.324	18604
907.441	18338
907.557	18205
907.674	18114
907.79	18243
907.907	18178
908.023	18369
908.139	18209
908.256	18201
908.372	18015
908.488	18117
908.604	17889
908.72	17950
908.836	17912
908.952	17939
909.068	17992
909.184	17893
909.3	17878
909.415	17969
909.531	17901
909.647	17718
909.762	17554
909.878	17535
909.993	17543
910.108	17577
910.224	17539
910.339	17467
910.454	17512
910.57	17364
910.685	17368
910.8	17619
910.915	17497
911.03	17402
911.145	17166
911.259	17185
911.374	17170
911.489	17128
911.604	17029
911.718	16873
911.833	17003
911.947	16816
912.062	16744
912.176	16957
912.291	16946
912.405	16904
912.519	17083
912.633	17045
912.748	16923
912.862	16908
912.976	16691
913.09	16607
913.204	16679
913.318	16698
913.431	16873
913.545	16744
913.659	16778
913.772	16706
913.886	16489
914	16565
914.113	16478
914.226	16664
914.34	16493
914.453	16409
914.566	16546
914.68	16379
914.793	16344
914.906	16265
915.019	16063
915.132	16029
915.245	16124
915.358	16082
915.47	16032
915.583	16101
915.696	16093
915.809	16234
915.921	16169
916.034	15975
916.146	15922
916.259	15964
916.371	16139
916.483	16040
916.595	15949
916.708	15979
916.82	15808
916.932	15766
917.044	15831
917.156	15743
917.268	15705
917.38	15774
917.491	15682
917.603	15622
917.715	15732
917.826	15800
917.938	15675
918.049	15488
918.161	15614
918.272	15724
918.384	15781
918.495	15618
918.606	15408
918.717	15462
918.828	15572
918.939	15428
919.05	15355
919.161	15424
919.272	15207
919.383	15302
919.494	15496
919.604	15530
919.715	15355
919.826	15351
919.936	15367
920.047	15435
920.157	15428
920.267	15599
920.378	15393
920.488	15336
920.598	15595
920.708	15599
920.818	15492
920.928	15481
921.038	15637
921.148	15641
921.258	15279
921.368	15237
921.477	15077
921.587	15062
921.697	14872
921.806	15100
921.916	14933
922.025	14857
922.134	14720
922.244	14610
922.353	14743
922.462	14663
922.571	14571
922.68	14415
922.789	14461
922.898	14377
923.007	14290
923.116	14381
923.224	14259
923.333	14313
923.442	14252
923.55	14153
923.659	14149
923.767	14221
923.876	14024
923.984	14225
924.092	14065
924.201	14126
924.309	14138
924.417	14073
924.525	14039
924.633	13967
924.741	14823
924.849	13769
924.956	14005
925.064	13814
925.172	13681
925.279	13761
925.387	13788
925.494	13727
925.602	13837
925.709	13860
925.816	13708
925.924	13772
926.031	13772
926.138	13715
926.245	13590
926.352	13506
926.459	13674
926.566	13712
926.673	13647
926.779	13544
926.886	13441
926.993	13266
927.099	13255
927.206	13251
927.312	13278
927.419	13327
927.525	13331
927.631	13297
927.737	13183
927.843	13080
927.95	13015
928.056	13057
928.162	13126
928.267	13118
928.373	13826
928.479	13194
928.585	12943
928.69	12993
928.796	13110
928.901	12951
929.007	12817
929.112	12844
929.218	12943
929.323	12738
929.428	12783
929.533	12989
929.638	12703
929.743	12760
929.848	12814
929.953	12677
930.058	12597
930.163	12517
930.267	12494
930.372	12582
930.477	12414
930.581	12642
930.685	12502
930.79	12270
930.894	12338
930.998	12296
931.103	12483
931.207	12060
931.311	12038
931.415	11935
931.519	11672
931.623	11668
