Data from test_V78500241_2321.txt Node
Date: Fri Mar 25 15:57:52 CST 2022
User: usil
Spectrometer: V785-0024
Trigger mode: 0
Integration Time (sec): 4.000000E-1
Scans to average: 1
Nonlinearity correction enabled: false
Boxcar width: 0
Storing dark spectrum: false
XAxis mode: Wavelengths
Number of Pixels in Spectrum: 1024
>>>>>Begin Spectral Data<<<<<
801.071	28778
801.214	28706
801.356	28641
801.499	28577
801.641	28344
801.783	28348
801.926	28504
802.068	28474
802.211	28230
802.353	28276
802.496	28036
802.638	28196
802.78	28002
802.923	28090
803.065	27907
803.208	28090
803.35	28211
803.492	28166
803.635	28333
803.777	28257
803.919	28253
804.061	28710
804.204	28310
804.346	28367
804.488	28329
804.63	28386
804.773	28143
804.915	28440
805.057	28428
805.199	28352
805.341	28421
805.483	28596
805.626	28382
805.768	28417
805.91	28333
806.052	28687
806.194	28363
806.336	28596
806.478	28580
806.62	28516
806.762	28573
806.904	28774
807.046	29121
807.188	28942
807.33	28908
807.472	28927
807.614	28763
807.756	28896
807.898	28797
808.04	28824
808.182	28725
808.324	28835
808.465	28957
808.607	29010
808.749	29128
808.891	29299
809.033	29551
809.174	29299
809.316	29128
809.458	29254
809.6	29155
809.741	29318
809.883	29280
810.025	29440
810.166	29387
810.308	29341
810.45	29292
810.591	29307
810.733	29227
810.875	29185
811.016	29200
811.158	29151
811.299	29356
811.441	29478
811.582	29436
811.724	29147
811.865	29277
812.007	29090
812.148	29212
812.29	29261
812.431	29410
812.573	29691
812.714	29627
812.855	29737
812.997	29790
813.138	29916
813.279	29828
813.421	29729
813.562	29668
813.703	29630
813.845	29596
813.986	29307
814.127	29044
814.268	28908
814.41	29014
814.551	28888
814.692	28980
814.833	28877
814.974	28869
815.115	28919
815.256	28843
815.397	28774
815.539	28839
815.68	28725
815.821	28641
815.962	28786
816.103	28786
816.244	28660
816.385	28504
816.526	28398
816.666	28246
816.807	28242
816.948	28257
817.089	28348
817.23	28200
817.371	28219
817.512	28242
817.653	28177
817.793	28223
817.934	28181
818.075	28188
818.216	28200
818.356	28200
818.497	28002
818.638	27945
818.778	27945
818.919	28078
819.06	28051
819.2	28086
819.341	28166
819.481	28246
819.622	28363
819.762	28580
819.903	28603
820.043	28413
820.184	28341
820.324	28474
820.465	28531
820.605	28398
820.746	28318
820.886	28188
821.026	28409
821.167	28322
821.307	28401
821.447	28306
821.588	28063
821.728	27983
821.868	27823
822.008	27724
822.149	27614
822.289	27660
822.429	27420
822.569	27279
822.709	27447
822.849	27268
822.99	27268
823.13	27165
823.27	27222
823.41	27131
823.55	26918
823.69	27043
823.83	27089
823.97	26933
824.11	26891
824.25	26853
824.389	26819
824.529	27043
824.669	26857
824.809	27062
824.949	26902
825.089	26986
825.228	26944
825.368	26754
825.508	26785
825.648	26720
825.787	26746
825.927	26823
826.067	26750
826.206	26785
826.346	26830
826.485	26838
826.625	26739
826.765	26845
826.904	26777
827.044	26492
827.183	26488
827.323	26438
827.462	26598
827.601	26564
827.741	26366
827.88	26507
828.02	26332
828.159	26469
828.298	26507
828.437	26568
828.577	26377
828.716	26621
828.855	26351
828.994	26225
829.134	26244
829.273	26229
829.412	26100
829.551	26100
829.69	26199
829.829	26221
829.968	26126
830.107	26240
830.246	26096
830.385	26263
830.524	26103
830.663	25947
830.802	25951
830.941	25841
831.08	25765
831.219	25890
831.357	25894
831.496	26058
831.635	25841
831.774	25772
831.913	25685
832.051	25696
832.19	25670
832.329	25632
832.467	25449
832.606	25457
832.744	25236
832.883	25464
833.022	25510
833.16	25289
833.299	25445
833.437	25457
833.576	25559
833.714	25556
833.852	25563
833.991	25571
834.129	25670
834.267	25529
834.406	25525
834.544	25518
834.682	25506
834.821	25495
834.959	25727
835.097	25472
835.235	25556
835.373	25571
835.511	25483
835.65	25346
835.788	25289
835.926	25232
836.064	25190
836.202	25129
836.34	25354
836.478	25533
836.615	25343
836.753	25483
836.891	25373
837.029	25331
837.167	25270
837.305	25255
837.443	25187
837.58	25255
837.718	25190
837.856	25274
837.993	25053
838.131	25114
838.269	25004
838.406	25152
838.544	25027
838.681	24749
838.819	24776
838.956	24570
839.094	24719
839.231	24631
839.369	24939
839.506	24924
839.643	24875
839.781	24677
839.918	24570
840.055	24635
840.193	24559
840.33	24555
840.467	24582
840.604	24555
840.742	24779
840.879	24350
841.016	24426
841.153	24479
841.29	24673
841.427	24544
841.564	24551
841.701	24601
841.838	24509
841.975	24346
842.112	24498
842.249	24414
842.385	24365
842.522	24490
842.659	24262
842.796	24350
842.933	24167
843.069	24136
843.206	24087
843.343	24270
843.479	24205
843.616	24315
843.752	23977
843.889	24083
844.025	24205
844.162	24018
844.298	24213
844.435	23992
844.571	23965
844.708	24129
844.844	24251
844.98	24224
845.117	24076
845.253	23813
845.389	23935
845.525	23870
845.661	23939
845.798	23779
845.934	23729
846.07	23855
846.206	23889
846.342	23984
846.478	23767
846.614	23543
846.75	23391
846.886	23501
847.022	23459
847.158	23558
847.294	23512
847.429	23501
847.565	23337
847.701	23630
847.837	23318
847.972	23189
848.108	23277
848.244	23246
848.379	23151
848.515	23170
848.65	23022
848.786	23022
848.921	23048
849.057	23204
849.192	23170
849.328	23124
849.463	22949
849.598	23102
849.734	22919
849.869	22900
850.004	22873
850.14	22816
850.275	22820
850.41	22839
850.545	22748
850.68	22725
850.815	22953
850.95	22889
851.085	23014
851.22	22911
851.355	22915
851.49	22835
851.625	22721
851.76	22900
851.895	22797
852.03	22812
852.165	22862
852.299	22850
852.434	22866
852.569	22862
852.703	22961
852.838	22892
852.973	22946
853.107	22961
853.242	22687
853.376	22748
853.511	22535
853.645	22664
853.78	22843
853.914	22713
854.048	22611
854.183	22653
854.317	22713
854.451	22835
854.585	22588
854.72	22748
854.854	22607
854.988	22596
855.122	22603
855.256	22557
855.39	22698
855.524	22592
855.658	22702
855.792	22656
855.926	22710
856.06	22782
856.194	22790
856.327	22710
856.461	22691
856.595	22645
856.729	22645
856.862	22835
856.996	22691
857.13	22637
857.263	22824
857.397	22839
857.53	22607
857.664	22824
857.797	22702
857.931	22904
858.064	22797
858.197	22736
858.331	22573
858.464	22580
858.597	22546
858.731	22615
858.864	22721
858.997	22569
859.13	22584
859.263	22630
859.396	22771
859.529	22565
859.662	22675
859.795	22580
859.928	22774
860.061	22767
860.194	22854
860.327	22854
860.46	22691
860.592	22866
860.725	22797
860.858	22847
860.99	22748
861.123	22569
861.256	22641
861.388	22767
861.521	23315
861.653	22561
861.786	22573
861.918	22538
862.05	22596
862.183	22523
862.315	22584
862.447	22683
862.58	22596
862.712	22462
862.844	22303
862.976	22542
863.108	22379
863.24	22862
863.372	22337
863.504	22360
863.636	22451
863.768	22451
863.9	22360
864.032	22322
864.164	22382
864.296	22413
864.428	22618
864.559	22417
864.691	22371
864.823	22371
864.954	22367
865.086	22257
865.217	22280
865.349	22173
865.48	22226
865.612	22226
865.743	22352
865.875	22238
866.006	22261
866.137	22249
866.269	22329
866.4	22219
866.531	22185
866.662	22124
866.793	22116
866.924	22215
867.055	22177
867.186	22086
867.317	22162
867.448	22051
867.579	22192
867.71	22040
867.841	22040
867.972	22128
868.103	22109
868.233	22070
868.364	22116
868.495	22158
868.625	22394
868.756	22519
868.886	22356
869.017	22481
869.147	22531
869.278	22577
869.408	22489
869.539	22322
869.669	22470
869.799	22348
869.929	22474
870.06	22573
870.19	22592
870.32	22626
870.45	22839
870.58	22831
870.71	22908
870.84	22869
870.97	22790
871.1	22801
871.23	23010
871.36	22980
871.489	22900
871.619	22919
871.749	23006
871.879	23041
872.008	22991
872.138	22965
872.267	23010
872.397	22930
872.526	22892
872.656	22797
872.785	22866
872.915	23025
873.044	23151
873.173	22927
873.303	23075
873.432	23105
873.561	23140
873.69	23079
873.819	23025
873.948	22984
874.077	23006
874.206	22987
874.335	23052
874.464	23071
874.593	23227
874.722	23162
874.851	23326
874.979	23417
875.108	23299
875.237	23117
875.365	23060
875.494	23197
875.623	23254
875.751	23284
875.88	23315
876.008	23353
876.136	23459
876.265	23737
876.393	23703
876.521	23680
876.65	23703
876.778	23592
876.906	23516
877.034	23570
877.162	23539
877.29	23604
877.418	23604
877.546	23570
877.674	23596
877.802	23539
877.93	23573
878.058	23551
878.185	23543
878.313	23547
878.441	23638
878.568	23490
878.696	23474
878.824	23531
878.951	23623
879.079	23592
879.206	23840
879.333	23672
879.461	23653
879.588	23585
879.715	23817
879.842	23726
879.97	23600
880.097	23349
880.224	23402
880.351	23493
880.478	23448
880.605	23269
880.732	23368
880.859	23634
880.986	23440
881.112	23406
881.239	23227
881.366	23117
881.493	23048
881.619	22877
881.746	22942
881.872	22949
881.999	22885
882.125	22889
882.252	22949
882.378	22843
882.505	22915
882.631	22778
882.757	22767
882.883	22717
883.01	22687
883.136	22668
883.262	22565
883.388	22348
883.514	22641
883.64	22649
883.766	22508
883.892	22371
884.018	22489
884.143	22668
884.269	22516
884.395	22318
884.52	22192
884.646	22196
884.772	22169
884.897	22147
885.023	22371
885.148	22462
885.274	22485
885.399	22219
885.524	22185
885.65	22318
885.775	22314
885.9	22211
886.025	22421
886.15	22249
886.275	22257
886.4	22211
886.525	22261
886.65	22265
886.775	22204
886.9	22261
887.025	22516
887.149	22242
887.274	22131
887.399	22032
887.523	22021
887.648	21899
887.773	21949
887.897	22105
888.021	21960
888.146	21880
888.27	22131
888.395	21972
888.519	21918
888.643	22059
888.767	21994
888.891	21968
889.015	21915
889.139	21854
889.263	21888
889.387	21819
889.511	22010
889.635	21922
889.759	21751
889.883	21808
890.006	21759
890.13	21941
890.254	21717
890.377	21652
890.501	21641
890.624	21477
890.748	21587
890.871	21462
890.995	21298
891.118	21317
891.241	21424
891.364	21332
891.488	21488
891.611	21272
891.734	21408
891.857	21359
891.98	21279
892.103	21424
892.226	21359
892.349	21355
892.471	21096
892.594	21306
892.717	21256
892.839	21233
892.962	21321
893.085	21260
893.207	21173
893.33	21119
893.452	21245
893.575	21298
893.697	21184
893.819	21306
893.941	21485
894.064	21188
894.186	21104
894.308	21154
894.43	21348
894.552	21477
894.674	21268
894.796	21108
894.918	21188
895.04	21119
895.161	21211
895.283	21256
895.405	21222
895.526	21218
895.648	21188
895.769	21214
895.891	21317
896.012	21367
896.134	21161
896.255	21252
896.376	21154
896.498	21199
896.619	21275
896.74	21214
896.861	21226
896.982	21507
897.103	21701
897.224	21405
897.345	21447
897.466	21306
897.587	21450
897.708	21507
897.828	21492
897.949	21241
898.07	21245
898.19	21378
898.311	21507
898.431	21359
898.552	21393
898.672	21591
898.792	21443
898.913	21408
899.033	21389
899.153	21226
899.273	21127
899.393	21161
899.513	21222
899.633	21093
899.753	21055
899.873	21028
899.993	21146
900.113	20944
900.232	21058
900.352	21161
900.472	20880
900.591	20838
900.711	20971
900.83	20819
900.95	21119
901.069	20868
901.189	20861
901.308	20579
901.427	20358
901.546	20423
901.665	20473
901.784	20419
901.904	20244
902.023	20259
902.141	20119
902.26	20020
902.379	20122
902.498	19898
902.617	19871
902.735	20039
902.854	20001
902.973	19928
903.091	19731
903.21	19635
903.328	19670
903.446	19552
903.565	19426
903.683	19411
903.801	19297
903.919	19392
904.038	19373
904.156	19076
904.274	19297
904.392	19122
904.51	19069
904.627	19179
904.745	19141
904.863	19266
904.981	19000
905.098	18829
905.216	18810
905.334	18825
905.451	18810
905.569	18783
905.686	18848
905.803	18696
905.921	18566
906.038	18635
906.155	18620
906.272	18608
906.389	18601
906.506	18422
906.623	18441
906.74	18319
906.857	18304
906.974	18296
907.091	18452
907.208	18578
907.324	18506
907.441	18178
907.557	18197
907.674	18026
907.79	17999
907.907	18087
908.023	18197
908.139	18140
908.256	18015
908.372	17893
908.488	17859
908.604	17885
908.72	17809
908.836	17748
908.952	17805
909.068	17923
909.184	17866
909.3	17855
909.415	17729
909.531	17680
909.647	17547
909.762	17539
909.878	17448
909.993	17543
910.108	17444
910.224	17467
910.339	17391
910.454	17193
910.57	17170
910.685	17212
910.8	17440
910.915	17429
911.03	17296
911.145	17124
911.259	17018
911.374	17025
911.489	16938
911.604	16847
911.718	16843
911.833	16839
911.947	16630
912.062	16660
912.176	16812
912.291	16843
912.405	16869
912.519	16991
912.633	16949
912.748	16889
912.862	16824
912.976	16641
913.09	16641
913.204	16584
913.318	16588
913.431	16698
913.545	16683
913.659	16702
913.772	16554
913.886	16375
914	16455
914.113	16500
914.226	16592
914.34	16402
914.453	16295
914.566	16455
914.68	16322
914.793	16158
914.906	16105
915.019	15998
915.132	15911
915.245	15838
915.358	16006
915.47	16021
915.583	15854
915.696	16017
915.809	16036
915.921	16078
916.034	15838
916.146	15812
916.259	15876
916.371	15865
916.483	15895
916.595	15865
916.708	15690
916.82	15793
916.932	15724
917.044	15827
917.156	15808
917.268	15652
917.38	15667
917.491	15530
917.603	15549
917.715	15709
917.826	15660
917.938	15542
918.049	15428
918.161	15477
918.272	15568
918.384	15564
918.495	15485
918.606	15340
918.717	15241
918.828	15428
918.939	15386
919.05	15310
919.161	15401
919.272	15119
919.383	15313
919.494	15363
919.604	15450
919.715	15275
919.826	15268
919.936	15184
920.047	15302
920.157	15332
920.267	15363
920.378	15222
920.488	15226
920.598	15378
920.708	15656
920.818	15481
920.928	15428
921.038	15515
921.148	15462
921.258	15211
921.368	15146
921.477	14990
921.587	14979
921.697	14830
921.806	15036
921.916	14887
922.025	14693
922.134	14583
922.244	14587
922.353	14705
922.462	14511
922.571	14495
922.68	14275
922.789	14278
922.898	14343
923.007	14172
923.116	14351
923.224	14256
923.333	14187
923.442	14123
923.55	14107
923.659	14073
923.767	14183
923.876	14054
923.984	14111
924.092	13997
924.201	14050
924.309	13917
924.417	13982
924.525	13875
924.633	13864
924.741	14849
924.849	13791
924.956	13841
925.064	13685
925.172	13655
925.279	13700
925.387	13719
925.494	13674
925.602	13704
925.709	13643
925.816	13552
925.924	13529
926.031	13639
926.138	13605
926.245	13632
926.352	13464
926.459	13521
926.566	13636
926.673	13445
926.779	13308
926.886	13350
926.993	13209
927.099	13225
927.206	13164
927.312	13099
927.419	13187
927.525	13202
927.631	13175
927.737	13050
927.843	13015
927.95	12905
928.056	13065
928.162	13004
928.267	13053
928.373	13708
928.479	13053
928.585	12734
928.69	12966
928.796	12924
928.901	12814
929.007	12722
929.112	12867
929.218	12772
929.323	12776
929.428	12589
929.533	12825
929.638	12566
929.743	12627
929.848	12646
929.953	12707
930.058	12521
930.163	12361
930.267	12380
930.372	12566
930.477	12353
930.581	12566
930.685	12399
930.79	12190
930.894	12273
930.998	12163
931.103	12395
931.207	11942
931.311	11786
931.415	11767
931.519	11611
931.623	11562
