Data from test_V78500241_3662.txt Node
Date: Fri Mar 25 16:07:10 CST 2022
User: usil
Spectrometer: V785-0024
Trigger mode: 0
Integration Time (sec): 4.000000E-1
Scans to average: 1
Nonlinearity correction enabled: false
Boxcar width: 0
Storing dark spectrum: false
XAxis mode: Wavelengths
Number of Pixels in Spectrum: 1024
>>>>>Begin Spectral Data<<<<<
801.071	28557
801.214	28634
801.356	28299
801.499	28204
801.641	28211
801.783	28173
801.926	28234
802.068	28116
802.211	28051
802.353	28055
802.496	27918
802.638	27922
802.78	27880
802.923	27797
803.065	27553
803.208	27633
803.35	27793
803.492	27899
803.635	27998
803.777	28017
803.919	28093
804.061	28413
804.204	28131
804.346	28063
804.488	27873
804.63	27983
804.773	27941
804.915	28093
805.057	28166
805.199	28143
805.341	28177
805.483	28192
805.626	28120
805.768	28067
805.91	28211
806.052	28230
806.194	28105
806.336	28401
806.478	28310
806.62	28276
806.762	28344
806.904	28485
807.046	28759
807.188	28645
807.33	28653
807.472	28759
807.614	28527
807.756	28691
807.898	28455
808.04	28352
808.182	28474
808.324	28474
808.465	28557
808.607	28702
808.749	28797
808.891	28881
809.033	28930
809.174	28904
809.316	28999
809.458	28915
809.6	28812
809.741	28927
809.883	28965
810.025	29128
810.166	29159
810.308	29250
810.45	29010
810.591	29014
810.733	28927
810.875	28915
811.016	28896
811.158	28809
811.299	28873
811.441	29151
811.582	28923
811.724	28938
811.865	28908
812.007	28843
812.148	28927
812.29	29083
812.431	29098
812.573	29322
812.714	29395
812.855	29573
812.997	29680
813.138	29619
813.279	29646
813.421	29482
813.562	29284
813.703	29223
813.845	29094
813.986	28965
814.127	28679
814.268	28691
814.41	28603
814.551	28485
814.692	28603
814.833	28573
814.974	28733
815.115	28733
815.256	28447
815.397	28546
815.539	28512
815.68	28409
815.821	28341
815.962	28413
816.103	28375
816.244	28329
816.385	28234
816.526	28166
816.666	28010
816.807	27876
816.948	27797
817.089	27998
817.23	27918
817.371	27892
817.512	27876
817.653	27998
817.793	27888
817.934	27892
818.075	27903
818.216	28006
818.356	27865
818.497	27789
818.638	27641
818.778	27622
818.919	27682
819.06	27842
819.2	27838
819.341	27994
819.481	27892
819.622	27979
819.762	28318
819.903	28223
820.043	28185
820.184	28010
820.324	28010
820.465	28059
820.605	28029
820.746	28017
820.886	27747
821.026	27960
821.167	27972
821.307	28150
821.447	27949
821.588	27842
821.728	27759
821.868	27534
822.008	27321
822.149	27313
822.289	27306
822.429	27135
822.569	27077
822.709	27169
822.849	26994
822.99	26899
823.13	26944
823.27	26933
823.41	26724
823.55	26514
823.69	26838
823.83	26861
823.97	26788
824.11	26412
824.25	26552
824.389	26518
824.529	26724
824.669	26606
824.809	26651
824.949	26697
825.089	26762
825.228	26621
825.368	26514
825.508	26442
825.648	26484
825.787	26537
825.927	26613
826.067	26427
826.206	26339
826.346	26579
826.485	26598
826.625	26343
826.765	26560
826.904	26457
827.044	26286
827.183	26145
827.323	26221
827.462	26157
827.601	26240
827.741	26221
827.88	26237
828.02	26115
828.159	26119
828.298	26176
828.437	26355
828.577	26062
828.716	26408
828.855	26024
828.994	25845
829.134	25906
829.273	25947
829.412	25791
829.551	25883
829.69	25822
829.829	25932
829.968	25909
830.107	25898
830.246	25845
830.385	25860
830.524	25708
830.663	25643
830.802	25609
830.941	25343
831.08	25529
831.219	25567
831.357	25476
831.496	25635
831.635	25339
831.774	25457
831.913	25350
832.051	25327
832.19	25232
832.329	25190
832.467	25251
832.606	24989
832.744	24989
832.883	25175
833.022	25175
833.16	25145
833.299	25232
833.437	25156
833.576	25198
833.714	25373
833.852	25225
833.991	25240
834.129	25297
834.267	25293
834.406	25152
834.544	25301
834.682	25293
834.821	25190
834.959	25384
835.097	25122
835.235	25278
835.373	25297
835.511	25240
835.65	25042
835.788	25156
835.926	24981
836.064	24894
836.202	24924
836.34	25008
836.478	25084
836.615	25038
836.753	25110
836.891	25122
837.029	25225
837.167	24909
837.305	25015
837.443	24920
837.58	24924
837.718	24935
837.856	24837
837.993	24863
838.131	24859
838.269	24802
838.406	24661
838.544	24604
838.681	24585
838.819	24566
838.956	24448
839.094	24330
839.231	24448
839.369	24525
839.506	24627
839.643	24715
839.781	24433
839.918	24292
840.055	24311
840.193	24277
840.33	24178
840.467	24201
840.604	24372
840.742	24521
840.879	24038
841.016	24296
841.153	24155
841.29	24334
841.427	24171
841.564	24159
841.701	24224
841.838	24281
841.975	24117
842.112	24007
842.249	24030
842.385	24038
842.522	24220
842.659	24041
842.796	23984
842.933	24022
843.069	24003
843.206	24018
843.343	23961
843.479	23901
843.616	24163
843.752	23726
843.889	23790
844.025	23950
844.162	23729
844.298	23961
844.435	23748
844.571	23577
844.708	23783
844.844	24068
844.98	23904
845.117	23882
845.253	23760
845.389	23767
845.525	23687
845.661	23695
845.798	23592
845.934	23741
846.07	23421
846.206	23471
846.342	23581
846.478	23452
846.614	23345
846.75	23178
846.886	23235
847.022	23269
847.158	23258
847.294	23326
847.429	23246
847.565	23273
847.701	23406
847.837	22968
847.972	22919
848.108	23025
848.244	22934
848.379	22744
848.515	22672
848.65	22778
848.786	22831
848.921	22717
849.057	22835
849.192	22930
849.328	22908
849.463	22828
849.598	22679
849.734	22736
849.869	22694
850.004	22584
850.14	22557
850.275	22694
850.41	22470
850.545	22535
850.68	22577
850.815	22573
850.95	22527
851.085	22782
851.22	22797
851.355	22687
851.49	22565
851.625	22481
851.76	22649
851.895	22398
852.03	22443
852.165	22653
852.299	22656
852.434	22637
852.569	22645
852.703	22432
852.838	22626
852.973	22622
853.107	22672
853.242	22466
853.376	22428
853.511	22363
853.645	22443
853.78	22440
853.914	22462
854.048	22485
854.183	22333
854.317	22382
854.451	22565
854.585	22299
854.72	22432
854.854	22489
854.988	22268
855.122	22451
855.256	22337
855.39	22356
855.524	22535
855.658	22459
855.792	22421
855.926	22405
856.06	22462
856.194	22462
856.327	22398
856.461	22367
856.595	22424
856.729	22314
856.862	22630
856.996	22493
857.13	22459
857.263	22531
857.397	22588
857.53	22421
857.664	22402
857.797	22481
857.931	22455
858.064	22565
858.197	22481
858.331	22382
858.464	22447
858.597	22375
858.731	22219
858.864	22409
858.997	22337
859.13	22462
859.263	22504
859.396	22466
859.529	22390
859.662	22367
859.795	22272
859.928	22421
860.061	22596
860.194	22656
860.327	22565
860.46	22497
860.592	22634
860.725	22573
860.858	22531
860.99	22493
861.123	22337
861.256	22284
861.388	22386
861.521	23208
861.653	22424
861.786	22196
861.918	22299
862.05	22394
862.183	22371
862.315	22325
862.447	22447
862.58	22310
862.712	22112
862.844	22139
862.976	22223
863.108	22177
863.24	22599
863.372	22139
863.504	22177
863.636	22128
863.768	22150
863.9	22128
864.032	22036
864.164	22181
864.296	22150
864.428	22177
864.559	22219
864.691	22219
864.823	22154
864.954	22128
865.086	22150
865.217	21994
865.349	22006
865.48	22032
865.612	22010
865.743	22162
865.875	22021
866.006	21983
866.137	21972
866.269	22032
866.4	22059
866.531	21899
866.662	21926
866.793	21918
866.924	21937
867.055	21994
867.186	22013
867.317	21911
867.448	21949
867.579	21915
867.71	21876
867.841	21865
867.972	22036
868.103	21895
868.233	21998
868.364	21983
868.495	22010
868.625	22120
868.756	22322
868.886	22093
869.017	22185
869.147	22280
869.278	22257
869.408	22303
869.539	22131
869.669	22299
869.799	22314
869.929	22265
870.06	22284
870.19	22478
870.32	22428
870.45	22561
870.58	22493
870.71	22831
870.84	22668
870.97	22573
871.1	22656
871.23	22759
871.36	22892
871.489	22782
871.619	22748
871.749	22752
871.879	22896
872.008	22869
872.138	22843
872.267	22805
872.397	22702
872.526	22588
872.656	22660
872.785	22687
872.915	22824
873.044	22908
873.173	22881
873.303	22862
873.432	22869
873.561	22881
873.69	22869
873.819	22740
873.948	22881
874.077	22919
874.206	22824
874.335	22713
874.464	22850
874.593	22930
874.722	22946
874.851	23079
874.979	23014
875.108	23174
875.237	23037
875.365	22965
875.494	23018
875.623	23010
875.751	22987
875.88	23075
876.008	23162
876.136	23212
876.265	23414
876.393	23440
876.521	23452
876.65	23474
876.778	23372
876.906	23360
877.034	23379
877.162	23421
877.29	23444
877.418	23242
877.546	23330
877.674	23330
877.802	23299
877.93	23311
878.058	23474
878.185	23208
878.313	23292
878.441	23379
878.568	23124
878.696	23162
878.824	23341
878.951	23440
879.079	23493
879.206	23741
879.333	23528
879.461	23395
879.588	23577
879.715	23520
879.842	23710
879.97	23554
880.097	23189
880.224	23143
880.351	23315
880.478	23292
880.605	23105
880.732	23345
880.859	23490
880.986	23208
881.112	23261
881.239	23037
881.366	22961
881.493	22812
881.619	22672
881.746	22896
881.872	22763
881.999	22748
882.125	22752
882.252	22790
882.378	22706
882.505	22782
882.631	22596
882.757	22561
882.883	22561
883.01	22360
883.136	22329
883.262	22421
883.388	22169
883.514	22428
883.64	22405
883.766	22417
883.892	22200
884.018	22196
884.143	22280
884.269	22481
884.395	22070
884.52	22059
884.646	22166
884.772	22044
884.897	21960
885.023	22040
885.148	22188
885.274	22177
885.399	22169
885.524	22070
885.65	22139
885.775	22101
885.9	22017
886.025	22162
886.15	22188
886.275	22120
886.4	22010
886.525	22013
886.65	22002
886.775	22040
886.9	22185
887.025	22223
887.149	22036
887.274	21747
887.399	21865
887.523	21755
887.648	21736
887.773	21736
887.897	21846
888.021	21915
888.146	21701
888.27	21941
888.395	21884
888.519	21842
888.643	21804
888.767	21953
888.891	21720
889.015	21728
889.139	21835
889.263	21641
889.387	21816
889.511	21922
889.635	21690
889.759	21622
889.883	21576
890.006	21648
890.13	21732
890.254	21576
890.377	21420
890.501	21256
890.624	21272
890.748	21351
890.871	21310
890.995	21150
891.118	21112
891.241	21169
891.364	21211
891.488	21412
891.611	21146
891.734	21214
891.857	21272
891.98	21104
892.103	21233
892.226	21039
892.349	21131
892.471	20960
892.594	21116
892.717	21085
892.839	21055
892.962	21066
893.085	21066
893.207	21100
893.33	21005
893.452	21100
893.575	21108
893.697	21024
893.819	21142
893.941	21287
894.064	21188
894.186	20872
894.308	20857
894.43	21127
894.552	21169
894.674	21077
894.796	21017
894.918	21028
895.04	21116
895.161	21039
895.283	21138
895.405	20979
895.526	21077
895.648	21020
895.769	21047
895.891	20990
896.012	21245
896.134	21058
896.255	21043
896.376	20937
896.498	21024
896.619	21104
896.74	20929
896.861	21096
896.982	21351
897.103	21545
897.224	21306
897.345	21256
897.466	21291
897.587	21336
897.708	21435
897.828	21348
897.949	21260
898.07	21135
898.19	21161
898.311	21302
898.431	21195
898.552	21245
898.672	21226
898.792	21283
898.913	21093
899.033	21085
899.153	21020
899.273	20864
899.393	20967
899.513	21017
899.633	20921
899.753	21093
899.873	20998
899.993	20925
900.113	20811
900.232	20872
900.352	20933
900.472	20804
900.591	20689
900.711	20705
900.83	20773
900.95	20891
901.069	20750
901.189	20644
901.308	20454
901.427	20248
901.546	20267
901.665	20218
901.784	20271
901.904	20149
902.023	20119
902.141	19936
902.26	19776
902.379	19898
902.498	19772
902.617	19841
902.735	19879
902.854	19871
902.973	19571
903.091	19483
903.21	19434
903.328	19487
903.446	19365
903.565	19335
903.683	19346
903.801	19206
903.919	19270
904.038	19168
904.156	19000
904.274	19232
904.392	18852
904.51	18954
904.627	19015
904.745	19019
904.863	19080
904.981	18882
905.098	18650
905.216	18730
905.334	18795
905.451	18722
905.569	18608
905.686	18741
905.803	18684
905.921	18498
906.038	18471
906.155	18536
906.272	18292
906.389	18399
906.506	18323
906.623	18323
906.74	18247
906.857	18125
906.974	18038
907.091	18205
907.208	18346
907.324	18159
907.441	18133
907.557	18007
907.674	17912
907.79	17840
907.907	17885
908.023	17927
908.139	17942
908.256	17893
908.372	17760
908.488	17817
908.604	17676
908.72	17592
908.836	17752
908.952	17604
909.068	17649
909.184	17794
909.3	17668
909.415	17638
909.531	17547
909.647	17414
909.762	17349
909.878	17322
909.993	17288
910.108	17334
910.224	17349
910.339	17299
910.454	17159
910.57	17174
910.685	17064
910.8	17398
910.915	17315
911.03	16976
911.145	16995
911.259	17018
911.374	16858
911.489	16854
911.604	16782
911.718	16725
911.833	16645
911.947	16535
912.062	16554
912.176	16744
912.291	16592
912.405	16596
912.519	16828
912.633	16850
912.748	16634
912.862	16668
912.976	16485
913.09	16337
913.204	16329
913.318	16481
913.431	16675
913.545	16535
913.659	16455
913.772	16398
913.886	16363
914	16211
914.113	16337
914.226	16379
914.34	16265
914.453	16238
914.566	16265
914.68	16120
914.793	16059
914.906	15911
915.019	15850
915.132	15835
915.245	15766
915.358	15854
915.47	15911
915.583	15770
915.696	15865
915.809	15888
915.921	15994
916.034	15762
916.146	15770
916.259	15644
916.371	15819
916.483	15842
916.595	15660
916.708	15667
916.82	15553
916.932	15637
917.044	15610
917.156	15564
917.268	15370
917.38	15454
917.491	15466
917.603	15454
917.715	15511
917.826	15610
917.938	15462
918.049	15294
918.161	15431
918.272	15534
918.384	15481
918.495	15355
918.606	15325
918.717	15127
918.828	15268
918.939	15211
919.05	15176
919.161	15222
919.272	14906
919.383	15028
919.494	15245
919.604	15351
919.715	15195
919.826	15051
919.936	15192
920.047	15142
920.157	15135
920.267	15329
920.378	15237
920.488	15074
920.598	15351
920.708	15496
920.818	15310
920.928	15268
921.038	15428
921.148	15393
921.258	15017
921.368	14960
921.477	14864
921.587	14864
921.697	14659
921.806	14952
921.916	14739
922.025	14568
922.134	14583
922.244	14579
922.353	14583
922.462	14362
922.571	14309
922.68	14248
922.789	14142
922.898	14225
923.007	14164
923.116	14267
923.224	14244
923.333	14107
923.442	13993
923.55	14001
923.659	14043
923.767	14001
923.876	14001
923.984	14043
924.092	13833
924.201	13879
924.309	13921
924.417	13906
924.525	13727
924.633	13807
924.741	14785
924.849	13651
924.956	13753
925.064	13689
925.172	13464
925.279	13506
925.387	13540
925.494	13658
925.602	13632
925.709	13662
925.816	13441
925.924	13586
926.031	13533
926.138	13430
926.245	13575
926.352	13327
926.459	13616
926.566	13556
926.673	13441
926.779	13289
926.886	13293
926.993	13179
927.099	13171
927.206	13149
927.312	12962
927.419	13141
927.525	13118
927.631	13164
927.737	12970
927.843	12977
927.95	12905
928.056	13023
928.162	12973
928.267	12973
928.373	13499
928.479	13004
928.585	12776
928.69	12920
928.796	12882
928.901	12798
929.007	12635
929.112	12825
929.218	12681
929.323	12684
929.428	12688
929.533	12852
929.638	12574
929.743	12616
929.848	12681
929.953	12559
930.058	12506
930.163	12342
930.267	12323
930.372	12422
930.477	12262
930.581	12525
930.685	12357
930.79	12197
930.894	12190
930.998	12140
931.103	12289
931.207	11942
931.311	11847
931.415	11817
931.519	11619
931.623	11478
