Data from test_V78500241_227.txt Node
Date: Fri Mar 25 15:43:22 CST 2022
User: usil
Spectrometer: V785-0024
Trigger mode: 0
Integration Time (sec): 4.000000E-1
Scans to average: 1
Nonlinearity correction enabled: false
Boxcar width: 0
Storing dark spectrum: false
XAxis mode: Wavelengths
Number of Pixels in Spectrum: 1024
>>>>>Begin Spectral Data<<<<<
801.071	29326
801.214	29220
801.356	29071
801.499	28965
801.641	28733
801.783	28858
801.926	29014
802.068	28687
802.211	28717
802.353	28691
802.496	28409
802.638	28580
802.78	28504
802.923	28379
803.065	28348
803.208	28478
803.35	28512
803.492	28588
803.635	28660
803.777	28542
803.919	28698
804.061	28866
804.204	28649
804.346	28504
804.488	28371
804.63	28493
804.773	28344
804.915	28519
805.057	28645
805.199	28531
805.341	28573
805.483	28660
805.626	28687
805.768	28569
805.91	28755
806.052	28660
806.194	28615
806.336	28946
806.478	28683
806.62	28675
806.762	28721
806.904	28987
807.046	29124
807.188	29109
807.33	29109
807.472	29086
807.614	29010
807.756	28980
807.898	28824
808.04	28668
808.182	28942
808.324	28968
808.465	28976
808.607	29075
808.749	29307
808.891	29307
809.033	29417
809.174	29284
809.316	29220
809.458	29258
809.6	29258
809.741	29258
809.883	29406
810.025	29520
810.166	29589
810.308	29630
810.45	29383
810.591	29315
810.733	29174
810.875	29136
811.016	29269
811.158	29159
811.299	29337
811.441	29375
811.582	29372
811.724	29269
811.865	29098
812.007	29041
812.148	29132
812.29	29204
812.431	29440
812.573	29406
812.714	29558
812.855	29802
812.997	29870
813.138	29866
813.279	29798
813.421	29707
813.562	29554
813.703	29433
813.845	29440
813.986	29162
814.127	28866
814.268	28850
814.41	28877
814.551	28774
814.692	28923
814.833	28717
814.974	28767
815.115	28786
815.256	28668
815.397	28664
815.539	28508
815.68	28656
815.821	28424
815.962	28546
816.103	28569
816.244	28379
816.385	28314
816.526	28200
816.666	28059
816.807	27972
816.948	28078
817.089	27994
817.23	28013
817.371	27937
817.512	28002
817.653	27922
817.793	27953
817.934	27964
818.075	28051
818.216	27941
818.356	28036
818.497	27895
818.638	27778
818.778	27660
818.919	27717
819.06	27762
819.2	27892
819.341	28010
819.481	27800
819.622	28067
819.762	28295
819.903	28192
820.043	27922
820.184	27876
820.324	27979
820.465	28055
820.605	28105
820.746	28166
820.886	27888
821.026	28013
821.167	28029
821.307	28010
821.447	27960
821.588	27747
821.728	27641
821.868	27549
822.008	27408
822.149	27329
822.289	27291
822.429	27081
822.569	27077
822.709	27032
822.849	26842
822.99	26823
823.13	26743
823.27	26724
823.41	26686
823.55	26583
823.69	26712
823.83	26765
823.97	26442
824.11	26324
824.25	26473
824.389	26320
824.529	26469
824.669	26305
824.809	26682
824.949	26488
825.089	26461
825.228	26389
825.368	26278
825.508	26263
825.648	26259
825.787	26309
825.927	26252
826.067	26233
826.206	26313
826.346	26244
826.485	26336
826.625	26278
826.765	26324
826.904	26282
827.044	25978
827.183	25970
827.323	25852
827.462	25966
827.601	25959
827.741	25932
827.88	25917
828.02	25906
828.159	25913
828.298	25944
828.437	25925
828.577	25909
828.716	25921
828.855	25982
828.994	25613
829.134	25643
829.273	25803
829.412	25578
829.551	25597
829.69	25559
829.829	25666
829.968	25632
830.107	25715
830.246	25632
830.385	25567
830.524	25552
830.663	25441
830.802	25320
830.941	25198
831.08	25137
831.219	25301
831.357	25301
831.496	25297
831.635	25327
831.774	25080
831.913	25046
832.051	25027
832.19	25046
832.329	24901
832.467	24909
832.606	24943
832.744	24779
832.883	24878
833.022	25015
833.16	24962
833.299	24905
833.437	24844
833.576	24992
833.714	24817
833.852	24951
833.991	24897
834.129	24932
834.267	24821
834.406	24764
834.544	24772
834.682	24791
834.821	24802
834.959	25084
835.097	24779
835.235	24760
835.373	24844
835.511	24760
835.65	24730
835.788	24696
835.926	24631
836.064	24559
836.202	24467
836.34	24707
836.478	24696
836.615	24532
836.753	24639
836.891	24749
837.029	24711
837.167	24578
837.305	24665
837.443	24509
837.58	24418
837.718	24673
837.856	24384
837.993	24467
838.131	24620
838.269	24357
838.406	24407
838.544	24292
838.681	24152
838.819	24072
838.956	23927
839.094	23977
839.231	23897
839.369	24083
839.506	24334
839.643	24140
839.781	23828
839.918	23912
840.055	23764
840.193	23939
840.33	23817
840.467	23893
840.604	23874
840.742	24091
840.879	23805
841.016	23851
841.153	23703
841.29	23836
841.427	23771
841.564	23794
841.701	23786
841.838	23710
841.975	23699
842.112	23710
842.249	23615
842.385	23623
842.522	23703
842.659	23619
842.796	23535
842.933	23444
843.069	23433
843.206	23414
843.343	23455
843.479	23547
843.616	23452
843.752	23334
843.889	23284
844.025	23353
844.162	23189
844.298	23372
844.435	23284
844.571	23208
844.708	23372
844.844	23501
844.98	23372
845.117	23322
845.253	23159
845.389	23105
845.525	23208
845.661	23048
845.798	22999
845.934	22892
846.07	22843
846.206	22923
846.342	23044
846.478	22839
846.614	22816
846.75	22668
846.886	22691
847.022	22611
847.158	22675
847.294	22748
847.429	22755
847.565	22622
847.701	22881
847.837	22470
847.972	22295
848.108	22356
848.244	22417
848.379	22337
848.515	22188
848.65	22070
848.786	22158
848.921	22341
849.057	22371
849.192	22318
849.328	22143
849.463	22318
849.598	22101
849.734	22097
849.869	22048
850.004	21937
850.14	21884
850.275	22074
850.41	21934
850.545	21983
850.68	21861
850.815	22006
850.95	21953
851.085	21926
851.22	22036
851.355	21998
851.49	21880
851.625	21934
851.76	21953
851.895	21903
852.03	21755
852.165	21968
852.299	21945
852.434	21956
852.569	21941
852.703	21968
852.838	22063
852.973	22086
853.107	22078
853.242	21842
853.376	21762
853.511	21595
853.645	21625
853.78	21781
853.914	21606
854.048	21648
854.183	21736
854.317	21656
854.451	21899
854.585	21755
854.72	21732
854.854	21838
854.988	21755
855.122	21793
855.256	21496
855.39	21682
855.524	21770
855.658	21739
855.792	21709
855.926	21713
856.06	21751
856.194	21949
856.327	21857
856.461	21724
856.595	21538
856.729	21572
856.862	21854
856.996	21755
857.13	21701
857.263	21903
857.397	21759
857.53	21709
857.664	21766
857.797	21625
857.931	21888
858.064	21778
858.197	21861
858.331	21686
858.464	21690
858.597	21580
858.731	21675
858.864	21538
858.997	21705
859.13	21618
859.263	21698
859.396	21789
859.529	21591
859.662	21705
859.795	21637
859.928	21728
860.061	21751
860.194	21884
860.327	21701
860.46	21625
860.592	21816
860.725	21918
860.858	21789
860.99	21690
861.123	21488
861.256	21656
861.388	21671
861.521	22303
861.653	21629
861.786	21348
861.918	21553
862.05	21595
862.183	21751
862.315	21663
862.447	21648
862.58	21667
862.712	21511
862.844	21329
862.976	21534
863.108	21279
863.24	21736
863.372	21336
863.504	21378
863.636	21382
863.768	21485
863.9	21268
864.032	21294
864.164	21321
864.296	21363
864.428	21519
864.559	21405
864.691	21386
864.823	21435
864.954	21397
865.086	21279
865.217	21283
865.349	21161
865.48	21260
865.612	21355
865.743	21458
865.875	21230
866.006	21123
866.137	21264
866.269	21317
866.4	21252
866.531	21123
866.662	21116
866.793	21199
866.924	21222
867.055	21192
867.186	21203
867.317	21268
867.448	21085
867.579	21028
867.71	21058
867.841	21150
867.972	21218
868.103	21093
868.233	21108
868.364	21116
868.495	21401
868.625	21348
868.756	21507
868.886	21302
869.017	21428
869.147	21530
869.278	21412
869.408	21454
869.539	21572
869.669	21530
869.799	21363
869.929	21576
870.06	21466
870.19	21701
870.32	21701
870.45	21736
870.58	21838
870.71	21888
870.84	21831
870.97	21705
871.1	21956
871.23	22070
871.36	21979
871.489	21812
871.619	21949
871.749	21903
871.879	21907
872.008	22154
872.138	21903
872.267	21960
872.397	21857
872.526	21793
872.656	21842
872.785	21911
872.915	22131
873.044	22112
873.173	21854
873.303	21998
873.432	21968
873.561	22147
873.69	21934
873.819	22048
873.948	22150
874.077	22070
874.206	22059
874.335	21991
874.464	22177
874.593	22295
874.722	22295
874.851	22280
874.979	22284
875.108	22348
875.237	22242
875.365	22162
875.494	22249
875.623	22375
875.751	22192
875.88	22348
876.008	22272
876.136	22508
876.265	22596
876.393	22854
876.521	22706
876.65	22771
876.778	22717
876.906	22778
877.034	22516
877.162	22683
877.29	22588
877.418	22702
877.546	22759
877.674	22599
877.802	22603
877.93	22645
878.058	22557
878.185	22421
878.313	22485
878.441	22546
878.568	22497
878.696	22527
878.824	22645
878.951	22717
879.079	22824
879.206	22847
879.333	22847
879.461	22729
879.588	22774
879.715	22790
879.842	22908
879.97	22793
880.097	22428
880.224	22443
880.351	22386
880.478	22459
880.605	22329
880.732	22363
880.859	22637
880.986	22485
881.112	22462
881.239	22299
881.366	22181
881.493	22120
881.619	22036
881.746	21987
881.872	21998
881.999	21876
882.125	21956
882.252	22097
882.378	21975
882.505	22135
882.631	21873
882.757	21816
882.883	21785
883.01	21751
883.136	21759
883.262	21766
883.388	21625
883.514	21717
883.64	21743
883.766	21633
883.892	21466
884.018	21507
884.143	21686
884.269	21728
884.395	21450
884.52	21283
884.646	21405
884.772	21355
884.897	21287
885.023	21344
885.148	21393
885.274	21439
885.399	21363
885.524	21214
885.65	21401
885.775	21469
885.9	21344
886.025	21416
886.15	21378
886.275	21272
886.4	21287
886.525	21325
886.65	21275
886.775	21294
886.9	21325
887.025	21469
887.149	21275
887.274	21195
887.399	21173
887.523	21024
887.648	21062
887.773	20929
887.897	21100
888.021	21066
888.146	21055
888.27	21188
888.395	21135
888.519	21272
888.643	21009
888.767	21074
888.891	20963
889.015	20883
889.139	20994
889.263	20834
889.387	21017
889.511	21108
889.635	20986
889.759	20815
889.883	20834
890.006	20781
890.13	21020
890.254	20815
890.377	20720
890.501	20602
890.624	20560
890.748	20705
890.871	20621
890.995	20377
891.118	20362
891.241	20476
891.364	20343
891.488	20499
891.611	20469
891.734	20381
891.857	20522
891.98	20393
892.103	20438
892.226	20389
892.349	20389
892.471	20252
892.594	20309
892.717	20400
892.839	20419
892.962	20252
893.085	20370
893.207	20438
893.33	20267
893.452	20259
893.575	20355
893.697	20298
893.819	20450
893.941	20583
894.064	20400
894.186	20259
894.308	20305
894.43	20351
894.552	20389
894.674	20400
894.796	20298
894.918	20298
895.04	20187
895.161	20533
895.283	20301
895.405	20252
895.526	20271
895.648	20290
895.769	20427
895.891	20377
896.012	20419
896.134	20374
896.255	20313
896.376	20381
896.498	20374
896.619	20396
896.74	20408
896.861	20434
896.982	20750
897.103	20769
897.224	20739
897.345	20644
897.466	20590
897.587	20507
897.708	20621
897.828	20549
897.949	20495
898.07	20332
898.19	20537
898.311	20701
898.431	20503
898.552	20541
898.672	20632
898.792	20621
898.913	20537
899.033	20377
899.153	20393
899.273	20100
899.393	20218
899.513	20225
899.633	20362
899.753	20282
899.873	20237
899.993	20218
900.113	20126
900.232	20164
900.352	20111
900.472	20142
900.591	20001
900.711	20031
900.83	20062
900.95	20218
901.069	20176
901.189	19890
901.308	19784
901.427	19704
901.546	19689
901.665	19632
901.784	19662
901.904	19453
902.023	19335
902.141	19179
902.26	19221
902.379	19240
902.498	19000
902.617	19076
902.735	19179
902.854	18985
902.973	18973
903.091	18760
903.21	18696
903.328	18814
903.446	18715
903.565	18502
903.683	18559
903.801	18452
903.919	18540
904.038	18559
904.156	18384
904.274	18380
904.392	18182
904.51	18399
904.627	18254
904.745	18467
904.863	18475
904.981	18182
905.098	18022
905.216	18129
905.334	18098
905.451	18136
905.569	17961
905.686	17980
905.803	17988
905.921	17805
906.038	17980
906.155	17901
906.272	17687
906.389	17691
906.506	17589
906.623	17604
906.74	17505
906.857	17474
906.974	17387
907.091	17653
907.208	17707
907.324	17638
907.441	17474
907.557	17197
907.674	17261
907.79	17124
907.907	17197
908.023	17189
908.139	17254
908.256	17117
908.372	17159
908.488	17048
908.604	16927
908.72	16995
908.836	16923
908.952	16831
909.068	16915
909.184	16953
909.3	16995
909.415	16923
909.531	16881
909.647	16683
909.762	16554
909.878	16622
909.993	16599
910.108	16558
910.224	16523
910.339	16558
910.454	16386
910.57	16474
910.685	16371
910.8	16504
910.915	16508
911.03	16398
911.145	16272
911.259	16154
911.374	16181
911.489	16150
911.604	16150
911.718	15930
911.833	15994
911.947	15774
912.062	15713
912.176	16013
912.291	16044
912.405	15926
912.519	16135
912.633	16135
912.748	15968
912.862	15789
912.976	15743
913.09	15679
913.204	15663
913.318	15717
913.431	15778
913.545	15846
913.659	15926
913.772	15633
913.886	15568
914	15576
914.113	15584
914.226	15686
914.34	15614
914.453	15454
914.566	15542
914.68	15401
914.793	15336
914.906	15058
915.019	15108
915.132	15116
915.245	15173
915.358	15184
915.47	15150
915.583	15180
915.696	15154
915.809	15260
915.921	15302
916.034	15005
916.146	14952
916.259	15001
916.371	15097
916.483	15112
916.595	14937
916.708	14952
916.82	14952
916.932	14899
917.044	14963
917.156	14792
917.268	14731
917.38	14804
917.491	14807
917.603	14750
917.715	14857
917.826	14876
917.938	14697
918.049	14602
918.161	14648
918.272	14804
918.384	14826
918.495	14758
918.606	14651
918.717	14469
918.828	14484
918.939	14682
919.05	14415
919.161	14507
919.272	14347
919.383	14362
919.494	14606
919.604	14697
919.715	14507
919.826	14438
919.936	14465
920.047	14556
920.157	14526
920.267	14667
920.378	14492
920.488	14419
920.598	14617
920.708	14823
920.818	14556
920.928	14667
921.038	14743
921.148	14777
921.258	14427
921.368	14278
921.477	14259
921.587	14115
921.697	14062
921.806	14199
921.916	14039
922.025	13925
922.134	13868
922.244	13795
922.353	13913
922.462	13715
922.571	13643
922.68	13468
922.789	13457
922.898	13445
923.007	13441
923.116	13434
923.224	13449
923.333	13407
923.442	13396
923.55	13301
923.659	13343
923.767	13365
923.876	13270
923.984	13225
924.092	13145
924.201	13221
924.309	13297
924.417	13263
924.525	13099
924.633	13084
924.741	13887
924.849	12981
924.956	13088
925.064	12920
925.172	12753
925.279	12890
925.387	12867
925.494	12935
925.602	13057
925.709	12935
925.816	12791
925.924	12757
926.031	12795
926.138	12810
926.245	12897
926.352	12726
926.459	12909
926.566	12859
926.673	12787
926.779	12730
926.886	12631
926.993	12460
927.099	12467
927.206	12513
927.312	12399
927.419	12460
927.525	12517
927.631	12452
927.737	12414
927.843	12285
927.95	12232
928.056	12334
928.162	12228
928.267	12338
928.373	12905
928.479	12456
928.585	12045
928.69	12220
928.796	12232
928.901	12148
929.007	11866
929.112	12095
929.218	12057
929.323	11977
929.428	12041
929.533	12076
929.638	11893
929.743	11923
929.848	11935
929.953	11904
930.058	11832
930.163	11653
930.267	11703
930.372	11821
930.477	11668
930.581	11942
930.685	11718
930.79	11577
930.894	11551
930.998	11562
931.103	11642
931.207	11239
931.311	11284
931.415	11155
931.519	10934
931.623	10972
