Data from test_V78500241_2094.txt Node
Date: Fri Mar 25 15:56:18 CST 2022
User: usil
Spectrometer: V785-0024
Trigger mode: 0
Integration Time (sec): 4.000000E-1
Scans to average: 1
Nonlinearity correction enabled: false
Boxcar width: 0
Storing dark spectrum: false
XAxis mode: Wavelengths
Number of Pixels in Spectrum: 1024
>>>>>Begin Spectral Data<<<<<
801.071	28824
801.214	28869
801.356	28462
801.499	28440
801.641	28405
801.783	28375
801.926	28462
802.068	28363
802.211	28436
802.353	28242
802.496	28169
802.638	28158
802.78	27903
802.923	28013
803.065	27956
803.208	28029
803.35	28101
803.492	28230
803.635	28291
803.777	28150
803.919	28352
804.061	28729
804.204	28352
804.346	28154
804.488	28131
804.63	28261
804.773	28249
804.915	28417
805.057	28538
805.199	28295
805.341	28382
805.483	28424
805.626	28451
805.768	28333
805.91	28611
806.052	28390
806.194	28417
806.336	28733
806.478	28394
806.62	28504
806.762	28603
806.904	28771
807.046	28968
807.188	28934
807.33	28991
807.472	29006
807.614	28694
807.756	29083
807.898	28862
808.04	28850
808.182	28733
808.324	28755
808.465	28801
808.607	29018
808.749	29193
808.891	29292
809.033	29311
809.174	29181
809.316	29124
809.458	29223
809.6	29094
809.741	29220
809.883	29315
810.025	29471
810.166	29520
810.308	29528
810.45	29387
810.591	29375
810.733	29200
810.875	29124
811.016	28987
811.158	28976
811.299	29204
811.441	29429
811.582	29280
811.724	29322
811.865	29162
812.007	29155
812.148	29147
812.29	29334
812.431	29410
812.573	29379
812.714	29520
812.855	29707
812.997	29824
813.138	29874
813.279	29813
813.421	29813
813.562	29562
813.703	29452
813.845	29440
813.986	29239
814.127	29159
814.268	28927
814.41	28919
814.551	28782
814.692	29041
814.833	28740
814.974	28740
815.115	28930
815.256	28767
815.397	28820
815.539	28786
815.68	28744
815.821	28630
815.962	28767
816.103	28691
816.244	28592
816.385	28561
816.526	28459
816.666	28478
816.807	28322
816.948	28280
817.089	28310
817.23	28325
817.371	28070
817.512	28162
817.653	28204
817.793	28196
817.934	28173
818.075	28181
818.216	28291
818.356	28135
818.497	28070
818.638	27816
818.778	27903
818.919	27922
819.06	27983
819.2	28177
819.341	28211
819.481	28291
819.622	28367
819.762	28519
819.903	28363
820.043	28386
820.184	28459
820.324	28375
820.465	28371
820.605	28523
820.746	28257
820.886	28188
821.026	28280
821.167	28310
821.307	28398
821.447	28238
821.588	28074
821.728	28063
821.868	27793
822.008	27698
822.149	27766
822.289	27694
822.429	27344
822.569	27450
822.709	27344
822.849	27291
822.99	27138
823.13	27275
823.27	27104
823.41	26990
823.55	27005
823.69	27039
823.83	27005
823.97	26982
824.11	26826
824.25	26739
824.389	26823
824.529	26960
824.669	26872
824.809	26838
824.949	26937
825.089	27020
825.228	26743
825.368	26785
825.508	26701
825.648	26606
825.787	26697
825.927	26781
826.067	26636
826.206	26705
826.346	26765
826.485	26849
826.625	26883
826.765	26800
826.904	26864
827.044	26484
827.183	26533
827.323	26374
827.462	26473
827.601	26518
827.741	26427
827.88	26343
828.02	26336
828.159	26484
828.298	26480
828.437	26396
828.577	26381
828.716	26446
828.855	26252
828.994	26115
829.134	26119
829.273	26069
829.412	26119
829.551	26058
829.69	26092
829.829	26202
829.968	26024
830.107	26088
830.246	26111
830.385	26145
830.524	25982
830.663	25917
830.802	25788
830.941	25700
831.08	25670
831.219	25841
831.357	25826
831.496	25830
831.635	25757
831.774	25727
831.913	25738
832.051	25594
832.19	25529
832.329	25464
832.467	25434
832.606	25285
832.744	25278
832.883	25297
833.022	25422
833.16	25316
833.299	25476
833.437	25464
833.576	25301
833.714	25594
833.852	25499
833.991	25552
834.129	25544
834.267	25594
834.406	25476
834.544	25499
834.682	25556
834.821	25411
834.959	25708
835.097	25343
835.235	25594
835.373	25479
835.511	25449
835.65	25415
835.788	25327
835.926	25141
836.064	25171
836.202	25145
836.34	25350
836.478	25297
836.615	25247
836.753	25278
836.891	25312
837.029	25259
837.167	25232
837.305	25236
837.443	25103
837.58	24977
837.718	25198
837.856	25080
837.993	25103
838.131	25107
838.269	25099
838.406	24932
838.544	24897
838.681	24757
838.819	24726
838.956	24696
839.094	24540
839.231	24578
839.369	24715
839.506	24920
839.643	24802
839.781	24407
839.918	24589
840.055	24566
840.193	24597
840.33	24475
840.467	24597
840.604	24578
840.742	24654
840.879	24311
841.016	24384
841.153	24334
841.29	24544
841.427	24433
841.564	24490
841.701	24445
841.838	24452
841.975	24327
842.112	24281
842.249	24308
842.385	24235
842.522	24486
842.659	24292
842.796	24117
842.933	24174
843.069	24125
843.206	24064
843.343	24197
843.479	24197
843.616	24163
843.752	23965
843.889	24163
844.025	24197
844.162	23897
844.298	24167
844.435	24041
844.571	24053
844.708	24174
844.844	24133
844.98	24060
845.117	24018
845.253	23996
845.389	23847
845.525	23775
845.661	23874
845.798	23653
845.934	23745
846.07	23596
846.206	23790
846.342	23901
846.478	23699
846.614	23558
846.75	23341
846.886	23417
847.022	23577
847.158	23592
847.294	23535
847.429	23509
847.565	23292
847.701	23836
847.837	23117
847.972	23071
848.108	23242
848.244	23140
848.379	22987
848.515	23014
848.65	23094
848.786	22949
848.921	23037
849.057	23136
849.192	23140
849.328	23037
849.463	23166
849.598	23143
849.734	22847
849.869	22915
850.004	22862
850.14	22919
850.275	22774
850.41	22679
850.545	22717
850.68	22759
850.815	22934
850.95	22965
851.085	23067
851.22	23029
851.355	22816
851.49	22736
851.625	22683
851.76	22797
851.895	22691
852.03	22679
852.165	22843
852.299	22778
852.434	22953
852.569	22877
852.703	22774
852.838	22877
852.973	22976
853.107	22877
853.242	22668
853.376	22607
853.511	22459
853.645	22596
853.78	22687
853.914	22641
854.048	22451
854.183	22504
854.317	22615
854.451	22858
854.585	22592
854.72	22752
854.854	22687
854.988	22645
855.122	22584
855.256	22573
855.39	22634
855.524	22637
855.658	22660
855.792	22668
855.926	22592
856.06	22603
856.194	22645
856.327	22622
856.461	22577
856.595	22489
856.729	22649
856.862	22774
856.996	22668
857.13	22710
857.263	22755
857.397	22687
857.53	22573
857.664	22710
857.797	22721
857.931	22588
858.064	22618
858.197	22717
858.331	22599
858.464	22691
858.597	22474
858.731	22550
858.864	22557
858.997	22500
859.13	22596
859.263	22653
859.396	22748
859.529	22656
859.662	22538
859.795	22474
859.928	22641
860.061	22790
860.194	22839
860.327	22771
860.46	22611
860.592	22694
860.725	22729
860.858	22736
860.99	22550
861.123	22573
861.256	22546
861.388	22599
861.521	23341
861.653	22557
861.786	22421
861.918	22493
862.05	22405
862.183	22557
862.315	22523
862.447	22603
862.58	22584
862.712	22405
862.844	22246
862.976	22588
863.108	22405
863.24	22816
863.372	22249
863.504	22261
863.636	22413
863.768	22443
863.9	22246
864.032	22207
864.164	22363
864.296	22325
864.428	22436
864.559	22352
864.691	22375
864.823	22329
864.954	22230
865.086	22109
865.217	22325
865.349	22101
865.48	22276
865.612	22276
865.743	22238
865.875	22352
866.006	22246
866.137	22287
866.269	22223
866.4	22048
866.531	22017
866.662	22032
866.793	22070
866.924	22204
867.055	22284
867.186	22143
867.317	22223
867.448	22044
867.579	22074
867.71	22006
867.841	22063
867.972	22166
868.103	22219
868.233	22051
868.364	22139
868.495	22223
868.625	22390
868.756	22447
868.886	22322
869.017	22402
869.147	22538
869.278	22409
869.408	22497
869.539	22405
869.669	22550
869.799	22504
869.929	22436
870.06	22436
870.19	22611
870.32	22577
870.45	22698
870.58	22683
870.71	22873
870.84	22904
870.97	22660
871.1	22782
871.23	23022
871.36	22908
871.489	22797
871.619	22896
871.749	22831
871.879	22949
872.008	23140
872.138	22889
872.267	22976
872.397	22824
872.526	22767
872.656	22801
872.785	22873
872.915	22987
873.044	23140
873.173	23044
873.303	23010
873.432	23102
873.561	23067
873.69	23064
873.819	23044
873.948	23033
874.077	23124
874.206	23060
874.335	23056
874.464	23094
874.593	23200
874.722	23181
874.851	23235
874.979	23296
875.108	23246
875.237	23155
875.365	23071
875.494	23162
875.623	23425
875.751	23113
875.88	23185
876.008	23200
876.136	23345
876.265	23520
876.393	23718
876.521	23687
876.65	23665
876.778	23657
876.906	23547
877.034	23490
877.162	23554
877.29	23531
877.418	23551
877.546	23562
877.674	23592
877.802	23566
877.93	23459
878.058	23562
878.185	23337
878.313	23509
878.441	23436
878.568	23383
878.696	23471
878.824	23455
878.951	23608
879.079	23748
879.206	23752
879.333	23733
879.461	23592
879.588	23653
879.715	23672
879.842	23767
879.97	23661
880.097	23383
880.224	23315
880.351	23459
880.478	23402
880.605	23372
880.732	23406
880.859	23611
880.986	23360
881.112	23512
881.239	23143
881.366	23018
881.493	22930
881.619	22980
881.746	22877
881.872	22881
881.999	22866
882.125	22820
882.252	22999
882.378	22866
882.505	22984
882.631	22752
882.757	22512
882.883	22580
883.01	22580
883.136	22508
883.262	22546
883.388	22443
883.514	22637
883.64	22694
883.766	22428
883.892	22379
884.018	22360
884.143	22409
884.269	22531
884.395	22211
884.52	22200
884.646	22295
884.772	22226
884.897	22249
885.023	22246
885.148	22367
885.274	22390
885.399	22337
885.524	22379
885.65	22261
885.775	22204
885.9	22169
886.025	22280
886.15	22223
886.275	22173
886.4	22112
886.525	22173
886.65	22173
886.775	22078
886.9	22242
887.025	22451
887.149	22188
887.274	22120
887.399	22044
887.523	22021
887.648	21960
887.773	21899
887.897	22044
888.021	22093
888.146	21991
888.27	22124
888.395	22070
888.519	21930
888.643	22059
888.767	21915
888.891	21888
889.015	21660
889.139	21816
889.263	21751
889.387	21774
889.511	21926
889.635	21869
889.759	21679
889.883	21797
890.006	21698
890.13	21880
890.254	21663
890.377	21698
890.501	21530
890.624	21481
890.748	21526
890.871	21275
890.995	21188
891.118	21260
891.241	21382
891.364	21344
891.488	21363
891.611	21363
891.734	21226
891.857	21405
891.98	21336
892.103	21252
892.226	21150
892.349	21351
892.471	21093
892.594	21199
892.717	21230
892.839	21287
892.962	21150
893.085	21291
893.207	21157
893.33	21077
893.452	21074
893.575	21188
893.697	21203
893.819	21351
893.941	21374
894.064	21340
894.186	21013
894.308	21070
894.43	21340
894.552	21401
894.674	21199
894.796	21123
894.918	21165
895.04	21157
895.161	21157
895.283	21184
895.405	21100
895.526	21222
895.648	21192
895.769	21123
895.891	21146
896.012	21317
896.134	21150
896.255	21283
896.376	21123
896.498	21222
896.619	21275
896.74	21169
896.861	21382
896.982	21401
897.103	21610
897.224	21317
897.345	21435
897.466	21393
897.587	21397
897.708	21542
897.828	21291
897.949	21199
898.07	21222
898.19	21256
898.311	21325
898.431	21306
898.552	21454
898.672	21450
898.792	21469
898.913	21374
899.033	21294
899.153	21096
899.273	21089
899.393	21157
899.513	21154
899.633	21058
899.753	21127
899.873	20956
899.993	21104
900.113	21157
900.232	20990
900.352	21005
900.472	20861
900.591	20830
900.711	20910
900.83	20765
900.95	20785
901.069	20899
901.189	20754
901.308	20549
901.427	20419
901.546	20370
901.665	20294
901.784	20522
901.904	20278
902.023	20233
902.141	20027
902.26	19887
902.379	20073
902.498	19822
902.617	19868
902.735	19982
902.854	19902
902.973	19944
903.091	19647
903.21	19518
903.328	19582
903.446	19521
903.565	19369
903.683	19449
903.801	19282
903.919	19377
904.038	19384
904.156	19095
904.274	19232
904.392	19179
904.51	19122
904.627	19046
904.745	19206
904.863	19171
904.981	19015
905.098	18878
905.216	18749
905.334	18844
905.451	18730
905.569	18753
905.686	18692
905.803	18779
905.921	18559
906.038	18650
906.155	18574
906.272	18540
906.389	18494
906.506	18346
906.623	18407
906.74	18243
906.857	18163
906.974	18209
907.091	18330
907.208	18448
907.324	18399
907.441	18220
907.557	18030
907.674	18011
907.79	17950
907.907	17935
908.023	18019
908.139	17977
908.256	17965
908.372	17958
908.488	17828
908.604	17745
908.72	17726
908.836	17798
908.952	17737
909.068	17828
909.184	17980
909.3	17813
909.415	17809
909.531	17756
909.647	17539
909.762	17433
909.878	17417
909.993	17467
910.108	17421
910.224	17391
910.339	17414
910.454	17341
910.57	17216
910.685	17178
910.8	17402
910.915	17372
911.03	17273
911.145	17048
911.259	17067
911.374	16987
911.489	17003
911.604	16835
911.718	16767
911.833	16759
911.947	16679
912.062	16596
912.176	16683
912.291	16790
912.405	16679
912.519	16965
912.633	16919
912.748	16900
912.862	16729
912.976	16656
913.09	16394
913.204	16470
913.318	16611
913.431	16729
913.545	16596
913.659	16599
913.772	16554
913.886	16280
914	16322
914.113	16421
914.226	16493
914.34	16382
914.453	16166
914.566	16295
914.68	16337
914.793	16219
914.906	16006
915.019	15991
915.132	15789
915.245	15937
915.358	15934
915.47	15922
915.583	15930
915.696	15918
915.809	15994
915.921	16063
916.034	15956
916.146	15850
916.259	15774
916.371	15884
916.483	15831
916.595	15759
916.708	15720
916.82	15698
916.932	15705
917.044	15812
917.156	15610
917.268	15553
917.38	15534
917.491	15568
917.603	15724
917.715	15656
917.826	15705
917.938	15507
918.049	15397
918.161	15496
918.272	15675
918.384	15603
918.495	15443
918.606	15306
918.717	15245
918.828	15397
918.939	15241
919.05	15279
919.161	15218
919.272	15024
919.383	15032
919.494	15302
919.604	15523
919.715	15370
919.826	15165
919.936	15226
920.047	15291
920.157	15332
920.267	15329
920.378	15256
920.488	15237
920.598	15332
920.708	15542
920.818	15348
920.928	15351
921.038	15568
921.148	15397
921.258	15207
921.368	15138
921.477	15032
921.587	14933
921.697	14925
921.806	14944
921.916	14830
922.025	14598
922.134	14606
922.244	14621
922.353	14575
922.462	14446
922.571	14473
922.68	14199
922.789	14176
922.898	14301
923.007	14103
923.116	14221
923.224	14259
923.333	14214
923.442	14164
923.55	14130
923.659	14107
923.767	14134
923.876	14123
923.984	14069
924.092	14012
924.201	14084
924.309	13955
924.417	13974
924.525	13833
924.633	13913
924.741	14804
924.849	13700
924.956	13856
925.064	13791
925.172	13628
925.279	13601
925.387	13567
925.494	13586
925.602	13807
925.709	13651
925.816	13559
925.924	13594
926.031	13586
926.138	13548
926.245	13616
926.352	13449
926.459	13506
926.566	13658
926.673	13472
926.779	13449
926.886	13396
926.993	13202
927.099	13137
927.206	13114
927.312	13091
927.419	13187
927.525	13160
927.631	13133
927.737	13065
927.843	13008
927.95	12966
928.056	12951
928.162	12943
928.267	12928
928.373	13556
928.479	13076
928.585	12757
928.69	12966
928.796	13023
928.901	12863
929.007	12692
929.112	12802
929.218	12814
929.323	12677
929.428	12688
929.533	12829
929.638	12658
929.743	12658
929.848	12768
929.953	12604
930.058	12540
930.163	12315
930.267	12391
930.372	12475
930.477	12292
930.581	12601
930.685	12304
930.79	12190
930.894	12197
930.998	12251
931.103	12311
931.207	11935
931.311	11950
931.415	11863
931.519	11581
931.623	11642
