Data from test_V78500241_803.txt Node
Date: Fri Mar 25 15:47:21 CST 2022
User: usil
Spectrometer: V785-0024
Trigger mode: 0
Integration Time (sec): 4.000000E-1
Scans to average: 1
Nonlinearity correction enabled: false
Boxcar width: 0
Storing dark spectrum: false
XAxis mode: Wavelengths
Number of Pixels in Spectrum: 1024
>>>>>Begin Spectral Data<<<<<
801.071	28025
801.214	27804
801.356	27686
801.499	27530
801.641	27564
801.783	27462
801.926	27743
802.068	27500
802.211	27351
802.353	27302
802.496	27203
802.638	27279
802.78	27180
802.923	27104
803.065	27104
803.208	27116
803.35	27192
803.492	27207
803.635	27214
803.777	27332
803.919	27393
804.061	27797
804.204	27367
804.346	27363
804.488	27218
804.63	27401
804.773	27211
804.915	27310
805.057	27492
805.199	27291
805.341	27355
805.483	27443
805.626	27481
805.768	27397
805.91	27507
806.052	27458
806.194	27481
806.336	27667
806.478	27587
806.62	27663
806.762	27523
806.904	27789
807.046	28017
807.188	27983
807.33	27876
807.472	28017
807.614	27819
807.756	27720
807.898	27709
808.04	27819
808.182	27770
808.324	27804
808.465	27918
808.607	28116
808.749	28211
808.891	28093
809.033	28329
809.174	28348
809.316	28124
809.458	28234
809.6	28219
809.741	28333
809.883	28401
810.025	28455
810.166	28470
810.308	28523
810.45	28508
810.591	28299
810.733	28158
810.875	28086
811.016	28017
811.158	28059
811.299	28215
811.441	28413
811.582	28322
811.724	28204
811.865	28253
812.007	28162
812.148	28207
812.29	28230
812.431	28352
812.573	28527
812.714	28569
812.855	28664
812.997	28687
813.138	28991
813.279	28881
813.421	28710
813.562	28542
813.703	28394
813.845	28333
813.986	28181
814.127	28013
814.268	27831
814.41	27930
814.551	27911
814.692	27914
814.833	27793
814.974	27766
815.115	27850
815.256	27732
815.397	27705
815.539	27739
815.68	27595
815.821	27447
815.962	27793
816.103	27568
816.244	27572
816.385	27477
816.526	27492
816.666	27249
816.807	27017
816.948	27203
817.089	27351
817.23	27260
817.371	27157
817.512	27100
817.653	27055
817.793	27131
817.934	27093
818.075	27043
818.216	27154
818.356	27169
818.497	26883
818.638	26914
818.778	26948
818.919	27017
819.06	26944
819.2	27154
819.341	27173
819.481	27135
819.622	27321
819.762	27500
819.903	27447
820.043	27363
820.184	27310
820.324	27188
820.465	27348
820.605	27256
820.746	27085
820.886	27005
821.026	27218
821.167	27199
821.307	27416
821.447	27146
821.588	27176
821.728	26933
821.868	26792
822.008	26590
822.149	26583
822.289	26617
822.429	26366
822.569	26313
822.709	26332
822.849	26229
822.99	26024
823.13	26107
823.27	26103
823.41	25845
823.55	25925
823.69	25932
823.83	25936
823.97	25925
824.11	25909
824.25	25734
824.389	25700
824.529	25845
824.669	25826
824.809	26081
824.949	25868
825.089	25715
825.228	25875
825.368	25693
825.508	25704
825.648	25685
825.787	25708
825.927	25780
826.067	25632
826.206	25510
826.346	25647
826.485	25685
826.625	25689
826.765	25807
826.904	25719
827.044	25449
827.183	25400
827.323	25339
827.462	25407
827.601	25411
827.741	25331
827.88	25422
828.02	25301
828.159	25426
828.298	25263
828.437	25479
828.577	25343
828.716	25563
828.855	25179
828.994	25148
829.134	25042
829.273	25156
829.412	25046
829.551	25000
829.69	25110
829.829	25076
829.968	25122
830.107	25198
830.246	25103
830.385	25091
830.524	24875
830.663	24966
830.802	24730
830.941	24650
831.08	24669
831.219	24684
831.357	24642
831.496	24916
831.635	24589
831.774	24532
831.913	24726
832.051	24544
832.19	24384
832.329	24585
832.467	24441
832.606	24300
832.744	24266
832.883	24388
833.022	24190
833.16	24380
833.299	24388
833.437	24353
833.576	24399
833.714	24483
833.852	24483
833.991	24445
834.129	24547
834.267	24414
834.406	24475
834.544	24426
834.682	24483
834.821	24342
834.959	24475
835.097	24414
835.235	24456
835.373	24361
835.511	24285
835.65	24186
835.788	24258
835.926	24121
836.064	24011
836.202	24144
836.34	24327
836.478	24209
836.615	24178
836.753	24429
836.891	24338
837.029	24178
837.167	24106
837.305	24129
837.443	24064
837.58	24133
837.718	24095
837.856	24049
837.993	24034
838.131	24091
838.269	24072
838.406	23996
838.544	23874
838.681	23741
838.819	23665
838.956	23573
839.094	23452
839.231	23646
839.369	23775
839.506	23923
839.643	23824
839.781	23509
839.918	23520
840.055	23509
840.193	23505
840.33	23501
840.467	23440
840.604	23474
840.742	23710
840.879	23425
841.016	23315
841.153	23463
841.29	23524
841.427	23459
841.564	23543
841.701	23486
841.838	23383
841.975	23311
842.112	23448
842.249	23307
842.385	23311
842.522	23269
842.659	23322
842.796	23189
842.933	23197
843.069	23102
843.206	23102
843.343	23208
843.479	23208
843.616	23155
843.752	22930
843.889	22976
844.025	23117
844.162	22987
844.298	22995
844.435	22968
844.571	22976
844.708	23079
844.844	23064
844.98	23037
845.117	22961
845.253	22881
845.389	22828
845.525	22869
845.661	22961
845.798	22538
845.934	22831
846.07	22683
846.206	22675
846.342	22744
846.478	22713
846.614	22455
846.75	22371
846.886	22417
847.022	22485
847.158	22390
847.294	22363
847.429	22405
847.565	22413
847.701	22706
847.837	22162
847.972	22158
848.108	22280
848.244	22287
848.379	22090
848.515	22097
848.65	22093
848.786	22002
848.921	22101
849.057	22090
849.192	22006
849.328	22067
849.463	22051
849.598	22010
849.734	21915
849.869	21918
850.004	21846
850.14	21835
850.275	21892
850.41	21770
850.545	21724
850.68	21755
850.815	21865
850.95	21675
851.085	21911
851.22	21861
851.355	21838
851.49	21720
851.625	21728
851.76	21789
851.895	21774
852.03	21660
852.165	21808
852.299	21831
852.434	21785
852.569	21835
852.703	21759
852.838	21926
852.973	22059
853.107	21922
853.242	21724
853.376	21675
853.511	21538
853.645	21538
853.78	21816
853.914	21587
854.048	21637
854.183	21583
854.317	21675
854.451	21785
854.585	21644
854.72	21580
854.854	21671
854.988	21530
855.122	21545
855.256	21469
855.39	21641
855.524	21671
855.658	21698
855.792	21622
855.926	21698
856.06	21743
856.194	21576
856.327	21614
856.461	21568
856.595	21504
856.729	21587
856.862	21751
856.996	21557
857.13	21690
857.263	21690
857.397	21675
857.53	21663
857.664	21580
857.797	21762
857.931	21804
858.064	21682
858.197	21682
858.331	21633
858.464	21568
858.597	21568
858.731	21622
858.864	21671
858.997	21622
859.13	21625
859.263	21774
859.396	21720
859.529	21538
859.662	21526
859.795	21553
859.928	21618
860.061	21743
860.194	21831
860.327	21652
860.46	21599
860.592	21808
860.725	21759
860.858	21743
860.99	21610
861.123	21572
861.256	21519
861.388	21587
861.521	22215
861.653	21523
861.786	21443
861.918	21485
862.05	21507
862.183	21583
862.315	21515
862.447	21622
862.58	21545
862.712	21306
862.844	21317
862.976	21488
863.108	21310
863.24	21789
863.372	21287
863.504	21332
863.636	21279
863.768	21310
863.9	21264
864.032	21306
864.164	21283
864.296	21408
864.428	21325
864.559	21420
864.691	21473
864.823	21355
864.954	21291
865.086	21393
865.217	21237
865.349	21176
865.48	21207
865.612	21154
865.743	21298
865.875	21211
866.006	21237
866.137	21127
866.269	21214
866.4	21173
866.531	21135
866.662	21066
866.793	21161
866.924	21112
867.055	21093
867.186	21199
867.317	21131
867.448	21009
867.579	21051
867.71	20971
867.841	21138
867.972	21150
868.103	21119
868.233	21131
868.364	21127
868.495	21279
868.625	21317
868.756	21583
868.886	21287
869.017	21310
869.147	21473
869.278	21466
869.408	21492
869.539	21473
869.669	21431
869.799	21313
869.929	21564
870.06	21542
870.19	21698
870.32	21648
870.45	21686
870.58	21880
870.71	21888
870.84	21888
870.97	21778
871.1	21808
871.23	22006
871.36	22040
871.489	21915
871.619	21880
871.749	21915
871.879	21972
872.008	22143
872.138	22029
872.267	21979
872.397	21846
872.526	21869
872.656	21774
872.785	21762
872.915	22010
873.044	22082
873.173	22013
873.303	22109
873.432	22048
873.561	22143
873.69	22109
873.819	22036
873.948	22090
874.077	22040
874.206	21972
874.335	22150
874.464	22029
874.593	22299
874.722	22143
874.851	22230
874.979	22386
875.108	22139
875.237	22280
875.365	22067
875.494	22181
875.623	22306
875.751	22200
875.88	22265
876.008	22310
876.136	22459
876.265	22641
876.393	22752
876.521	22622
876.65	22561
876.778	22649
876.906	22538
877.034	22542
877.162	22557
877.29	22577
877.418	22649
877.546	22531
877.674	22615
877.802	22554
877.93	22546
878.058	22516
878.185	22474
878.313	22672
878.441	22535
878.568	22367
878.696	22432
878.824	22557
878.951	22535
879.079	22771
879.206	22953
879.333	22725
879.461	22580
879.588	22702
879.715	22694
879.842	22721
879.97	22596
880.097	22554
880.224	22455
880.351	22394
880.478	22428
880.605	22413
880.732	22367
880.859	22691
880.986	22322
881.112	22451
881.239	22257
881.366	22158
881.493	22131
881.619	21880
881.746	22002
881.872	22029
881.999	21842
882.125	21892
882.252	21941
882.378	21945
882.505	21850
882.631	21892
882.757	21686
882.883	21793
883.01	21614
883.136	21732
883.262	21580
883.388	21473
883.514	21709
883.64	21705
883.766	21641
883.892	21450
884.018	21576
884.143	21610
884.269	21660
884.395	21321
884.52	21241
884.646	21256
884.772	21192
884.897	21325
885.023	21344
885.148	21401
885.274	21283
885.399	21492
885.524	21233
885.65	21252
885.775	21386
885.9	21294
886.025	21408
886.15	21321
886.275	21195
886.4	21066
886.525	21321
886.65	21211
886.775	21218
886.9	21393
887.025	21496
887.149	21226
887.274	21138
887.399	21043
887.523	21070
887.648	21127
887.773	20918
887.897	21188
888.021	21119
888.146	21020
888.27	21043
888.395	21112
888.519	21055
888.643	21005
888.767	21230
888.891	21036
889.015	20845
889.139	20918
889.263	20891
889.387	20925
889.511	21100
889.635	20994
889.759	20769
889.883	20739
890.006	20815
890.13	20899
890.254	20800
890.377	20804
890.501	20708
890.624	20674
890.748	20613
890.871	20651
890.995	20419
891.118	20290
891.241	20454
891.364	20385
891.488	20427
891.611	20408
891.734	20537
891.857	20545
891.98	20381
892.103	20446
892.226	20389
892.349	20347
892.471	20161
892.594	20362
892.717	20434
892.839	20305
892.962	20305
893.085	20415
893.207	20294
893.33	20206
893.452	20282
893.575	20385
893.697	20202
893.819	20381
893.941	20518
894.064	20438
894.186	20370
894.308	20282
894.43	20282
894.552	20549
894.674	20351
894.796	20259
894.918	20286
895.04	20282
895.161	20419
895.283	20400
895.405	20214
895.526	20336
895.648	20271
895.769	20324
895.891	20351
896.012	20396
896.134	20377
896.255	20408
896.376	20374
896.498	20278
896.619	20385
896.74	20320
896.861	20415
896.982	20651
897.103	20834
897.224	20587
897.345	20583
897.466	20480
897.587	20530
897.708	20613
897.828	20499
897.949	20469
898.07	20381
898.19	20492
898.311	20530
898.431	20617
898.552	20400
898.672	20644
898.792	20552
898.913	20564
899.033	20495
899.153	20408
899.273	20313
899.393	20221
899.513	20328
899.633	20278
899.753	20309
899.873	20168
899.993	20278
900.113	20225
900.232	20218
900.352	20233
900.472	20111
900.591	19989
900.711	20081
900.83	19944
900.95	20172
901.069	20149
901.189	19932
901.308	19685
901.427	19772
901.546	19639
901.665	19670
901.784	19594
901.904	19529
902.023	19316
902.141	19236
902.26	19278
902.379	19213
902.498	19065
902.617	19034
902.735	19129
902.854	19061
902.973	19084
903.091	18970
903.21	18859
903.328	18783
903.446	18703
903.565	18566
903.683	18608
903.801	18502
903.919	18464
904.038	18642
904.156	18346
904.274	18498
904.392	18266
904.51	18426
904.627	18513
904.745	18338
904.863	18308
904.981	18083
905.098	18045
905.216	18015
905.334	18186
905.451	18155
905.569	17977
905.686	18224
905.803	18030
905.921	17805
906.038	17977
906.155	17897
906.272	17802
906.389	17783
906.506	17630
906.623	17570
906.74	17665
906.857	17444
906.974	17512
907.091	17668
907.208	17649
907.324	17604
907.441	17520
907.557	17341
907.674	17258
907.79	17212
907.907	17242
908.023	17311
908.139	17364
908.256	17246
908.372	17147
908.488	17170
908.604	17006
908.72	16999
908.836	17018
908.952	17014
909.068	17018
909.184	17105
909.3	17029
909.415	16991
909.531	17079
909.647	16790
909.762	16786
909.878	16721
909.993	16733
910.108	16717
910.224	16653
910.339	16812
910.454	16546
910.57	16421
910.685	16565
910.8	16626
910.915	16782
911.03	16481
911.145	16284
911.259	16272
911.374	16382
911.489	16226
911.604	16234
911.718	16074
911.833	16078
911.947	15899
912.062	16013
912.176	16059
912.291	16078
912.405	16017
912.519	16318
912.633	16147
912.748	16131
912.862	16032
912.976	15945
913.09	15751
913.204	15823
913.318	15926
913.431	15922
913.545	15869
913.659	16071
913.772	15876
913.886	15774
914	15595
914.113	15785
914.226	15816
914.34	15713
914.453	15549
914.566	15690
914.68	15663
914.793	15553
914.906	15386
915.019	15294
915.132	15230
915.245	15302
915.358	15256
915.47	15401
915.583	15306
915.696	15237
915.809	15393
915.921	15466
916.034	15161
916.146	15222
916.259	15218
916.371	15199
916.483	15275
916.595	15146
916.708	15097
916.82	15150
916.932	15013
917.044	15066
917.156	15047
917.268	14899
917.38	14975
917.491	14960
917.603	14982
917.715	14948
917.826	14941
917.938	14883
918.049	14796
918.161	14838
918.272	15051
918.384	15066
918.495	14769
918.606	14610
918.717	14632
918.828	14750
918.939	14701
919.05	14644
919.161	14651
919.272	14423
919.383	14549
919.494	14632
919.604	14849
919.715	14697
919.826	14571
919.936	14636
920.047	14644
920.157	14636
920.267	14838
920.378	14644
920.488	14621
920.598	14861
920.708	14937
920.818	14834
920.928	14815
921.038	14937
921.148	14796
921.258	14552
921.368	14469
921.477	14404
921.587	14419
921.697	14206
921.806	14298
921.916	14244
922.025	14046
922.134	14043
922.244	13947
922.353	14073
922.462	13868
922.571	13811
922.68	13712
922.789	13643
922.898	13666
923.007	13636
923.116	13674
923.224	13578
923.333	13529
923.442	13502
923.55	13521
923.659	13529
923.767	13567
923.876	13480
923.984	13483
924.092	13381
924.201	13449
924.309	13449
924.417	13373
924.525	13308
924.633	13335
924.741	14218
924.849	13137
924.956	13187
925.064	13137
925.172	13012
925.279	13145
925.387	13190
925.494	13133
925.602	13175
925.709	13126
925.816	12958
925.924	13103
926.031	13091
926.138	13031
926.245	13053
926.352	12844
926.459	13145
926.566	13034
926.673	12928
926.779	12829
926.886	12894
926.993	12684
927.099	12574
927.206	12639
927.312	12620
927.419	12623
927.525	12540
927.631	12631
927.737	12517
927.843	12540
927.95	12441
928.056	12388
928.162	12418
928.267	12547
928.373	13088
928.479	12585
928.585	12251
928.69	12357
928.796	12422
928.901	12346
929.007	12171
929.112	12384
929.218	12289
929.323	12216
929.428	12155
929.533	12327
929.638	12026
929.743	12175
929.848	12159
929.953	12117
930.058	12045
930.163	11885
930.267	11878
930.372	11961
930.477	11840
930.581	11992
930.685	12026
930.79	11760
930.894	11805
930.998	11748
931.103	11821
931.207	11448
931.311	11326
931.415	11337
931.519	11155
931.623	11045
