Data from test_V78500241_2209.txt Node
Date: Fri Mar 25 15:57:06 CST 2022
User: usil
Spectrometer: V785-0024
Trigger mode: 0
Integration Time (sec): 4.000000E-1
Scans to average: 1
Nonlinearity correction enabled: false
Boxcar width: 0
Storing dark spectrum: false
XAxis mode: Wavelengths
Number of Pixels in Spectrum: 1024
>>>>>Begin Spectral Data<<<<<
801.071	29189
801.214	29064
801.356	28961
801.499	28797
801.641	28771
801.783	28744
801.926	28752
802.068	28847
802.211	28637
802.353	28691
802.496	28550
802.638	28432
802.78	28440
802.923	28443
803.065	28348
803.208	28493
803.35	28363
803.492	28580
803.635	28565
803.777	28432
803.919	28755
804.061	28999
804.204	28946
804.346	28660
804.488	28596
804.63	28740
804.773	28725
804.915	28831
805.057	28835
805.199	28698
805.341	28767
805.483	28900
805.626	29018
805.768	28896
805.91	28991
806.052	29025
806.194	28778
806.336	29113
806.478	29041
806.62	28915
806.762	28987
806.904	29246
807.046	29398
807.188	29402
807.33	29490
807.472	29364
807.614	29398
807.756	29322
807.898	29360
808.04	29056
808.182	29265
808.324	29231
808.465	29280
808.607	29592
808.749	29577
808.891	29661
809.033	29859
809.174	29684
809.316	29516
809.458	29672
809.6	29760
809.741	29824
809.883	29783
810.025	29862
810.166	29961
810.308	29923
810.45	29927
810.591	29973
810.733	29623
810.875	29630
811.016	29691
811.158	29474
811.299	29764
811.441	29931
811.582	29836
811.724	29748
811.865	29630
812.007	29577
812.148	29585
812.29	29691
812.431	29707
812.573	30011
812.714	30152
812.855	30201
812.997	30178
813.138	30254
813.279	30346
813.421	30190
813.562	30232
813.703	29874
813.845	29908
813.986	29619
814.127	29558
814.268	29269
814.41	29429
814.551	29311
814.692	29482
814.833	29330
814.974	29360
815.115	29429
815.256	29315
815.397	29273
815.539	29200
815.68	29197
815.821	29117
815.962	29299
816.103	29223
816.244	29136
816.385	28957
816.526	28976
816.666	28675
816.807	28740
816.948	28816
817.089	29006
817.23	28710
817.371	28740
817.512	28698
817.653	28774
817.793	28592
817.934	28725
818.075	28615
818.216	28691
818.356	28626
818.497	28611
818.638	28485
818.778	28360
818.919	28512
819.06	28519
819.2	28672
819.341	28900
819.481	28615
819.622	28854
819.762	29041
819.903	28915
820.043	28999
820.184	28812
820.324	28828
820.465	28904
820.605	28942
820.746	28752
820.886	28668
821.026	28835
821.167	28824
821.307	28797
821.447	28763
821.588	28672
821.728	28360
821.868	28211
822.008	28265
822.149	28158
822.289	28291
822.429	27899
822.569	27930
822.709	27869
822.849	27610
822.99	27838
823.13	27762
823.27	27526
823.41	27591
823.55	27511
823.69	27447
823.83	27496
823.97	27625
824.11	27420
824.25	27378
824.389	27332
824.529	27492
824.669	27435
824.809	27534
824.949	27424
825.089	27287
825.228	27466
825.368	27264
825.508	27127
825.648	27230
825.787	27336
825.927	27272
826.067	27279
826.206	27272
826.346	27233
826.485	27291
826.625	27233
826.765	27359
826.904	27298
827.044	27024
827.183	27032
827.323	27028
827.462	26998
827.601	27028
827.741	27058
827.88	26971
828.02	26842
828.159	26990
828.298	26857
828.437	27058
828.577	26857
828.716	27036
828.855	26883
828.994	26571
829.134	26727
829.273	26511
829.412	26629
829.551	26590
829.69	26667
829.829	26511
829.968	26758
830.107	26807
830.246	26621
830.385	26453
830.524	26564
830.663	26492
830.802	26434
830.941	26210
831.08	26263
831.219	26324
831.357	26267
831.496	26571
831.635	26161
831.774	26183
831.913	26149
832.051	26039
832.19	25879
832.329	26031
832.467	25966
832.606	25875
832.744	25788
832.883	25845
833.022	25860
833.16	25963
833.299	25940
833.437	25982
833.576	26092
833.714	25997
833.852	25986
833.991	26157
834.129	25997
834.267	25978
834.406	25890
834.544	26027
834.682	25921
834.821	25894
834.959	26008
835.097	25902
835.235	25997
835.373	25974
835.511	25959
835.65	25833
835.788	25826
835.926	25734
836.064	25635
836.202	25491
836.34	25856
836.478	25845
836.615	25780
836.753	25913
836.891	25852
837.029	25989
837.167	25738
837.305	25575
837.443	25738
837.58	25578
837.718	25685
837.856	25609
837.993	25502
838.131	25521
838.269	25563
838.406	25571
838.544	25445
838.681	25346
838.819	25221
838.956	25187
839.094	25038
839.231	25099
839.369	25213
839.506	25457
839.643	25327
839.781	25088
839.918	24947
840.055	25061
840.193	25084
840.33	24985
840.467	25008
840.604	25057
840.742	25213
840.879	24760
841.016	24882
841.153	24840
841.29	25065
841.427	24962
841.564	25038
841.701	25012
841.838	24764
841.975	24791
842.112	24981
842.249	24829
842.385	24760
842.522	24878
842.659	24791
842.796	24601
842.933	24753
843.069	24578
843.206	24696
843.343	24741
843.479	24837
843.616	24764
843.752	24589
843.889	24509
844.025	24753
844.162	24464
844.298	24574
844.435	24502
844.571	24570
844.708	24475
844.844	24833
844.98	24703
845.117	24654
845.253	24380
845.389	24308
845.525	24407
845.661	24327
845.798	24304
845.934	24209
846.07	24155
846.206	24262
846.342	24300
846.478	24159
846.614	24034
846.75	23885
846.886	23950
847.022	24079
847.158	24011
847.294	23920
847.429	24072
847.565	23923
847.701	24106
847.837	23657
847.972	23638
848.108	23722
848.244	23668
848.379	23581
848.515	23509
848.65	23505
848.786	23573
848.921	23589
849.057	23676
849.192	23634
849.328	23634
849.463	23490
849.598	23395
849.734	23676
849.869	23478
850.004	23360
850.14	23455
850.275	23223
850.41	23239
850.545	23162
850.68	23318
850.815	23284
850.95	23284
851.085	23512
851.22	23463
851.355	23303
851.49	23273
851.625	23341
851.76	23227
851.895	23200
852.03	23102
852.165	23265
852.299	23436
852.434	23288
852.569	23311
852.703	23341
852.838	23337
852.973	23372
853.107	23448
853.242	23250
853.376	23197
853.511	23109
853.645	22949
853.78	23208
853.914	23178
854.048	23018
854.183	23037
854.317	23147
854.451	23166
854.585	23216
854.72	23204
854.854	23246
854.988	22999
855.122	23105
855.256	22919
855.39	23033
855.524	23200
855.658	23090
855.792	23086
855.926	23155
856.06	23216
856.194	23254
856.327	23044
856.461	23117
856.595	23102
856.729	23170
856.862	23132
856.996	23242
857.13	23181
857.263	23254
857.397	23136
857.53	23147
857.664	23216
857.797	23071
857.931	23326
858.064	23242
858.197	23162
858.331	23208
858.464	22980
858.597	23006
858.731	23155
858.864	23124
858.997	22984
859.13	23090
859.263	23071
859.396	23098
859.529	23216
859.662	23086
859.795	23003
859.928	23075
860.061	23216
860.194	23261
860.327	23136
860.46	23204
860.592	23284
860.725	23250
860.858	23284
860.99	23143
861.123	23121
861.256	23060
861.388	23022
861.521	23802
861.653	23029
861.786	22790
861.918	22915
862.05	23033
862.183	23056
862.315	23006
862.447	23197
862.58	23143
862.712	22790
862.844	22774
862.976	22858
863.108	22911
863.24	23360
863.372	22736
863.504	22748
863.636	22797
863.768	22847
863.9	22820
864.032	22755
864.164	22641
864.296	22835
864.428	22881
864.559	22797
864.691	22831
864.823	22774
864.954	22778
865.086	22812
865.217	22710
865.349	22527
865.48	22713
865.612	22790
865.743	22805
865.875	22729
866.006	22687
866.137	22668
866.269	22706
866.4	22729
866.531	22584
866.662	22500
866.793	22691
866.924	22668
867.055	22683
867.186	22694
867.317	22523
867.448	22485
867.579	22630
867.71	22519
867.841	22573
867.972	22577
868.103	22630
868.233	22611
868.364	22626
868.495	22809
868.625	22767
868.756	22984
868.886	22767
869.017	22915
869.147	22896
869.278	22968
869.408	22824
869.539	22786
869.669	22881
869.799	23048
869.929	22820
870.06	23006
870.19	23090
870.32	23223
870.45	23193
870.58	23330
870.71	23395
870.84	23337
870.97	23288
871.1	23345
871.23	23387
871.36	23463
871.489	23353
871.619	23467
871.749	23433
871.879	23471
872.008	23471
872.138	23429
872.267	23463
872.397	23318
872.526	23349
872.656	23242
872.785	23178
872.915	23463
873.044	23615
873.173	23493
873.303	23547
873.432	23455
873.561	23482
873.69	23455
873.819	23490
873.948	23535
874.077	23474
874.206	23349
874.335	23452
874.464	23722
874.593	23623
874.722	23581
874.851	23665
874.979	23634
875.108	23642
875.237	23684
875.365	23665
875.494	23687
875.623	23767
875.751	23737
875.88	23771
876.008	23714
876.136	23897
876.265	23969
876.393	24136
876.521	24155
876.65	24098
876.778	24015
876.906	23954
877.034	23969
877.162	24091
877.29	23771
877.418	24022
877.546	23847
877.674	23908
877.802	24041
877.93	24011
878.058	23870
878.185	23908
878.313	23718
878.441	23969
878.568	23790
878.696	23897
878.824	24102
878.951	24091
879.079	24155
879.206	24224
879.333	24049
879.461	24057
879.588	24098
879.715	24125
879.842	24262
879.97	23885
880.097	23901
880.224	23809
880.351	23927
880.478	23901
880.605	23707
880.732	23687
880.859	23882
880.986	23863
881.112	23813
881.239	23699
881.366	23505
881.493	23474
881.619	23452
881.746	23395
881.872	23299
881.999	23330
882.125	23250
882.252	23360
882.378	23417
882.505	23436
882.631	23212
882.757	23025
882.883	23109
883.01	23132
883.136	22976
883.262	22869
883.388	22957
883.514	23048
883.64	22869
883.766	22877
883.892	22759
884.018	22835
884.143	22961
884.269	22987
884.395	22569
884.52	22687
884.646	22706
884.772	22645
884.897	22523
885.023	22740
885.148	22771
885.274	22729
885.399	22668
885.524	22615
885.65	22672
885.775	22599
885.9	22542
886.025	22645
886.15	22691
886.275	22607
886.4	22508
886.525	22698
886.65	22538
886.775	22523
886.9	22672
887.025	22801
887.149	22588
887.274	22497
887.399	22512
887.523	22382
887.648	22295
887.773	22405
887.897	22409
888.021	22371
888.146	22314
888.27	22405
888.395	22398
888.519	22367
888.643	22519
888.767	22417
888.891	22344
889.015	22257
889.139	22253
889.263	22196
889.387	22303
889.511	22440
889.635	22265
889.759	22253
889.883	22105
890.006	22219
890.13	22131
890.254	22150
890.377	21998
890.501	21918
890.624	21797
890.748	21968
890.871	21736
890.995	21667
891.118	21637
891.241	21629
891.364	21774
891.488	21800
891.611	21854
891.734	21781
891.857	21797
891.98	21709
892.103	21789
892.226	21698
892.349	21629
892.471	21389
892.594	21599
892.717	21705
892.839	21648
892.962	21663
893.085	21576
893.207	21660
893.33	21473
893.452	21526
893.575	21652
893.697	21538
893.819	21709
893.941	21770
894.064	21629
894.186	21526
894.308	21477
894.43	21561
894.552	21751
894.674	21667
894.796	21412
894.918	21549
895.04	21656
895.161	21557
895.283	21583
895.405	21538
895.526	21629
895.648	21523
895.769	21553
895.891	21656
896.012	21720
896.134	21610
896.255	21599
896.376	21481
896.498	21557
896.619	21759
896.74	21538
896.861	21648
896.982	21797
897.103	22036
897.224	21831
897.345	21880
897.466	21633
897.587	21835
897.708	21911
897.828	21739
897.949	21610
898.07	21644
898.19	21614
898.311	21827
898.431	21705
898.552	21823
898.672	21789
898.792	21755
898.913	21724
899.033	21633
899.153	21545
899.273	21564
899.393	21481
899.513	21595
899.633	21439
899.753	21568
899.873	21439
899.993	21591
900.113	21294
900.232	21420
900.352	21443
900.472	21252
900.591	21241
900.711	21233
900.83	21089
900.95	21313
901.069	21306
901.189	21131
901.308	20998
901.427	20864
901.546	20823
901.665	20883
901.784	20796
901.904	20731
902.023	20518
902.141	20290
902.26	20370
902.379	20442
902.498	20267
902.617	20210
902.735	20480
902.854	20233
902.973	20343
903.091	19982
903.21	20046
903.328	19993
903.446	19833
903.565	19715
903.683	19757
903.801	19597
903.919	19731
904.038	19616
904.156	19457
904.274	19537
904.392	19441
904.51	19460
904.627	19388
904.745	19518
904.863	19521
904.981	19327
905.098	19274
905.216	19202
905.334	19164
905.451	19240
905.569	19148
905.686	19263
905.803	19061
905.921	19023
906.038	19069
906.155	18958
906.272	18863
906.389	18871
906.506	18783
906.623	18620
906.74	18604
906.857	18563
906.974	18574
907.091	18741
907.208	18768
907.324	18673
907.441	18536
907.557	18433
907.674	18403
907.79	18342
907.907	18357
908.023	18422
908.139	18410
908.256	18410
908.372	18281
908.488	18262
908.604	18144
908.72	18060
908.836	18213
908.952	18182
909.068	18049
909.184	18254
909.3	18015
909.415	18068
909.531	18083
909.647	17893
909.762	17790
909.878	17950
909.993	17817
910.108	17745
910.224	17805
910.339	17779
910.454	17714
910.57	17596
910.685	17505
910.8	17897
910.915	17733
911.03	17535
911.145	17463
911.259	17315
911.374	17414
911.489	17322
911.604	17353
911.718	17094
911.833	17197
911.947	16995
912.062	16930
912.176	17140
912.291	17220
912.405	17075
912.519	17269
912.633	17204
912.748	17208
912.862	17033
912.976	16858
913.09	16828
913.204	16900
913.318	16968
913.431	17014
913.545	16915
913.659	17022
913.772	16793
913.886	16736
914	16596
914.113	16854
914.226	16885
914.34	16637
914.453	16607
914.566	16641
914.68	16573
914.793	16573
914.906	16295
915.019	16295
915.132	16169
915.245	16261
915.358	16333
915.47	16272
915.583	16196
915.696	16215
915.809	16352
915.921	16390
916.034	16185
916.146	16211
916.259	16135
916.371	16169
916.483	16154
916.595	16116
916.708	16112
916.82	16021
916.932	16002
917.044	16013
917.156	16048
917.268	15880
917.38	15918
917.491	15888
917.603	15838
917.715	15941
917.826	15922
917.938	15785
918.049	15682
918.161	15850
918.272	15831
918.384	15854
918.495	15774
918.606	15580
918.717	15507
918.828	15641
918.939	15694
919.05	15511
919.161	15648
919.272	15428
919.383	15416
919.494	15717
919.604	15797
919.715	15599
919.826	15458
919.936	15542
920.047	15644
920.157	15488
920.267	15663
920.378	15496
920.488	15504
920.598	15686
920.708	15861
920.818	15599
920.928	15564
921.038	15892
921.148	15778
921.258	15439
921.368	15393
921.477	15317
921.587	15237
921.697	15070
921.806	15355
921.916	15119
922.025	14910
922.134	14864
922.244	14853
922.353	14948
922.462	14849
922.571	14682
922.68	14598
922.789	14545
922.898	14526
923.007	14560
923.116	14545
923.224	14530
923.333	14495
923.442	14385
923.55	14362
923.659	14282
923.767	14393
923.876	14271
923.984	14347
924.092	14195
924.201	14301
924.309	14191
924.417	14183
924.525	14157
924.633	14180
924.741	14758
924.849	14058
924.956	14084
925.064	13940
925.172	13833
925.279	13982
925.387	13898
925.494	13917
925.602	13890
925.709	13879
925.816	13734
925.924	13765
926.031	13830
926.138	13890
926.245	13875
926.352	13677
926.459	13818
926.566	13868
926.673	13734
926.779	13616
926.886	13624
926.993	13502
927.099	13388
927.206	13343
927.312	13297
927.419	13411
927.525	13453
927.631	13426
927.737	13270
927.843	13270
927.95	13213
928.056	13225
928.162	13209
928.267	13346
928.373	13940
928.479	13278
928.585	12973
928.69	13240
928.796	13152
928.901	13107
929.007	12913
929.112	13061
929.218	13069
929.323	13031
929.428	13008
929.533	13072
929.638	12859
929.743	12916
929.848	12916
929.953	12886
930.058	12715
930.163	12604
930.267	12597
930.372	12730
930.477	12502
930.581	12810
930.685	12642
930.79	12486
930.894	12513
930.998	12433
931.103	12540
931.207	12228
931.311	12178
931.415	12049
931.519	11798
931.623	11878
