Data from test_V78500241_2243.txt Node
Date: Fri Mar 25 15:57:20 CST 2022
User: usil
Spectrometer: V785-0024
Trigger mode: 0
Integration Time (sec): 4.000000E-1
Scans to average: 1
Nonlinearity correction enabled: false
Boxcar width: 0
Storing dark spectrum: false
XAxis mode: Wavelengths
Number of Pixels in Spectrum: 1024
>>>>>Begin Spectral Data<<<<<
801.071	28588
801.214	28679
801.356	28432
801.499	28550
801.641	28352
801.783	28268
801.926	28409
802.068	28299
802.211	28341
802.353	28318
802.496	28025
802.638	28090
802.78	27934
802.923	27838
803.065	27880
803.208	27975
803.35	27983
803.492	28150
803.635	28185
803.777	28048
803.919	28268
804.061	28519
804.204	28109
804.346	28230
804.488	28112
804.63	28196
804.773	28200
804.915	28337
805.057	28363
805.199	28169
805.341	28333
805.483	28352
805.626	28451
805.768	28230
805.91	28325
806.052	28390
806.194	28204
806.336	28516
806.478	28375
806.62	28344
806.762	28481
806.904	28763
807.046	28900
807.188	28793
807.33	28736
807.472	28862
807.614	28702
807.756	28831
807.898	28755
808.04	28679
808.182	28660
808.324	28557
808.465	28713
808.607	28904
808.749	29124
808.891	29094
809.033	29212
809.174	29048
809.316	29105
809.458	28927
809.6	29075
809.741	29033
809.883	29113
810.025	29383
810.166	29318
810.308	29261
810.45	29227
810.591	29239
810.733	29102
810.875	29044
811.016	28999
811.158	28953
811.299	29269
811.441	29166
811.582	29147
811.724	29071
811.865	29041
812.007	28999
812.148	29105
812.29	29041
812.431	29162
812.573	29379
812.714	29646
812.855	29528
812.997	29695
813.138	29783
813.279	29699
813.421	29718
813.562	29356
813.703	29315
813.845	29220
813.986	28980
814.127	28999
814.268	28801
814.41	28771
814.551	28725
814.692	28843
814.833	28675
814.974	28706
815.115	28850
815.256	28748
815.397	28653
815.539	28557
815.68	28565
815.821	28478
815.962	28561
816.103	28626
816.244	28546
816.385	28295
816.526	28284
816.666	28116
816.807	28093
816.948	28143
817.089	28249
817.23	28124
817.371	28177
817.512	28090
817.653	28090
817.793	28013
817.934	28017
818.075	28036
818.216	28109
818.356	28010
818.497	27949
818.638	27800
818.778	27816
818.919	27899
819.06	27911
819.2	28002
819.341	28139
819.481	28090
819.622	28226
819.762	28489
819.903	28337
820.043	28272
820.184	28215
820.324	28261
820.465	28405
820.605	28150
820.746	28230
820.886	28166
821.026	28051
821.167	28242
821.307	28341
821.447	28070
821.588	28070
821.728	27895
821.868	27850
822.008	27542
822.149	27595
822.289	27458
822.429	27439
822.569	27332
822.709	27283
822.849	27272
822.99	27119
823.13	27089
823.27	27058
823.41	26921
823.55	26815
823.69	26830
823.83	26975
823.97	26758
824.11	26594
824.25	26708
824.389	26708
824.529	26872
824.669	26872
824.809	26838
824.949	26796
825.089	26906
825.228	26731
825.368	26545
825.508	26495
825.648	26587
825.787	26651
825.927	26689
826.067	26492
826.206	26617
826.346	26693
826.485	26670
826.625	26560
826.765	26777
826.904	26625
827.044	26343
827.183	26324
827.323	26370
827.462	26404
827.601	26278
827.741	26164
827.88	26484
828.02	26256
828.159	26320
828.298	26415
828.437	26408
828.577	26290
828.716	26358
828.855	26111
828.994	26100
829.134	25902
829.273	26191
829.412	26039
829.551	25932
829.69	26065
829.829	25955
829.968	25986
830.107	26035
830.246	26035
830.385	25944
830.524	25871
830.663	25932
830.802	25731
830.941	25552
831.08	25685
831.219	25590
831.357	25540
831.496	25784
831.635	25624
831.774	25487
831.913	25438
832.051	25468
832.19	25438
832.329	25346
832.467	25270
832.606	25419
832.744	25202
832.883	25266
833.022	25118
833.16	25297
833.299	25339
833.437	25320
833.576	25358
833.714	25381
833.852	25396
833.991	25388
834.129	25381
834.267	25339
834.406	25358
834.544	25415
834.682	25388
834.821	25255
834.959	25552
835.097	25327
835.235	25266
835.373	25213
835.511	25213
835.65	25171
835.788	25232
835.926	25103
836.064	25042
836.202	25031
836.34	25168
836.478	25285
836.615	25228
836.753	25084
836.891	25145
837.029	25137
837.167	25164
837.305	24996
837.443	24901
837.58	24977
837.718	24985
837.856	25095
837.993	24863
838.131	25027
838.269	24837
838.406	24897
838.544	24787
838.681	24681
838.819	24639
838.956	24330
839.094	24521
839.231	24517
839.369	24525
839.506	24738
839.643	24661
839.781	24551
839.918	24422
840.055	24391
840.193	24460
840.33	24262
840.467	24281
840.604	24338
840.742	24601
840.879	24125
841.016	24369
841.153	24140
841.29	24422
841.427	24334
841.564	24388
841.701	24300
841.838	24410
841.975	24228
842.112	24311
842.249	24224
842.385	24144
842.522	24395
842.659	24235
842.796	24178
842.933	24060
843.069	24148
843.206	24076
843.343	24064
843.479	24155
843.616	24091
843.752	23802
843.889	23893
844.025	23958
844.162	23783
844.298	23912
844.435	23912
844.571	23824
844.708	23916
844.844	24030
844.98	24095
845.117	23882
845.253	23920
845.389	23714
845.525	23794
845.661	23836
845.798	23630
845.934	23695
846.07	23524
846.206	23726
846.342	23737
846.478	23482
846.614	23341
846.75	23242
846.886	23364
847.022	23440
847.158	23307
847.294	23429
847.429	23353
847.565	23337
847.701	23684
847.837	23083
847.972	22930
848.108	23200
848.244	23235
848.379	22965
848.515	22892
848.65	22885
848.786	22862
848.921	23056
849.057	23037
849.192	23037
849.328	22949
849.463	22953
849.598	22946
849.734	22782
849.869	22793
850.004	22656
850.14	22710
850.275	22820
850.41	22656
850.545	22721
850.68	22588
850.815	22930
850.95	22706
851.085	22866
851.22	22797
851.355	22801
851.49	22752
851.625	22748
851.76	22771
851.895	22683
852.03	22717
852.165	22752
852.299	22797
852.434	22767
852.569	22816
852.703	22675
852.838	22828
852.973	22805
853.107	22839
853.242	22713
853.376	22519
853.511	22367
853.645	22554
853.78	22618
853.914	22519
854.048	22557
854.183	22417
854.317	22588
854.451	22580
854.585	22565
854.72	22573
854.854	22535
854.988	22580
855.122	22573
855.256	22443
855.39	22500
855.524	22592
855.658	22573
855.792	22599
855.926	22596
856.06	22554
856.194	22679
856.327	22554
856.461	22455
856.595	22497
856.729	22508
856.862	22592
856.996	22531
857.13	22603
857.263	22546
857.397	22618
857.53	22573
857.664	22470
857.797	22542
857.931	22618
858.064	22497
858.197	22702
858.331	22485
858.464	22481
858.597	22474
858.731	22455
858.864	22504
858.997	22542
859.13	22535
859.263	22489
859.396	22668
859.529	22546
859.662	22459
859.795	22459
859.928	22565
860.061	22721
860.194	22733
860.327	22519
860.46	22577
860.592	22653
860.725	22645
860.858	22786
860.99	22489
861.123	22462
861.256	22413
861.388	22588
861.521	23185
861.653	22379
861.786	22143
861.918	22459
862.05	22481
862.183	22508
862.315	22348
862.447	22481
862.58	22478
862.712	22280
862.844	22238
862.976	22314
863.108	22333
863.24	22687
863.372	22215
863.504	22318
863.636	22303
863.768	22322
863.9	22204
864.032	22196
864.164	22246
864.296	22341
864.428	22253
864.559	22280
864.691	22280
864.823	22341
864.954	22215
865.086	22101
865.217	22112
865.349	21956
865.48	22036
865.612	22112
865.743	22276
865.875	22158
866.006	22036
866.137	22166
866.269	22143
866.4	22013
866.531	22006
866.662	21983
866.793	22029
866.924	22044
867.055	22166
867.186	22021
867.317	21987
867.448	22040
867.579	21998
867.71	21861
867.841	21926
867.972	22063
868.103	22036
868.233	21972
868.364	22082
868.495	22116
868.625	22322
868.756	22462
868.886	22207
869.017	22280
869.147	22409
869.278	22394
869.408	22417
869.539	22299
869.669	22325
869.799	22268
869.929	22356
870.06	22489
870.19	22542
870.32	22550
870.45	22554
870.58	22592
870.71	22862
870.84	22778
870.97	22569
871.1	22634
871.23	22793
871.36	22881
871.489	22782
871.619	22889
871.749	22835
871.879	22965
872.008	22889
872.138	22873
872.267	22915
872.397	22733
872.526	22748
872.656	22706
872.785	22687
872.915	22927
873.044	22930
873.173	22763
873.303	22984
873.432	22999
873.561	22976
873.69	22873
873.819	22854
873.948	22995
874.077	23033
874.206	22885
874.335	22991
874.464	22984
874.593	23041
874.722	23185
874.851	23105
874.979	23090
875.108	23239
875.237	23075
875.365	22972
875.494	23143
875.623	23185
875.751	23117
875.88	23105
876.008	23334
876.136	23220
876.265	23573
876.393	23547
876.521	23581
876.65	23627
876.778	23497
876.906	23520
877.034	23421
877.162	23570
877.29	23353
877.418	23467
877.546	23455
877.674	23490
877.802	23482
877.93	23440
878.058	23318
878.185	23303
878.313	23353
878.441	23440
878.568	23315
878.696	23360
878.824	23509
878.951	23478
879.079	23623
879.206	23786
879.333	23619
879.461	23497
879.588	23661
879.715	23657
879.842	23699
879.97	23543
880.097	23239
880.224	23220
880.351	23429
880.478	23307
880.605	23197
880.732	23303
880.859	23528
880.986	23292
881.112	23258
881.239	23189
881.366	22991
881.493	22949
881.619	22790
881.746	22755
881.872	22839
881.999	22854
882.125	22850
882.252	22858
882.378	22873
882.505	22911
882.631	22653
882.757	22557
882.883	22588
883.01	22569
883.136	22325
883.262	22390
883.388	22440
883.514	22459
883.64	22649
883.766	22447
883.892	22249
884.018	22242
884.143	22428
884.269	22455
884.395	22207
884.52	22082
884.646	22124
884.772	22090
884.897	22112
885.023	22025
885.148	22257
885.274	22211
885.399	22249
885.524	22196
885.65	22131
885.775	22070
885.9	22074
886.025	22211
886.15	22166
886.275	22124
886.4	22021
886.525	22143
886.65	22044
886.775	21937
886.9	22310
887.025	22344
887.149	22044
887.274	22021
887.399	21937
887.523	21915
887.648	21854
887.773	21975
887.897	21975
888.021	21934
888.146	21812
888.27	22017
888.395	22105
888.519	21846
888.643	21956
888.767	21949
888.891	21838
889.015	21797
889.139	21572
889.263	21846
889.387	21686
889.511	21873
889.635	21804
889.759	21701
889.883	21572
890.006	21606
890.13	21880
890.254	21641
890.377	21690
890.501	21408
890.624	21310
890.748	21557
890.871	21351
890.995	21249
891.118	21180
891.241	21256
891.364	21279
891.488	21325
891.611	21173
891.734	21169
891.857	21233
891.98	21169
892.103	21211
892.226	21325
892.349	21047
892.471	20933
892.594	21116
892.717	21226
892.839	21093
892.962	21233
893.085	21123
893.207	21131
893.33	20994
893.452	21001
893.575	21138
893.697	21039
893.819	21294
893.941	21359
894.064	21332
894.186	21150
894.308	20952
894.43	21199
894.552	21188
894.674	21127
894.796	20986
894.918	21017
895.04	21062
895.161	21230
895.283	21138
895.405	21119
895.526	21116
895.648	21116
895.769	21154
895.891	21081
896.012	21249
896.134	21154
896.255	21062
896.376	21005
896.498	21123
896.619	21093
896.74	21104
896.861	21104
896.982	21386
897.103	21580
897.224	21279
897.345	21211
897.466	21252
897.587	21298
897.708	21450
897.828	21374
897.949	21119
898.07	21176
898.19	21241
898.311	21355
898.431	21260
898.552	21268
898.672	21313
898.792	21412
898.913	21207
899.033	21192
899.153	21279
899.273	20918
899.393	21081
899.513	20971
899.633	20982
899.753	21058
899.873	21005
899.993	21142
900.113	20986
900.232	21020
900.352	20975
900.472	20910
900.591	20864
900.711	20842
900.83	20765
900.95	20819
901.069	20895
901.189	20720
901.308	20457
901.427	20446
901.546	20286
901.665	20423
901.784	20298
901.904	20351
902.023	20195
902.141	19932
902.26	19921
902.379	19902
902.498	19917
902.617	19845
902.735	19860
902.854	19875
902.973	19731
903.091	19601
903.21	19616
903.328	19537
903.446	19403
903.565	19445
903.683	19282
903.801	19232
903.919	19278
904.038	19244
904.156	19156
904.274	19076
904.392	19122
904.51	19133
904.627	19171
904.745	19103
904.863	19095
904.981	18924
905.098	18711
905.216	18768
905.334	18764
905.451	18871
905.569	18688
905.686	18760
905.803	18726
905.921	18513
906.038	18544
906.155	18555
906.272	18456
906.389	18498
906.506	18357
906.623	18289
906.74	18148
906.857	18098
906.974	18277
907.091	18365
907.208	18342
907.324	18201
907.441	18106
907.557	18068
907.674	18011
907.79	17939
907.907	17954
908.023	18003
908.139	18011
908.256	17889
908.372	17805
908.488	17828
908.604	17767
908.72	17699
908.836	17684
908.952	17627
909.068	17764
909.184	17737
909.3	17737
909.415	17790
909.531	17649
909.647	17387
909.762	17353
909.878	17315
909.993	17337
910.108	17353
910.224	17315
910.339	17353
910.454	17216
910.57	17318
910.685	17181
910.8	17402
910.915	17311
911.03	17197
911.145	17037
911.259	16953
911.374	16930
911.489	16854
911.604	16805
911.718	16611
911.833	16710
911.947	16622
912.062	16531
912.176	16702
912.291	16809
912.405	16675
912.519	16831
912.633	16763
912.748	16771
912.862	16645
912.976	16599
913.09	16470
913.204	16497
913.318	16489
913.431	16516
913.545	16577
913.659	16489
913.772	16417
913.886	16329
914	16150
914.113	16360
914.226	16363
914.34	16356
914.453	16188
914.566	16341
914.68	16215
914.793	16135
914.906	15911
915.019	15945
915.132	15846
915.245	15880
915.358	15903
915.47	15941
915.583	15953
915.696	15899
915.809	16040
915.921	16044
916.034	15789
916.146	15770
916.259	15762
916.371	15861
916.483	15694
916.595	15698
916.708	15766
916.82	15698
916.932	15720
917.044	15595
917.156	15743
917.268	15458
917.38	15595
917.491	15538
917.603	15564
917.715	15576
917.826	15663
917.938	15504
918.049	15268
918.161	15428
918.272	15625
918.384	15587
918.495	15462
918.606	15351
918.717	15260
918.828	15222
918.939	15321
919.05	15233
919.161	15214
919.272	15070
919.383	15165
919.494	15348
919.604	15523
919.715	15214
919.826	15142
919.936	15245
920.047	15355
920.157	15218
920.267	15397
920.378	15344
920.488	15184
920.598	15443
920.708	15420
920.818	15344
920.928	15374
921.038	15462
921.148	15492
921.258	15176
921.368	15097
921.477	14967
921.587	14891
921.697	14804
921.806	14948
921.916	14781
922.025	14708
922.134	14568
922.244	14613
922.353	14587
922.462	14446
922.571	14389
922.68	14282
922.789	14225
922.898	14244
923.007	14237
923.116	14229
923.224	14142
923.333	14130
923.442	14142
923.55	14039
923.659	14145
923.767	14119
923.876	13951
923.984	14077
924.092	13902
924.201	13959
924.309	13955
924.417	13921
924.525	13860
924.633	13852
924.741	14686
924.849	13693
924.956	13791
925.064	13616
925.172	13575
925.279	13616
925.387	13559
925.494	13605
925.602	13788
925.709	13670
925.816	13521
925.924	13529
926.031	13628
926.138	13567
926.245	13651
926.352	13381
926.459	13559
926.566	13601
926.673	13384
926.779	13346
926.886	13350
926.993	13251
927.099	13225
927.206	13027
927.312	13190
927.419	13171
927.525	13194
927.631	13137
927.737	12970
927.843	13042
927.95	12901
928.056	12852
928.162	12954
928.267	12901
928.373	13616
928.479	12966
928.585	12688
928.69	12962
928.796	12939
928.901	12825
929.007	12707
929.112	12897
929.218	12787
929.323	12696
929.428	12627
929.533	12791
929.638	12582
929.743	12585
929.848	12612
929.953	12658
930.058	12494
930.163	12281
930.267	12319
930.372	12452
930.477	12254
930.581	12589
930.685	12338
930.79	12216
930.894	12186
930.998	12232
931.103	12247
931.207	11939
931.311	11870
931.415	11859
931.519	11646
931.623	11592
