Data from test_V78500241_2875.txt Node
Date: Fri Mar 25 16:01:43 CST 2022
User: usil
Spectrometer: V785-0024
Trigger mode: 0
Integration Time (sec): 4.000000E-1
Scans to average: 1
Nonlinearity correction enabled: false
Boxcar width: 0
Storing dark spectrum: false
XAxis mode: Wavelengths
Number of Pixels in Spectrum: 1024
>>>>>Begin Spectral Data<<<<<
801.071	28059
801.214	28173
801.356	27831
801.499	27785
801.641	27644
801.783	27682
801.926	27717
802.068	27679
802.211	27873
802.353	27690
802.496	27401
802.638	27462
802.78	27348
802.923	27370
803.065	27412
803.208	27279
803.35	27363
803.492	27534
803.635	27675
803.777	27458
803.919	27637
804.061	27918
804.204	27667
804.346	27450
804.488	27564
804.63	27530
804.773	27625
804.915	27686
805.057	27701
805.199	27542
805.341	27679
805.483	27686
805.626	27759
805.768	27694
805.91	27770
806.052	27903
806.194	27736
806.336	27827
806.478	27637
806.62	27671
806.762	28063
806.904	28067
807.046	28257
807.188	28211
807.33	28181
807.472	28265
807.614	28021
807.756	28017
807.898	27991
808.04	27937
808.182	27918
808.324	27911
808.465	28090
808.607	28261
808.749	28356
808.891	28500
809.033	28637
809.174	28500
809.316	28394
809.458	28455
809.6	28280
809.741	28542
809.883	28542
810.025	28664
810.166	28755
810.308	28596
810.45	28561
810.591	28580
810.733	28268
810.875	28246
811.016	28211
811.158	28211
811.299	28478
811.441	28694
811.582	28599
811.724	28409
811.865	28344
812.007	28367
812.148	28363
812.29	28318
812.431	28565
812.573	28717
812.714	28744
812.855	28987
812.997	28991
813.138	29235
813.279	29033
813.421	28744
813.562	28900
813.703	28683
813.845	28535
813.986	28306
814.127	28325
814.268	28109
814.41	28185
814.551	28067
814.692	27998
814.833	28055
814.974	28051
815.115	28029
815.256	27983
815.397	27861
815.539	27930
815.68	27854
815.821	27819
815.962	27816
816.103	27778
816.244	27747
816.385	27606
816.526	27599
816.666	27519
816.807	27408
816.948	27431
817.089	27344
817.23	27466
817.371	27431
817.512	27268
817.653	27332
817.793	27424
817.934	27287
818.075	27420
818.216	27321
818.356	27405
818.497	27192
818.638	27226
818.778	26971
818.919	27192
819.06	27188
819.2	27226
819.341	27416
819.481	27450
819.622	27580
819.762	27682
819.903	27759
820.043	27591
820.184	27549
820.324	27557
820.465	27576
820.605	27431
820.746	27561
820.886	27355
821.026	27378
821.167	27397
821.307	27477
821.447	27469
821.588	27260
821.728	27184
821.868	27108
822.008	26868
822.149	26887
822.289	26746
822.429	26651
822.569	26571
822.709	26556
822.849	26351
822.99	26324
823.13	26495
823.27	26271
823.41	26229
823.55	26221
823.69	26298
823.83	26214
823.97	26240
824.11	26062
824.25	25982
824.389	26020
824.529	26252
824.669	26062
824.809	26111
824.949	26100
825.089	26081
825.228	25936
825.368	25788
825.508	26008
825.648	25811
825.787	25921
825.927	26020
826.067	25826
826.206	25928
826.346	26027
826.485	25955
826.625	26084
826.765	25921
826.904	25936
827.044	25791
827.183	25757
827.323	25502
827.462	25719
827.601	25632
827.741	25483
827.88	25700
828.02	25483
828.159	25559
828.298	25537
828.437	25613
828.577	25578
828.716	25761
828.855	25495
828.994	25369
829.134	25365
829.273	25392
829.412	25335
829.551	25103
829.69	25213
829.829	25335
829.968	25487
830.107	25502
830.246	25373
830.385	25282
830.524	25236
830.663	25038
830.802	25008
830.941	25042
831.08	24920
831.219	25061
831.357	25072
831.496	25240
831.635	24829
831.774	24878
831.913	24764
832.051	24730
832.19	24688
832.329	24719
832.467	24551
832.606	24604
832.744	24582
832.883	24665
833.022	24574
833.16	24612
833.299	24642
833.437	24658
833.576	24627
833.714	24719
833.852	24608
833.991	24719
834.129	24707
834.267	24707
834.406	24692
834.544	24730
834.682	24650
834.821	24646
834.959	24821
835.097	24764
835.235	24741
835.373	24639
835.511	24673
835.65	24547
835.788	24612
835.926	24235
836.064	24266
836.202	24270
836.34	24441
836.478	24551
836.615	24403
836.753	24452
836.891	24616
837.029	24471
837.167	24384
837.305	24365
837.443	24182
837.58	24262
837.718	24357
837.856	24254
837.993	24251
838.131	24235
838.269	24216
838.406	24319
838.544	24015
838.681	23904
838.819	23828
838.956	23783
839.094	23779
839.231	23790
839.369	23946
839.506	24144
839.643	24102
839.781	23931
839.918	23718
840.055	23672
840.193	23726
840.33	23649
840.467	23714
840.604	23737
840.742	23984
840.879	23543
841.016	23630
841.153	23566
841.29	23741
841.427	23676
841.564	23828
841.701	23581
841.838	23623
841.975	23433
842.112	23714
842.249	23516
842.385	23452
842.522	23642
842.659	23531
842.796	23436
842.933	23322
843.069	23372
843.206	23425
843.343	23455
843.479	23379
843.616	23330
843.752	23200
843.889	23242
844.025	23425
844.162	23174
844.298	23212
844.435	23231
844.571	23189
844.708	23208
844.844	23254
844.98	23395
845.117	23467
845.253	23204
845.389	23037
845.525	23094
845.661	23052
845.798	22915
845.934	23124
846.07	23025
846.206	23006
846.342	23037
846.478	22953
846.614	22706
846.75	22599
846.886	22656
847.022	22759
847.158	22645
847.294	22675
847.429	22687
847.565	22561
847.701	22942
847.837	22459
847.972	22329
848.108	22489
848.244	22466
848.379	22242
848.515	22265
848.65	22223
848.786	22207
848.921	22299
849.057	22390
849.192	22333
849.328	22124
849.463	22299
849.598	22215
849.734	22150
849.869	22124
850.004	22097
850.14	22112
850.275	22135
850.41	22021
850.545	21941
850.68	22010
850.815	22154
850.95	22086
851.085	22162
851.22	22139
851.355	22006
851.49	21953
851.625	22055
851.76	21994
851.895	21873
852.03	21960
852.165	22093
852.299	22055
852.434	22139
852.569	22101
852.703	22036
852.838	22059
852.973	22067
853.107	22150
853.242	21934
853.376	21911
853.511	21759
853.645	21823
853.78	21937
853.914	21861
854.048	21835
854.183	21747
854.317	21876
854.451	22093
854.585	21838
854.72	21854
854.854	21941
854.988	21804
855.122	21800
855.256	21717
855.39	21819
855.524	22040
855.658	21888
855.792	21895
855.926	21838
856.06	21941
856.194	21911
856.327	21869
856.461	21766
856.595	21804
856.729	21694
856.862	22013
856.996	21915
857.13	21873
857.263	21922
857.397	21785
857.53	21880
857.664	21903
857.797	21945
857.931	21930
858.064	21934
858.197	21968
858.331	21838
858.464	21751
858.597	21759
858.731	21808
858.864	21842
858.997	21812
859.13	21846
859.263	21865
859.396	21934
859.529	21724
859.662	21846
859.795	21861
859.928	21854
860.061	22044
860.194	22074
860.327	21759
860.46	21968
860.592	21953
860.725	21918
860.858	22051
860.99	21983
861.123	21793
861.256	21865
861.388	21679
861.521	22592
861.653	21812
861.786	21561
861.918	21778
862.05	21762
862.183	21842
862.315	21686
862.447	21698
862.58	21739
862.712	21606
862.844	21492
862.976	21679
863.108	21572
863.24	22093
863.372	21515
863.504	21595
863.636	21568
863.768	21496
863.9	21591
864.032	21580
864.164	21447
864.296	21595
864.428	21542
864.559	21675
864.691	21583
864.823	21599
864.954	21507
865.086	21485
865.217	21401
865.349	21462
865.48	21466
865.612	21534
865.743	21572
865.875	21553
866.006	21405
866.137	21370
866.269	21370
866.4	21351
866.531	21370
866.662	21386
866.793	21348
866.924	21443
867.055	21374
867.186	21431
867.317	21370
867.448	21329
867.579	21313
867.71	21275
867.841	21313
867.972	21416
868.103	21351
868.233	21519
868.364	21378
868.495	21576
868.625	21561
868.756	21633
868.886	21603
869.017	21622
869.147	21667
869.278	21789
869.408	21682
869.539	21561
869.669	21641
869.799	21663
869.929	21732
870.06	21591
870.19	21922
870.32	21899
870.45	21899
870.58	21991
870.71	22093
870.84	22147
870.97	21983
871.1	22032
871.23	22116
871.36	22143
871.489	22059
871.619	22265
871.749	22249
871.879	22124
872.008	22337
872.138	22181
872.267	22261
872.397	22192
872.526	22029
872.656	22063
872.785	22048
872.915	22318
873.044	22284
873.173	22341
873.303	22268
873.432	22379
873.561	22314
873.69	22261
873.819	22169
873.948	22268
874.077	22185
874.206	22280
874.335	22306
874.464	22314
874.593	22455
874.722	22451
874.851	22447
874.979	22500
875.108	22382
875.237	22310
875.365	22375
875.494	22459
875.623	22580
875.751	22481
875.88	22470
876.008	22493
876.136	22573
876.265	22790
876.393	22953
876.521	22980
876.65	22911
876.778	22843
876.906	22938
877.034	22831
877.162	22812
877.29	22691
877.418	22774
877.546	22679
877.674	22843
877.802	22805
877.93	22805
878.058	22664
878.185	22740
878.313	22797
878.441	22839
878.568	22687
878.696	22698
878.824	22801
878.951	22927
879.079	22908
879.206	23124
879.333	22934
879.461	22771
879.588	22968
879.715	23044
879.842	23022
879.97	22858
880.097	22713
880.224	22542
880.351	22687
880.478	22542
880.605	22675
880.732	22580
880.859	22812
880.986	22550
881.112	22725
881.239	22637
881.366	22344
881.493	22265
881.619	22257
881.746	22276
881.872	22177
881.999	22166
882.125	22105
882.252	22207
882.378	22116
882.505	22257
882.631	22120
882.757	22029
882.883	22017
883.01	21880
883.136	21888
883.262	21747
883.388	21739
883.514	21842
883.64	22021
883.766	21888
883.892	21759
884.018	21717
884.143	21827
884.269	21956
884.395	21515
884.52	21523
884.646	21606
884.772	21435
884.897	21420
885.023	21485
885.148	21572
885.274	21717
885.399	21549
885.524	21473
885.65	21519
885.775	21473
885.9	21553
886.025	21583
886.15	21625
886.275	21542
886.4	21450
886.525	21557
886.65	21416
886.775	21431
886.9	21656
887.025	21739
887.149	21408
887.274	21294
887.399	21287
887.523	21310
887.648	21302
887.773	21161
887.897	21340
888.021	21359
888.146	21222
888.27	21382
888.395	21439
888.519	21211
888.643	21294
888.767	21416
888.891	21180
889.015	21001
889.139	21131
889.263	21017
889.387	21214
889.511	21237
889.635	21146
889.759	21047
889.883	21070
890.006	21154
890.13	21169
890.254	21066
890.377	20975
890.501	20872
890.624	20861
890.748	20849
890.871	20689
890.995	20651
891.118	20617
891.241	20682
891.364	20655
891.488	20689
891.611	20632
891.734	20701
891.857	20750
891.98	20598
892.103	20541
892.226	20606
892.349	20636
892.471	20442
892.594	20549
892.717	20583
892.839	20488
892.962	20533
893.085	20613
893.207	20602
893.33	20465
893.452	20503
893.575	20492
893.697	20480
893.819	20587
893.941	20762
894.064	20507
894.186	20465
894.308	20374
894.43	20609
894.552	20735
894.674	20705
894.796	20404
894.918	20469
895.04	20522
895.161	20636
895.283	20484
895.405	20541
895.526	20377
895.648	20492
895.769	20564
895.891	20431
896.012	20598
896.134	20590
896.255	20617
896.376	20476
896.498	20522
896.619	20549
896.74	20400
896.861	20423
896.982	20864
897.103	20815
897.224	20762
897.345	20864
897.466	20788
897.587	20568
897.708	20819
897.828	20883
897.949	20678
898.07	20579
898.19	20640
898.311	20853
898.431	20629
898.552	20731
898.672	20838
898.792	20800
898.913	20686
899.033	20590
899.153	20545
899.273	20404
899.393	20499
899.513	20590
899.633	20480
899.753	20537
899.873	20511
899.993	20473
900.113	20370
900.232	20564
900.352	20393
900.472	20290
900.591	20191
900.711	20210
900.83	20240
900.95	20400
901.069	20396
901.189	20168
901.308	19917
901.427	19868
901.546	19875
901.665	19986
901.784	19845
901.904	19826
902.023	19696
902.141	19499
902.26	19407
902.379	19533
902.498	19282
902.617	19225
902.735	19449
902.854	19301
902.973	19282
903.091	19053
903.21	19012
903.328	19057
903.446	18909
903.565	18844
903.683	18791
903.801	18654
903.919	18631
904.038	18574
904.156	18631
904.274	18612
904.392	18551
904.51	18616
904.627	18585
904.745	18566
904.863	18646
904.981	18403
905.098	18262
905.216	18254
905.334	18292
905.451	18342
905.569	18213
905.686	18232
905.803	18216
905.921	17996
906.038	18129
906.155	18030
906.272	18003
906.389	17897
906.506	17764
906.623	17726
906.74	17699
906.857	17703
906.974	17649
907.091	17878
907.208	17961
907.324	17764
907.441	17589
907.557	17482
907.674	17539
907.79	17360
907.907	17383
908.023	17581
908.139	17383
908.256	17410
908.372	17376
908.488	17376
908.604	17216
908.72	17121
908.836	17086
908.952	17178
909.068	17223
909.184	17322
909.3	17216
909.415	17220
909.531	17128
909.647	17006
909.762	16942
909.878	16908
909.993	16881
910.108	16946
910.224	16767
910.339	16873
910.454	16721
910.57	16702
910.685	16538
910.8	16892
910.915	16885
911.03	16748
911.145	16443
911.259	16367
911.374	16481
911.489	16379
911.604	16375
911.718	16268
911.833	16219
911.947	16181
912.062	16124
912.176	16276
912.291	16352
912.405	16284
912.519	16394
912.633	16432
912.748	16257
912.862	16154
912.976	16063
913.09	15937
913.204	15994
913.318	16090
913.431	16204
913.545	16131
913.659	16143
913.772	16029
913.886	15854
914	15732
914.113	15854
914.226	15922
914.34	15797
914.453	15778
914.566	15915
914.68	15770
914.793	15713
914.906	15450
915.019	15393
915.132	15389
915.245	15428
915.358	15469
915.47	15469
915.583	15447
915.696	15405
915.809	15572
915.921	15553
916.034	15313
916.146	15329
916.259	15351
916.371	15401
916.483	15412
916.595	15310
916.708	15287
916.82	15241
916.932	15214
917.044	15249
917.156	15287
917.268	15150
917.38	15116
917.491	15024
917.603	15081
917.715	15161
917.826	15104
917.938	14990
918.049	14960
918.161	15062
918.272	15176
918.384	15112
918.495	15089
918.606	14815
918.717	14796
918.828	14868
918.939	14765
919.05	14708
919.161	14819
919.272	14724
919.383	14644
919.494	14819
919.604	14982
919.715	14781
919.826	14636
919.936	14834
920.047	14807
920.157	14845
920.267	14925
920.378	14762
920.488	14727
920.598	14891
920.708	15127
920.818	14921
920.928	14842
921.038	14925
921.148	15024
921.258	14777
921.368	14731
921.477	14568
921.587	14469
921.697	14305
921.806	14518
921.916	14332
922.025	14206
922.134	14248
922.244	14088
922.353	14134
922.462	14073
922.571	14001
922.68	13871
922.789	13799
922.898	13765
923.007	13807
923.116	13887
923.224	13811
923.333	13704
923.442	13662
923.55	13639
923.659	13681
923.767	13571
923.876	13639
923.984	13616
924.092	13552
924.201	13548
924.309	13597
924.417	13582
924.525	13407
924.633	13502
924.741	14434
924.849	13308
924.956	13354
925.064	13213
925.172	13183
925.279	13236
925.387	13209
925.494	13217
925.602	13278
925.709	13255
925.816	13053
925.924	13149
926.031	13236
926.138	13107
926.245	13209
926.352	13050
926.459	13122
926.566	13285
926.673	12977
926.779	13019
926.886	12962
926.993	12730
927.099	12844
927.206	12688
927.312	12635
927.419	12837
927.525	12878
927.631	12658
927.737	12593
927.843	12559
927.95	12509
928.056	12528
928.162	12681
928.267	12604
928.373	13187
928.479	12650
928.585	12395
928.69	12528
928.796	12544
928.901	12486
929.007	12251
929.112	12532
929.218	12418
929.323	12308
929.428	12251
929.533	12388
929.638	12235
929.743	12251
929.848	12281
929.953	12216
930.058	12087
930.163	11912
930.267	12045
930.372	12140
930.477	11954
930.581	12144
930.685	11965
930.79	11897
930.894	11836
930.998	11866
931.103	11958
931.207	11558
931.311	11539
931.415	11433
931.519	11280
931.623	11181
