Data from test_V78500241_2273.txt Node
Date: Fri Mar 25 15:57:32 CST 2022
User: usil
Spectrometer: V785-0024
Trigger mode: 0
Integration Time (sec): 4.000000E-1
Scans to average: 1
Nonlinearity correction enabled: false
Boxcar width: 0
Storing dark spectrum: false
XAxis mode: Wavelengths
Number of Pixels in Spectrum: 1024
>>>>>Begin Spectral Data<<<<<
801.071	29250
801.214	29189
801.356	28946
801.499	28885
801.641	28774
801.783	28869
801.926	28854
802.068	28858
802.211	28820
802.353	28691
802.496	28611
802.638	28542
802.78	28470
802.923	28337
803.065	28440
803.208	28398
803.35	28489
803.492	28660
803.635	28831
803.777	28668
803.919	28782
804.061	28987
804.204	28885
804.346	28634
804.488	28653
804.63	28675
804.773	28573
804.915	28812
805.057	28790
805.199	28801
805.341	28862
805.483	28869
805.626	28824
805.768	28839
805.91	28957
806.052	29090
806.194	28763
806.336	29136
806.478	28904
806.62	28900
806.762	29098
806.904	29208
807.046	29638
807.188	29311
807.33	29372
807.472	29528
807.614	29265
807.756	29318
807.898	29235
808.04	29387
808.182	29140
808.324	29364
808.465	29307
808.607	29433
808.749	29638
808.891	29695
809.033	29832
809.174	29680
809.316	29528
809.458	29771
809.6	29512
809.741	29783
809.883	29824
810.025	29942
810.166	29939
810.308	29874
810.45	29824
810.591	29798
810.733	29676
810.875	29615
811.016	29657
811.158	29672
811.299	29805
811.441	29756
811.582	29790
811.724	29718
811.865	29668
812.007	29707
812.148	29695
812.29	29691
812.431	29840
812.573	30003
812.714	30136
812.855	30251
812.997	30254
813.138	30315
813.279	30338
813.421	30140
813.562	30171
813.703	30083
813.845	29897
813.986	29756
814.127	29474
814.268	29414
814.41	29402
814.551	29318
814.692	29509
814.833	29505
814.974	29551
815.115	29414
815.256	29204
815.397	29189
815.539	29189
815.68	29121
815.821	29185
815.962	29299
816.103	29143
816.244	29102
816.385	29227
816.526	28839
816.666	28965
816.807	28694
816.948	28839
817.089	28790
817.23	28816
817.371	28721
817.512	28702
817.653	28653
817.793	28645
817.934	28660
818.075	28691
818.216	28767
818.356	28634
818.497	28603
818.638	28413
818.778	28516
818.919	28474
819.06	28596
819.2	28717
819.341	28649
819.481	28733
819.622	28957
819.762	29132
819.903	29044
820.043	28995
820.184	28995
820.324	28923
820.465	28805
820.605	28828
820.746	28873
820.886	28653
821.026	28984
821.167	28805
821.307	28866
821.447	28702
821.588	28694
821.728	28573
821.868	28428
822.008	28306
822.149	28318
822.289	28246
822.429	28029
822.569	27869
822.709	27800
822.849	27644
822.99	27701
823.13	27717
823.27	27709
823.41	27443
823.55	27420
823.69	27641
823.83	27549
823.97	27557
824.11	27260
824.25	27397
824.389	27363
824.529	27473
824.669	27226
824.809	27329
824.949	27466
825.089	27469
825.228	27389
825.368	27264
825.508	27287
825.648	27336
825.787	27294
825.927	27393
826.067	27317
826.206	27203
826.346	27237
826.485	27127
826.625	27272
826.765	27420
826.904	27344
827.044	27093
827.183	27013
827.323	26910
827.462	27028
827.601	26929
827.741	26994
827.88	27020
828.02	26979
828.159	26944
828.298	26944
828.437	27028
828.577	26952
828.716	27085
828.855	26796
828.994	26689
829.134	26697
829.273	26674
829.412	26667
829.551	26503
829.69	26693
829.829	26735
829.968	26625
830.107	26826
830.246	26648
830.385	26579
830.524	26552
830.663	26374
830.802	26267
830.941	26191
831.08	26252
831.219	26453
831.357	26301
831.496	26275
831.635	26282
831.774	26157
831.913	26157
832.051	26065
832.19	26016
832.329	26054
832.467	25913
832.606	25871
832.744	25936
832.883	25970
833.022	25887
833.16	25955
833.299	25951
833.437	25898
833.576	26039
833.714	25986
833.852	26164
833.991	26046
834.129	26069
834.267	26191
834.406	26035
834.544	25974
834.682	26001
834.821	26103
834.959	26317
835.097	25974
835.235	26142
835.373	25986
835.511	25940
835.65	25921
835.788	25913
835.926	25571
836.064	25742
836.202	25700
836.34	25864
836.478	26024
836.615	25708
836.753	25811
836.891	25959
837.029	25696
837.167	25871
837.305	25670
837.443	25670
837.58	25499
837.718	25742
837.856	25693
837.993	25514
838.131	25723
838.269	25422
838.406	25674
838.544	25487
838.681	25320
838.819	25297
838.956	25103
839.094	25122
839.231	25198
839.369	25282
839.506	25594
839.643	25529
839.781	25164
839.918	24973
840.055	25000
840.193	25065
840.33	25088
840.467	25031
840.604	25129
840.742	25263
840.879	24992
841.016	24970
841.153	24894
841.29	24966
841.427	25080
841.564	25175
841.701	25080
841.838	24989
841.975	24810
842.112	24985
842.249	24890
842.385	24848
842.522	24958
842.659	24882
842.796	24840
842.933	24753
843.069	24654
843.206	24825
843.343	24829
843.479	24768
843.616	24802
843.752	24673
843.889	24627
844.025	24703
844.162	24544
844.298	24760
844.435	24429
844.571	24536
844.708	24589
844.844	24745
844.98	24665
845.117	24563
845.253	24441
845.389	24521
845.525	24471
845.661	24437
845.798	24243
845.934	24289
846.07	24296
846.206	24182
846.342	24315
846.478	24273
846.614	24083
846.75	23996
846.886	23977
847.022	24049
847.158	24125
847.294	23912
847.429	24064
847.565	23965
847.701	24190
847.837	23627
847.972	23714
848.108	23748
848.244	23802
848.379	23600
848.515	23600
848.65	23573
848.786	23585
848.921	23638
849.057	23619
849.192	23703
849.328	23687
849.463	23619
849.598	23429
849.734	23490
849.869	23448
850.004	23387
850.14	23562
850.275	23322
850.41	23155
850.545	23242
850.68	23299
850.815	23360
850.95	23220
851.085	23505
851.22	23509
851.355	23322
851.49	23273
851.625	23189
851.76	23364
851.895	23326
852.03	23448
852.165	23307
852.299	23463
852.434	23471
852.569	23414
852.703	23410
852.838	23360
852.973	23478
853.107	23448
853.242	23391
853.376	23193
853.511	23086
853.645	23124
853.78	23212
853.914	23121
854.048	23193
854.183	23105
854.317	23296
854.451	23303
854.585	23189
854.72	23254
854.854	23212
854.988	23124
855.122	23155
855.256	23162
855.39	22900
855.524	23151
855.658	23094
855.792	23140
855.926	23235
856.06	23037
856.194	23227
856.327	23204
856.461	23064
856.595	23071
856.729	23155
856.862	23311
856.996	23197
857.13	23181
857.263	23326
857.397	23155
857.53	23086
857.664	23193
857.797	23143
857.931	23227
858.064	23204
858.197	23162
858.331	23193
858.464	23098
858.597	23052
858.731	23102
858.864	23044
858.997	23178
859.13	23223
859.263	22949
859.396	23311
859.529	23056
859.662	23094
859.795	22987
859.928	23189
860.061	23387
860.194	23349
860.327	23227
860.46	23121
860.592	23265
860.725	23261
860.858	23174
860.99	23105
861.123	23052
861.256	23102
861.388	23136
861.521	23760
861.653	22938
861.786	22976
861.918	22866
862.05	23041
862.183	23018
862.315	23124
862.447	23166
862.58	23162
862.712	22866
862.844	22839
862.976	22984
863.108	22980
863.24	23322
863.372	22809
863.504	22881
863.636	22915
863.768	22839
863.9	22839
864.032	22809
864.164	22782
864.296	22934
864.428	22915
864.559	22984
864.691	22946
864.823	22866
864.954	22759
865.086	22816
865.217	22725
865.349	22618
865.48	22736
865.612	22713
865.743	22869
865.875	22820
866.006	22683
866.137	22656
866.269	22729
866.4	22729
866.531	22672
866.662	22596
866.793	22645
866.924	22683
867.055	22557
867.186	22554
867.317	22577
867.448	22588
867.579	22523
867.71	22538
867.841	22500
867.972	22599
868.103	22561
868.233	22599
868.364	22588
868.495	22820
868.625	22908
868.756	22942
868.886	22805
869.017	22984
869.147	23033
869.278	22786
869.408	22790
869.539	22889
869.669	22919
869.799	22805
869.929	23037
870.06	22809
870.19	23216
870.32	23166
870.45	23121
870.58	23250
870.71	23398
870.84	23288
870.97	23193
871.1	23265
871.23	23379
871.36	23490
871.489	23261
871.619	23387
871.749	23421
871.879	23421
872.008	23501
872.138	23531
872.267	23531
872.397	23463
872.526	23269
872.656	23471
872.785	23277
872.915	23585
873.044	23619
873.173	23528
873.303	23604
873.432	23547
873.561	23509
873.69	23444
873.819	23478
873.948	23425
874.077	23410
874.206	23433
874.335	23459
874.464	23577
874.593	23684
874.722	23604
874.851	23695
874.979	23649
875.108	23680
875.237	23558
875.365	23646
875.494	23691
875.623	23657
875.751	23585
875.88	23737
876.008	23798
876.136	23863
876.265	24102
876.393	24262
876.521	24049
876.65	24144
876.778	24106
876.906	23901
877.034	23958
877.162	24144
877.29	23885
877.418	24049
877.546	24030
877.674	23942
877.802	24087
877.93	24068
878.058	24026
878.185	23870
878.313	23961
878.441	23908
878.568	23931
878.696	23977
878.824	24045
878.951	24125
879.079	24110
879.206	24243
879.333	24209
879.461	24038
879.588	23992
879.715	24220
879.842	24281
879.97	24095
880.097	23756
880.224	23885
880.351	23893
880.478	23695
880.605	23767
880.732	23756
880.859	23988
880.986	23889
881.112	23737
881.239	23821
881.366	23539
881.493	23425
881.619	23273
881.746	23406
881.872	23364
881.999	23322
882.125	23258
882.252	23303
882.378	23345
882.505	23524
882.631	23159
882.757	23121
882.883	23147
883.01	22999
883.136	23102
883.262	22972
883.388	22850
883.514	23033
883.64	23006
883.766	23029
883.892	22858
884.018	22793
884.143	23014
884.269	23086
884.395	22820
884.52	22664
884.646	22626
884.772	22580
884.897	22634
885.023	22782
885.148	22736
885.274	22778
885.399	22847
885.524	22687
885.65	22687
885.775	22660
885.9	22698
886.025	22801
886.15	22679
886.275	22611
886.4	22599
886.525	22675
886.65	22546
886.775	22550
886.9	22694
887.025	22889
887.149	22618
887.274	22371
887.399	22474
887.523	22531
887.648	22261
887.773	22306
887.897	22500
888.021	22375
888.146	22390
888.27	22462
888.395	22504
888.519	22447
888.643	22478
888.767	22428
888.891	22485
889.015	22284
889.139	22291
889.263	22128
889.387	22341
889.511	22500
889.635	22318
889.759	22188
889.883	22185
890.006	22268
890.13	22276
890.254	22055
890.377	22181
890.501	22059
890.624	21911
890.748	21930
890.871	21747
890.995	21747
891.118	21709
891.241	21827
891.364	21732
891.488	21907
891.611	21823
891.734	21690
891.857	21778
891.98	21755
892.103	21705
892.226	21641
892.349	21701
892.471	21458
892.594	21679
892.717	21648
892.839	21656
892.962	21739
893.085	21850
893.207	21564
893.33	21564
893.452	21450
893.575	21633
893.697	21660
893.819	21831
893.941	21827
894.064	21854
894.186	21511
894.308	21534
894.43	21591
894.552	21739
894.674	21656
894.796	21606
894.918	21606
895.04	21507
895.161	21580
895.283	21671
895.405	21492
895.526	21534
895.648	21488
895.769	21629
895.891	21568
896.012	21656
896.134	21686
896.255	21610
896.376	21557
896.498	21641
896.619	21488
896.74	21614
896.861	21679
896.982	21827
897.103	22147
897.224	21926
897.345	21698
897.466	21800
897.587	21804
897.708	21960
897.828	21895
897.949	21770
898.07	21606
898.19	21622
898.311	21770
898.431	21660
898.552	21755
898.672	21838
898.792	21865
898.913	21846
899.033	21648
899.153	21519
899.273	21450
899.393	21625
899.513	21507
899.633	21477
899.753	21469
899.873	21428
899.993	21450
900.113	21466
900.232	21450
900.352	21245
900.472	21279
900.591	21363
900.711	21325
900.83	21207
900.95	21332
901.069	21367
901.189	21222
901.308	20887
901.427	20746
901.546	20887
901.665	20937
901.784	20807
901.904	20746
902.023	20587
902.141	20431
902.26	20480
902.379	20374
902.498	20301
902.617	20286
902.735	20290
902.854	20328
902.973	20309
903.091	20069
903.21	19982
903.328	19894
903.446	19803
903.565	19822
903.683	19830
903.801	19715
903.919	19723
904.038	19757
904.156	19506
904.274	19655
904.392	19571
904.51	19533
904.627	19518
904.745	19476
904.863	19510
904.981	19396
905.098	19206
905.216	19194
905.334	19171
905.451	19247
905.569	19171
905.686	19118
905.803	19110
905.921	18962
906.038	19065
906.155	19088
906.272	18932
906.389	18901
906.506	18730
906.623	18684
906.74	18684
906.857	18646
906.974	18604
907.091	18806
907.208	18776
907.324	18684
907.441	18661
907.557	18414
907.674	18475
907.79	18391
907.907	18403
908.023	18407
908.139	18391
908.256	18369
908.372	18296
908.488	18273
908.604	18197
908.72	18182
908.836	18277
908.952	18079
909.068	18114
909.184	18186
909.3	18102
909.415	18174
909.531	18057
909.647	17874
909.762	17821
909.878	17695
909.993	17672
910.108	17813
910.224	17863
910.339	17824
910.454	17733
910.57	17611
910.685	17520
910.8	17798
910.915	17737
911.03	17638
911.145	17391
911.259	17345
911.374	17444
911.489	17231
911.604	17200
911.718	17124
911.833	17113
911.947	16946
912.062	17025
912.176	17109
912.291	17140
912.405	17037
912.519	17269
912.633	17265
912.748	17121
912.862	17124
912.976	16938
913.09	16843
913.204	16869
913.318	16892
913.431	16995
913.545	17006
913.659	16976
913.772	16908
913.886	16717
914	16649
914.113	16854
914.226	16908
914.34	16805
914.453	16599
914.566	16683
914.68	16573
914.793	16531
914.906	16424
915.019	16337
915.132	16223
915.245	16226
915.358	16409
915.47	16265
915.583	16249
915.696	16314
915.809	16413
915.921	16348
916.034	16226
916.146	16124
916.259	16086
916.371	16238
916.483	16097
916.595	16093
916.708	16002
916.82	16143
916.932	16025
917.044	16093
917.156	16017
917.268	15915
917.38	15888
917.491	15915
917.603	15892
917.715	15994
917.826	15953
917.938	15781
918.049	15629
918.161	15846
918.272	16044
918.384	16082
918.495	15720
918.606	15625
918.717	15507
918.828	15603
918.939	15641
919.05	15469
919.161	15603
919.272	15401
919.383	15466
919.494	15660
919.604	15679
919.715	15629
919.826	15580
919.936	15530
920.047	15622
920.157	15568
920.267	15660
920.378	15561
920.488	15572
920.598	15713
920.708	15797
920.818	15724
920.928	15705
921.038	15827
921.148	15850
921.258	15492
921.368	15412
921.477	15264
921.587	15287
921.697	15214
921.806	15298
921.916	15074
922.025	14952
922.134	14986
922.244	14834
922.353	14952
922.462	14781
922.571	14735
922.68	14598
922.789	14469
922.898	14606
923.007	14514
923.116	14564
923.224	14556
923.333	14530
923.442	14442
923.55	14366
923.659	14366
923.767	14526
923.876	14248
923.984	14313
924.092	14187
924.201	14339
924.309	14240
924.417	14191
924.525	14168
924.633	14187
924.741	15116
924.849	13963
924.956	14103
925.064	13875
925.172	13780
925.279	13906
925.387	13917
925.494	13879
925.602	13963
925.709	13871
925.816	13727
925.924	13811
926.031	13925
926.138	13887
926.245	13772
926.352	13738
926.459	13791
926.566	13887
926.673	13791
926.779	13582
926.886	13548
926.993	13438
927.099	13392
927.206	13438
927.312	13324
927.419	13533
927.525	13449
927.631	13487
927.737	13346
927.843	13293
927.95	13137
928.056	13312
928.162	13187
928.267	13274
928.373	13788
928.479	13312
928.585	13072
928.69	13099
928.796	13221
928.901	13099
929.007	12947
929.112	13053
929.218	13038
929.323	12962
929.428	12996
929.533	13118
929.638	12806
929.743	12768
929.848	12856
929.953	12776
930.058	12787
930.163	12551
930.267	12696
930.372	12741
930.477	12528
930.581	12795
930.685	12547
930.79	12429
930.894	12540
930.998	12486
931.103	12608
931.207	12117
931.311	12155
931.415	12114
931.519	11866
931.623	11870
