Data from test_V78500241_2994.txt Node
Date: Fri Mar 25 16:02:32 CST 2022
User: usil
Spectrometer: V785-0024
Trigger mode: 0
Integration Time (sec): 4.000000E-1
Scans to average: 1
Nonlinearity correction enabled: false
Boxcar width: 0
Storing dark spectrum: false
XAxis mode: Wavelengths
Number of Pixels in Spectrum: 1024
>>>>>Begin Spectral Data<<<<<
801.071	28683
801.214	28763
801.356	28443
801.499	28348
801.641	28276
801.783	28390
801.926	28375
802.068	28291
802.211	28143
802.353	28249
802.496	28025
802.638	28013
802.78	27979
802.923	27922
803.065	27907
803.208	27934
803.35	28051
803.492	28219
803.635	28181
803.777	28200
803.919	28261
804.061	28637
804.204	28192
804.346	28196
804.488	28120
804.63	28341
804.773	28124
804.915	28318
805.057	28470
805.199	28265
805.341	28337
805.483	28394
805.626	28424
805.768	28284
805.91	28363
806.052	28481
806.194	28443
806.336	28462
806.478	28481
806.62	28455
806.762	28649
806.904	28748
807.046	28999
807.188	28831
807.33	28847
807.472	28885
807.614	28888
807.756	28839
807.898	28748
808.04	28637
808.182	28577
808.324	28729
808.465	28710
808.607	28934
808.749	29181
808.891	29193
809.033	29330
809.174	29140
809.316	29105
809.458	29151
809.6	29044
809.741	29303
809.883	29318
810.025	29417
810.166	29417
810.308	29372
810.45	29364
810.591	29280
810.733	29117
810.875	29022
811.016	29029
811.158	28991
811.299	29356
811.441	29455
811.582	29117
811.724	29151
811.865	29018
812.007	29083
812.148	29341
812.29	29273
812.431	29303
812.573	29417
812.714	29531
812.855	29630
812.997	29676
813.138	29855
813.279	29775
813.421	29573
813.562	29577
813.703	29547
813.845	29349
813.986	29064
814.127	28869
814.268	28862
814.41	28961
814.551	28824
814.692	28911
814.833	28820
814.974	28641
815.115	28881
815.256	28820
815.397	28668
815.539	28698
815.68	28733
815.821	28645
815.962	28592
816.103	28725
816.244	28527
816.385	28542
816.526	28352
816.666	28177
816.807	28242
816.948	28314
817.089	28287
817.23	28185
817.371	28177
817.512	28166
817.653	28120
817.793	28025
817.934	28124
818.075	28093
818.216	28185
818.356	28226
818.497	28021
818.638	28074
818.778	27979
818.919	27956
819.06	28082
819.2	28082
819.341	28181
819.481	28135
819.622	28253
819.762	28554
819.903	28386
820.043	28150
820.184	28268
820.324	28352
820.465	28474
820.605	28295
820.746	28173
820.886	28177
821.026	28276
821.167	28154
821.307	28314
821.447	28109
821.588	28112
821.728	27960
821.868	27888
822.008	27599
822.149	27641
822.289	27618
822.429	27424
822.569	27374
822.709	27420
822.849	27173
822.99	27291
823.13	27123
823.27	27176
823.41	27055
823.55	26998
823.69	27074
823.83	26929
823.97	27024
824.11	26796
824.25	26765
824.389	26811
824.529	26845
824.669	26754
824.809	26853
824.949	26971
825.089	26697
825.228	26872
825.368	26537
825.508	26632
825.648	26701
825.787	26609
825.927	26826
826.067	26697
826.206	26590
826.346	26708
826.485	26788
826.625	26670
826.765	26777
826.904	26804
827.044	26476
827.183	26396
827.323	26362
827.462	26408
827.601	26465
827.741	26613
827.88	26317
828.02	26263
828.159	26400
828.298	26366
828.437	26453
828.577	26366
828.716	26442
828.855	26309
828.994	26259
829.134	26157
829.273	26259
829.412	26122
829.551	26012
829.69	25940
829.829	26130
829.968	26191
830.107	26126
830.246	26149
830.385	26027
830.524	26031
830.663	25909
830.802	25879
830.941	25670
831.08	25811
831.219	25651
831.357	25761
831.496	26035
831.635	25742
831.774	25662
831.913	25552
832.051	25590
832.19	25540
832.329	25540
832.467	25445
832.606	25335
832.744	25206
832.883	25403
833.022	25403
833.16	25270
833.299	25384
833.437	25422
833.576	25499
833.714	25460
833.852	25514
833.991	25388
834.129	25556
834.267	25567
834.406	25426
834.544	25392
834.682	25400
834.821	25449
834.959	25628
835.097	25362
835.235	25289
835.373	25491
835.511	25510
835.65	25263
835.788	25358
835.926	25251
836.064	25107
836.202	25050
836.34	25259
836.478	25331
836.615	25076
836.753	25297
836.891	25362
837.029	25415
837.167	25278
837.305	24996
837.443	25137
837.58	25129
837.718	25099
837.856	25110
837.993	25099
838.131	25103
838.269	25171
838.406	24913
838.544	24920
838.681	24696
838.819	24745
838.956	24578
839.094	24505
839.231	24498
839.369	24757
839.506	24992
839.643	24817
839.781	24521
839.918	24559
840.055	24563
840.193	24414
840.33	24532
840.467	24525
840.604	24597
840.742	24757
840.879	24224
841.016	24350
841.153	24285
841.29	24536
841.427	24399
841.564	24471
841.701	24426
841.838	24391
841.975	24254
842.112	24399
842.249	24323
842.385	24224
842.522	24452
842.659	24292
842.796	24209
842.933	24266
843.069	24197
843.206	24083
843.343	24220
843.479	24254
843.616	24186
843.752	23969
843.889	23950
844.025	24110
844.162	23935
844.298	24110
844.435	24121
844.571	23908
844.708	23946
844.844	24251
844.98	24254
845.117	24144
845.253	23992
845.389	23874
845.525	23942
845.661	23809
845.798	23714
845.934	23718
846.07	23771
846.206	23733
846.342	23942
846.478	23649
846.614	23653
846.75	23429
846.886	23417
847.022	23524
847.158	23512
847.294	23448
847.429	23452
847.565	23440
847.701	23699
847.837	23280
847.972	23132
848.108	23277
848.244	23090
848.379	23075
848.515	23003
848.65	23064
848.786	23109
848.921	23105
849.057	23071
849.192	23113
849.328	23041
849.463	22957
849.598	22995
849.734	22961
849.869	22873
850.004	22759
850.14	22790
850.275	22881
850.41	22660
850.545	22793
850.68	22771
850.815	22839
850.95	22687
851.085	22949
851.22	22911
851.355	22721
851.49	22835
851.625	22672
851.76	22713
851.895	22725
852.03	22774
852.165	22763
852.299	22786
852.434	22927
852.569	22850
852.703	22805
852.838	22866
852.973	22900
853.107	22816
853.242	22759
853.376	22687
853.511	22421
853.645	22653
853.78	22748
853.914	22710
854.048	22584
854.183	22634
854.317	22622
854.451	22763
854.585	22637
854.72	22618
854.854	22740
854.988	22592
855.122	22702
855.256	22596
855.39	22656
855.524	22771
855.658	22649
855.792	22706
855.926	22759
856.06	22675
856.194	22641
856.327	22687
856.461	22702
856.595	22569
856.729	22596
856.862	22710
856.996	22637
857.13	22755
857.263	22672
857.397	22721
857.53	22535
857.664	22744
857.797	22603
857.931	22797
858.064	22626
858.197	22763
858.331	22675
858.464	22504
858.597	22516
858.731	22512
858.864	22565
858.997	22500
859.13	22527
859.263	22573
859.396	22805
859.529	22580
859.662	22630
859.795	22630
859.928	22622
860.061	22805
860.194	22824
860.327	22679
860.46	22603
860.592	22816
860.725	22816
860.858	22744
860.99	22710
861.123	22580
861.256	22504
861.388	22664
861.521	23398
861.653	22428
861.786	22443
861.918	22337
862.05	22504
862.183	22497
862.315	22672
862.447	22550
862.58	22523
862.712	22325
862.844	22276
862.976	22531
863.108	22386
863.24	22729
863.372	22299
863.504	22352
863.636	22489
863.768	22329
863.9	22386
864.032	22268
864.164	22242
864.296	22333
864.428	22356
864.559	22443
864.691	22413
864.823	22436
864.954	22272
865.086	22341
865.217	22306
865.349	22158
865.48	22223
865.612	22268
865.743	22363
865.875	22337
866.006	22105
866.137	22299
866.269	22128
866.4	22253
866.531	22154
866.662	22116
866.793	22185
866.924	22090
867.055	22105
867.186	22048
867.317	22131
867.448	22048
867.579	22162
867.71	22021
867.841	22150
867.972	22181
868.103	22196
868.233	22169
868.364	22112
868.495	22337
868.625	22265
868.756	22538
868.886	22386
869.017	22390
869.147	22436
869.278	22516
869.408	22367
869.539	22337
869.669	22341
869.799	22341
869.929	22443
870.06	22538
870.19	22710
870.32	22580
870.45	22778
870.58	22702
870.71	22904
870.84	22797
870.97	22748
871.1	22691
871.23	23003
871.36	22968
871.489	22911
871.619	22919
871.749	23033
871.879	23010
872.008	23124
872.138	23067
872.267	23105
872.397	22835
872.526	22774
872.656	22763
872.785	22755
872.915	22991
873.044	23109
873.173	23052
873.303	23105
873.432	23071
873.561	23143
873.69	23037
873.819	22946
873.948	23162
874.077	22946
874.206	23048
874.335	23037
874.464	23105
874.593	23136
874.722	23223
874.851	23162
874.979	23265
875.108	23223
875.237	23102
875.365	23041
875.494	23250
875.623	23307
875.751	23189
875.88	23246
876.008	23337
876.136	23326
876.265	23653
876.393	23733
876.521	23604
876.65	23619
876.778	23619
876.906	23634
877.034	23516
877.162	23589
877.29	23459
877.418	23554
877.546	23573
877.674	23535
877.802	23649
877.93	23482
878.058	23421
878.185	23448
878.313	23463
878.441	23638
878.568	23284
878.696	23528
878.824	23554
878.951	23558
879.079	23710
879.206	23779
879.333	23901
879.461	23608
879.588	23649
879.715	23805
879.842	23882
879.97	23691
880.097	23410
880.224	23372
880.351	23372
880.478	23341
880.605	23288
880.732	23414
880.859	23543
880.986	23334
881.112	23402
881.239	23231
881.366	23155
881.493	23056
881.619	22942
881.746	22938
881.872	22892
881.999	22900
882.125	22885
882.252	22915
882.378	22904
882.505	23075
882.631	22702
882.757	22694
882.883	22672
883.01	22535
883.136	22573
883.262	22557
883.388	22538
883.514	22645
883.64	22500
883.766	22523
883.892	22341
884.018	22337
884.143	22557
884.269	22554
884.395	22246
884.52	22219
884.646	22284
884.772	22192
884.897	22021
885.023	22375
885.148	22367
885.274	22398
885.399	22322
885.524	22325
885.65	22314
885.775	22192
885.9	22105
886.025	22249
886.15	22242
886.275	22219
886.4	22128
886.525	22169
886.65	22234
886.775	22070
886.9	22261
887.025	22394
887.149	22314
887.274	22090
887.399	22055
887.523	22010
887.648	22036
887.773	22032
887.897	22150
888.021	22063
888.146	21941
888.27	22063
888.395	22078
888.519	22010
888.643	22063
888.767	22032
888.891	21892
889.015	21835
889.139	21823
889.263	21808
889.387	21835
889.511	21998
889.635	21953
889.759	21679
889.883	21812
890.006	21759
890.13	21800
890.254	21747
890.377	21789
890.501	21477
890.624	21485
890.748	21553
890.871	21485
890.995	21298
891.118	21344
891.241	21313
891.364	21245
891.488	21428
891.611	21310
891.734	21351
891.857	21336
891.98	21439
892.103	21355
892.226	21401
892.349	21199
892.471	21135
892.594	21230
892.717	21218
892.839	21104
892.962	21195
893.085	21268
893.207	21317
893.33	21169
893.452	21123
893.575	21173
893.697	21241
893.819	21313
893.941	21401
894.064	21294
894.186	21169
894.308	21138
894.43	21260
894.552	21310
894.674	21355
894.796	21173
894.918	21241
895.04	21203
895.161	21214
895.283	21188
895.405	21104
895.526	21214
895.648	21226
895.769	21138
895.891	21374
896.012	21233
896.134	21275
896.255	21268
896.376	21119
896.498	21165
896.619	21180
896.74	21173
896.861	21176
896.982	21473
897.103	21591
897.224	21393
897.345	21443
897.466	21332
897.587	21374
897.708	21511
897.828	21374
897.949	21367
898.07	21230
898.19	21249
898.311	21378
898.431	21313
898.552	21473
898.672	21416
898.792	21473
898.913	21428
899.033	21325
899.153	21245
899.273	21089
899.393	20986
899.513	21157
899.633	21055
899.753	21222
899.873	21036
899.993	21093
900.113	20986
900.232	21123
900.352	21142
900.472	20990
900.591	20876
900.711	20914
900.83	20785
900.95	20918
901.069	20834
901.189	20807
901.308	20571
901.427	20495
901.546	20389
901.665	20461
901.784	20507
901.904	20404
902.023	20103
902.141	20062
902.26	20062
902.379	20027
902.498	19982
902.617	19955
902.735	20016
902.854	19967
902.973	19871
903.091	19609
903.21	19639
903.328	19635
903.446	19510
903.565	19445
903.683	19487
903.801	19384
903.919	19346
904.038	19270
904.156	19145
904.274	19365
904.392	19244
904.51	19053
904.627	19259
904.745	19137
904.863	19103
904.981	18913
905.098	18700
905.216	18837
905.334	18924
905.451	18985
905.569	18779
905.686	18981
905.803	18715
905.921	18544
906.038	18604
906.155	18665
906.272	18589
906.389	18642
906.506	18407
906.623	18445
906.74	18330
906.857	18353
906.974	18300
907.091	18437
907.208	18494
907.324	18388
907.441	18308
907.557	18015
907.674	18114
907.79	18045
907.907	17935
908.023	18076
908.139	18201
908.256	18034
908.372	17946
908.488	17988
908.604	17756
908.72	17817
908.836	17805
908.952	17623
909.068	17794
909.184	17897
909.3	17786
909.415	17813
909.531	17855
909.647	17486
909.762	17490
909.878	17471
909.993	17490
910.108	17353
910.224	17376
910.339	17440
910.454	17227
910.57	17170
910.685	17208
910.8	17433
910.915	17379
911.03	17200
911.145	17147
911.259	17071
911.374	17048
911.489	17022
911.604	16957
911.718	16923
911.833	16900
911.947	16698
912.062	16558
912.176	16812
912.291	16820
912.405	16759
912.519	16904
912.633	16991
912.748	16816
912.862	16786
912.976	16577
913.09	16550
913.204	16538
913.318	16626
913.431	16672
913.545	16542
913.659	16774
913.772	16527
913.886	16417
914	16356
914.113	16443
914.226	16512
914.34	16474
914.453	16238
914.566	16417
914.68	16257
914.793	16162
914.906	16086
915.019	16036
915.132	15797
915.245	16040
915.358	16048
915.47	15930
915.583	15850
915.696	16071
915.809	16090
915.921	16101
916.034	15869
916.146	15876
916.259	15869
916.371	15922
916.483	15934
916.595	15850
916.708	15827
916.82	15747
916.932	15766
917.044	15656
917.156	15705
917.268	15454
917.38	15679
917.491	15629
917.603	15667
917.715	15679
917.826	15705
917.938	15450
918.049	15397
918.161	15545
918.272	15671
918.384	15587
918.495	15473
918.606	15389
918.717	15340
918.828	15443
918.939	15306
919.05	15272
919.161	15260
919.272	15081
919.383	15188
919.494	15382
919.604	15488
919.715	15249
919.826	15241
919.936	15226
920.047	15386
920.157	15237
920.267	15538
920.378	15336
920.488	15241
920.598	15378
920.708	15538
920.818	15348
920.928	15401
921.038	15576
921.148	15500
921.258	15245
921.368	15176
921.477	14979
921.587	14967
921.697	14902
921.806	15017
921.916	14899
922.025	14807
922.134	14644
922.244	14613
922.353	14648
922.462	14465
922.571	14503
922.68	14381
922.789	14225
922.898	14294
923.007	14153
923.116	14328
923.224	14176
923.333	14301
923.442	14126
923.55	14031
923.659	14058
923.767	14130
923.876	14035
923.984	14084
924.092	13940
924.201	14046
924.309	13925
924.417	14050
924.525	13906
924.633	13955
924.741	14678
924.849	13719
924.956	13852
925.064	13700
925.172	13704
925.279	13719
925.387	13658
925.494	13696
925.602	13818
925.709	13624
925.816	13499
925.924	13529
926.031	13575
926.138	13525
926.245	13723
926.352	13521
926.459	13521
926.566	13620
926.673	13453
926.779	13415
926.886	13354
926.993	13263
927.099	13228
927.206	13225
927.312	13171
927.419	13202
927.525	13244
927.631	13183
927.737	13053
927.843	13057
927.95	12905
928.056	13107
928.162	13008
928.267	13103
928.373	13704
928.479	13076
928.585	12901
928.69	12932
928.796	12951
928.901	12829
929.007	12639
929.112	12867
929.218	12783
929.323	12757
929.428	12730
929.533	12833
929.638	12665
929.743	12730
929.848	12669
929.953	12612
930.058	12593
930.163	12319
930.267	12323
930.372	12509
930.477	12384
930.581	12601
930.685	12350
930.79	12281
930.894	12235
930.998	12205
931.103	12319
931.207	12068
931.311	11908
931.415	11817
931.519	11627
931.623	11665
