Data from test_V78500241_3664.txt Node
Date: Fri Mar 25 16:07:10 CST 2022
User: usil
Spectrometer: V785-0024
Trigger mode: 0
Integration Time (sec): 4.000000E-1
Scans to average: 1
Nonlinearity correction enabled: false
Boxcar width: 0
Storing dark spectrum: false
XAxis mode: Wavelengths
Number of Pixels in Spectrum: 1024
>>>>>Begin Spectral Data<<<<<
801.071	28569
801.214	28500
801.356	28303
801.499	28265
801.641	28322
801.783	28082
801.926	28166
802.068	28097
802.211	28048
802.353	27991
802.496	27766
802.638	27903
802.78	27492
802.923	27778
803.065	27709
803.208	27774
803.35	27781
803.492	27895
803.635	27987
803.777	27785
803.919	28173
804.061	28428
804.204	27991
804.346	28036
804.488	27899
804.63	27960
804.773	28048
804.915	27998
805.057	28158
805.199	28177
805.341	28173
805.483	28181
805.626	28074
805.768	28017
805.91	28188
806.052	28188
806.194	28010
806.336	28436
806.478	28166
806.62	28177
806.762	28280
806.904	28356
807.046	28675
807.188	28565
807.33	28653
807.472	28744
807.614	28542
807.756	28664
807.898	28432
808.04	28405
808.182	28489
808.324	28538
808.465	28577
808.607	28675
808.749	28942
808.891	28965
809.033	28980
809.174	28923
809.316	28923
809.458	28919
809.6	28812
809.741	28801
809.883	29052
810.025	29280
810.166	29181
810.308	29216
810.45	29014
810.591	29044
810.733	28763
810.875	28843
811.016	28771
811.158	28869
811.299	29018
811.441	29067
811.582	29022
811.724	28942
811.865	28961
812.007	28972
812.148	28968
812.29	28927
812.431	28919
812.573	29239
812.714	29311
812.855	29273
812.997	29528
813.138	29665
813.279	29524
813.421	29452
813.562	29292
813.703	29075
813.845	29250
813.986	28911
814.127	28706
814.268	28656
814.41	28706
814.551	28645
814.692	28656
814.833	28554
814.974	28443
815.115	28675
815.256	28577
815.397	28413
815.539	28470
815.68	28497
815.821	28310
815.962	28447
816.103	28409
816.244	28303
816.385	28112
816.526	28135
816.666	28055
816.807	27694
816.948	27937
817.089	28032
817.23	28002
817.371	27907
817.512	27911
817.653	27766
817.793	27865
817.934	27895
818.075	27846
818.216	27991
818.356	27812
818.497	27888
818.638	27576
818.778	27743
818.919	27641
819.06	27732
819.2	27785
819.341	27892
819.481	27907
819.622	28048
819.762	28306
819.903	28105
820.043	28090
820.184	28166
820.324	28154
820.465	28082
820.605	28109
820.746	27991
820.886	27812
821.026	28025
821.167	27823
821.307	28010
821.447	27968
821.588	27819
821.728	27747
821.868	27530
822.008	27252
822.149	27382
822.289	27348
822.429	27131
822.569	27020
822.709	27123
822.849	26849
822.99	26929
823.13	26902
823.27	26864
823.41	26712
823.55	26686
823.69	26769
823.83	26716
823.97	26724
824.11	26507
824.25	26564
824.389	26507
824.529	26629
824.669	26469
824.809	26636
824.949	26606
825.089	26644
825.228	26575
825.368	26419
825.508	26370
825.648	26377
825.787	26450
825.927	26495
826.067	26366
826.206	26290
826.346	26453
826.485	26530
826.625	26358
826.765	26495
826.904	26298
827.044	26320
827.183	26180
827.323	26119
827.462	26210
827.601	26180
827.741	26119
827.88	26210
828.02	26126
828.159	26164
828.298	26176
828.437	26244
828.577	26054
828.716	26191
828.855	26073
828.994	25883
829.134	25734
829.273	25936
829.412	25708
829.551	25757
829.69	25826
829.829	25970
829.968	25830
830.107	25875
830.246	25925
830.385	25791
830.524	25841
830.663	25681
830.802	25696
830.941	25468
831.08	25567
831.219	25533
831.357	25419
831.496	25662
831.635	25457
831.774	25343
831.913	25255
832.051	25308
832.19	25247
832.329	25259
832.467	25244
832.606	25202
832.744	25053
832.883	25057
833.022	25038
833.16	25080
833.299	24966
833.437	25156
833.576	25244
833.714	25137
833.852	25335
833.991	25168
834.129	25206
834.267	25362
834.406	25209
834.544	25240
834.682	25194
834.821	25103
834.959	25362
835.097	25034
835.235	25194
835.373	25126
835.511	25171
835.65	25080
835.788	25004
835.926	24833
836.064	24760
836.202	24859
836.34	25000
836.478	25118
836.615	24943
836.753	24977
836.891	25118
837.029	25061
837.167	24966
837.305	24897
837.443	24833
837.58	24776
837.718	24970
837.856	24951
837.993	24886
838.131	24814
838.269	24608
838.406	24593
838.544	24616
838.681	24486
838.819	24452
838.956	24273
839.094	24277
839.231	24479
839.369	24467
839.506	24597
839.643	24525
839.781	24247
839.918	24357
840.055	24277
840.193	24190
840.33	24308
840.467	24117
840.604	24144
840.742	24456
840.879	23980
841.016	24155
841.153	24038
841.29	24209
841.427	24178
841.564	24136
841.701	24171
841.838	24197
841.975	24129
842.112	23897
842.249	24053
842.385	23950
842.522	24152
842.659	23996
842.796	24060
842.933	23870
843.069	23961
843.206	23916
843.343	23977
843.479	24034
843.616	24022
843.752	23707
843.889	23680
844.025	23901
844.162	23630
844.298	23824
844.435	23760
844.571	23577
844.708	23794
844.844	23843
844.98	23912
845.117	23912
845.253	23710
845.389	23623
845.525	23486
845.661	23646
845.798	23497
845.934	23493
846.07	23535
846.206	23695
846.342	23703
846.478	23433
846.614	23242
846.75	23216
846.886	23155
847.022	23303
847.158	23277
847.294	23132
847.429	23216
847.565	23231
847.701	23448
847.837	22991
847.972	22721
848.108	22877
848.244	22946
848.379	22862
848.515	22854
848.65	22854
848.786	22816
848.921	22835
849.057	23003
849.192	22930
849.328	22938
849.463	22850
849.598	22698
849.734	22607
849.869	22675
850.004	22607
850.14	22694
850.275	22538
850.41	22542
850.545	22542
850.68	22569
850.815	22603
850.95	22592
851.085	22835
851.22	22634
851.355	22584
851.49	22512
851.625	22588
851.76	22596
851.895	22459
852.03	22413
852.165	22660
852.299	22603
852.434	22626
852.569	22618
852.703	22573
852.838	22577
852.973	22717
853.107	22702
853.242	22561
853.376	22428
853.511	22158
853.645	22413
853.78	22523
853.914	22409
854.048	22341
854.183	22432
854.317	22443
854.451	22447
854.585	22386
854.72	22344
854.854	22519
854.988	22299
855.122	22417
855.256	22219
855.39	22306
855.524	22341
855.658	22318
855.792	22398
855.926	22318
856.06	22428
856.194	22436
856.327	22371
856.461	22344
856.595	22280
856.729	22402
856.862	22474
856.996	22417
857.13	22516
857.263	22462
857.397	22382
857.53	22322
857.664	22402
857.797	22360
857.931	22493
858.064	22417
858.197	22421
858.331	22280
858.464	22303
858.597	22158
858.731	22280
858.864	22421
858.997	22424
859.13	22371
859.263	22379
859.396	22447
859.529	22447
859.662	22337
859.795	22261
859.928	22291
860.061	22421
860.194	22516
860.327	22284
860.46	22348
860.592	22531
860.725	22504
860.858	22447
860.99	22295
861.123	22268
861.256	22428
861.388	22287
861.521	23109
861.653	22318
861.786	22105
861.918	22188
862.05	22253
862.183	22409
862.315	22356
862.447	22306
862.58	22238
862.712	21994
862.844	22078
862.976	22150
863.108	22158
863.24	22550
863.372	22051
863.504	22078
863.636	22006
863.768	22051
863.9	22143
864.032	22032
864.164	22055
864.296	22112
864.428	22139
864.559	22249
864.691	22116
864.823	22124
864.954	22070
865.086	22101
865.217	22006
865.349	21869
865.48	21926
865.612	22063
865.743	22090
865.875	21987
866.006	21869
866.137	22013
866.269	21911
866.4	21960
866.531	21842
866.662	21937
866.793	21827
866.924	21941
867.055	21979
867.186	21972
867.317	21778
867.448	21842
867.579	21880
867.71	21812
867.841	21713
867.972	21854
868.103	22002
868.233	21869
868.364	21934
868.495	21876
868.625	22078
868.756	22253
868.886	21964
869.017	22268
869.147	22257
869.278	22242
869.408	22173
869.539	22040
869.669	22093
869.799	22204
869.929	22242
870.06	22230
870.19	22360
870.32	22371
870.45	22470
870.58	22512
870.71	22672
870.84	22603
870.97	22512
871.1	22451
871.23	22622
871.36	22744
871.489	22596
871.619	22713
871.749	22736
871.879	22835
872.008	22763
872.138	22675
872.267	22759
872.397	22588
872.526	22626
872.656	22531
872.785	22569
872.915	22812
873.044	22892
873.173	22755
873.303	22748
873.432	22835
873.561	22923
873.69	22790
873.819	22630
873.948	22744
874.077	22740
874.206	22793
874.335	22740
874.464	22892
874.593	23029
874.722	22930
874.851	22976
874.979	23029
875.108	22949
875.237	22946
875.365	22767
875.494	22866
875.623	23014
875.751	22957
875.88	22991
876.008	23166
876.136	23162
876.265	23330
876.393	23520
876.521	23566
876.65	23577
876.778	23402
876.906	23334
877.034	23322
877.162	23277
877.29	23246
877.418	23353
877.546	23379
877.674	23379
877.802	23402
877.93	23239
878.058	23223
878.185	23216
878.313	23246
878.441	23273
878.568	23060
878.696	23174
878.824	23440
878.951	23337
879.079	23490
879.206	23512
879.333	23448
879.461	23307
879.588	23448
879.715	23566
879.842	23665
879.97	23406
880.097	23231
880.224	23151
880.351	23189
880.478	23136
880.605	23086
880.732	23189
880.859	23330
880.986	23075
881.112	23258
881.239	23166
881.366	22877
881.493	22850
881.619	22691
881.746	22767
881.872	22607
881.999	22630
882.125	22672
882.252	22763
882.378	22675
882.505	22736
882.631	22481
882.757	22322
882.883	22386
883.01	22462
883.136	22253
883.262	22363
883.388	22162
883.514	22322
883.64	22417
883.766	22306
883.892	22059
884.018	22238
884.143	22382
884.269	22436
884.395	22173
884.52	22032
884.646	21941
884.772	21941
884.897	21911
885.023	21945
885.148	22219
885.274	22246
885.399	22101
885.524	22055
885.65	21956
885.775	22021
885.9	21911
886.025	22188
886.15	21991
886.275	21926
886.4	21812
886.525	21922
886.65	21911
886.775	22010
886.9	22109
887.025	22185
887.149	21994
887.274	21842
887.399	21861
887.523	21766
887.648	21766
887.773	21690
887.897	21899
888.021	21892
888.146	21629
888.27	21922
888.395	21835
888.519	21876
888.643	21812
888.767	21812
888.891	21709
889.015	21633
889.139	21614
889.263	21587
889.387	21724
889.511	21694
889.635	21701
889.759	21538
889.883	21515
890.006	21553
890.13	21580
890.254	21477
890.377	21473
890.501	21450
890.624	21245
890.748	21313
890.871	21192
890.995	21039
891.118	21116
891.241	21180
891.364	21089
891.488	21233
891.611	21154
891.734	21112
891.857	21131
891.98	21089
892.103	21211
892.226	21096
892.349	21062
892.471	20842
892.594	21013
892.717	21077
892.839	20986
892.962	21013
893.085	21009
893.207	21081
893.33	20891
893.452	20918
893.575	20994
893.697	20785
893.819	21173
893.941	21233
894.064	21142
894.186	20944
894.308	20902
894.43	21017
894.552	21058
894.674	21123
894.796	20944
894.918	20906
895.04	21020
895.161	21009
895.283	21093
895.405	20880
895.526	21005
895.648	21081
895.769	21058
895.891	21062
896.012	21157
896.134	20990
896.255	21058
896.376	20979
896.498	20967
896.619	21028
896.74	20975
896.861	20914
896.982	21336
897.103	21389
897.224	21294
897.345	21157
897.466	21207
897.587	21036
897.708	21256
897.828	21127
897.949	21077
898.07	21005
898.19	21154
898.311	21291
898.431	21096
898.552	21180
898.672	21169
898.792	21260
898.913	21291
899.033	21077
899.153	21093
899.273	20979
899.393	20994
899.513	20826
899.633	20864
899.753	20929
899.873	20724
899.993	20982
900.113	20796
900.232	20857
900.352	20853
900.472	20838
900.591	20727
900.711	20743
900.83	20682
900.95	20720
901.069	20727
901.189	20541
901.308	20396
901.427	20214
901.546	20229
901.665	20240
901.784	20282
901.904	20233
902.023	20111
902.141	19799
902.26	19917
902.379	19803
902.498	19746
902.617	19757
902.735	19746
902.854	19753
902.973	19601
903.091	19438
903.21	19533
903.328	19441
903.446	19297
903.565	19320
903.683	19206
903.801	19080
903.919	19209
904.038	19107
904.156	19042
904.274	19050
904.392	18856
904.51	18962
904.627	18916
904.745	18970
904.863	19050
904.981	18795
905.098	18635
905.216	18623
905.334	18661
905.451	18692
905.569	18532
905.686	18681
905.803	18597
905.921	18517
906.038	18585
906.155	18399
906.272	18395
906.389	18460
906.506	18178
906.623	18228
906.74	18190
906.857	18060
906.974	18171
907.091	18167
907.208	18285
907.324	18117
907.441	17939
907.557	17942
907.674	17866
907.79	17718
907.907	17863
908.023	18026
908.139	17824
908.256	17840
908.372	17729
908.488	17870
908.604	17577
908.72	17505
908.836	17672
908.952	17642
909.068	17672
909.184	17676
909.3	17581
909.415	17535
909.531	17566
909.647	17307
909.762	17307
909.878	17227
909.993	17315
910.108	17269
910.224	17242
910.339	17239
910.454	17277
910.57	17025
910.685	17025
910.8	17311
910.915	17159
911.03	17041
911.145	16885
911.259	16885
911.374	16915
911.489	16778
911.604	16843
911.718	16626
911.833	16634
911.947	16531
912.062	16504
912.176	16649
912.291	16561
912.405	16664
912.519	16812
912.633	16771
912.748	16603
912.862	16527
912.976	16478
913.09	16226
913.204	16348
913.318	16386
913.431	16626
913.545	16538
913.659	16413
913.772	16352
913.886	16280
914	16173
914.113	16291
914.226	16341
914.34	16344
914.453	15994
914.566	16200
914.68	16002
914.793	15998
914.906	15865
915.019	15755
915.132	15789
915.245	15762
915.358	15705
915.47	15759
915.583	15770
915.696	15842
915.809	15907
915.921	15930
916.034	15732
916.146	15576
916.259	15686
916.371	15751
916.483	15762
916.595	15584
916.708	15663
916.82	15591
916.932	15610
917.044	15629
917.156	15458
917.268	15458
917.38	15348
917.491	15412
917.603	15454
917.715	15473
917.826	15408
917.938	15370
918.049	15298
918.161	15359
918.272	15500
918.384	15389
918.495	15310
918.606	15230
918.717	15020
918.828	15291
918.939	15138
919.05	15032
919.161	15112
919.272	14891
919.383	14971
919.494	15138
919.604	15332
919.715	15055
919.826	14937
919.936	15123
920.047	15272
920.157	15066
920.267	15275
920.378	15108
920.488	14952
920.598	15313
920.708	15378
920.818	15252
920.928	15272
921.038	15534
921.148	15443
921.258	15123
921.368	14971
921.477	14815
921.587	14800
921.697	14773
921.806	14785
921.916	14765
922.025	14484
922.134	14530
922.244	14438
922.353	14587
922.462	14431
922.571	14233
922.68	14191
922.789	14084
922.898	14153
923.007	14054
923.116	14229
923.224	14096
923.333	14130
923.442	14073
923.55	13913
923.659	13970
923.767	14027
923.876	13936
923.984	13970
924.092	13830
924.201	13845
924.309	13928
924.417	13852
924.525	13662
924.633	13715
924.741	14727
924.849	13628
924.956	13742
925.064	13499
925.172	13422
925.279	13510
925.387	13537
925.494	13491
925.602	13582
925.709	13491
925.816	13373
925.924	13441
926.031	13480
926.138	13430
926.245	13502
926.352	13282
926.459	13521
926.566	13510
926.673	13411
926.779	13190
926.886	13255
926.993	13076
927.099	13061
927.206	13008
927.312	13019
927.419	13107
927.525	13057
927.631	13091
927.737	13008
927.843	12970
927.95	12795
928.056	12905
928.162	12878
928.267	12886
928.373	13636
928.479	12890
928.585	12768
928.69	12833
928.796	12935
928.901	12730
929.007	12662
929.112	12665
929.218	12722
929.323	12585
929.428	12673
929.533	12734
929.638	12563
929.743	12513
929.848	12665
929.953	12585
930.058	12372
930.163	12285
930.267	12346
930.372	12399
930.477	12292
930.581	12486
930.685	12353
930.79	12098
930.894	12155
930.998	12102
931.103	12270
931.207	11840
931.311	11817
931.415	11794
931.519	11600
931.623	11535
