Data from test_V78500241_3303.txt Node
Date: Fri Mar 25 16:04:40 CST 2022
User: usil
Spectrometer: V785-0024
Trigger mode: 0
Integration Time (sec): 4.000000E-1
Scans to average: 1
Nonlinearity correction enabled: false
Boxcar width: 0
Storing dark spectrum: false
XAxis mode: Wavelengths
Number of Pixels in Spectrum: 1024
>>>>>Begin Spectral Data<<<<<
801.071	28763
801.214	28717
801.356	28508
801.499	28500
801.641	28360
801.783	28299
801.926	28440
802.068	28390
802.211	28093
802.353	28367
802.496	28253
802.638	28070
802.78	28029
802.923	27861
803.065	27911
803.208	28059
803.35	28006
803.492	28150
803.635	28211
803.777	28158
803.919	28344
804.061	28706
804.204	28550
804.346	28207
804.488	28109
804.63	28280
804.773	28207
804.915	28276
805.057	28466
805.199	28158
805.341	28325
805.483	28405
805.626	28516
805.768	28379
805.91	28466
806.052	28466
806.194	28238
806.336	28474
806.478	28516
806.62	28531
806.762	28561
806.904	28717
807.046	28968
807.188	28831
807.33	28923
807.472	29048
807.614	28740
807.756	28847
807.898	28748
808.04	28725
808.182	28630
808.324	28786
808.465	28702
808.607	28850
808.749	29060
808.891	29299
809.033	29250
809.174	29098
809.316	28934
809.458	29231
809.6	29181
809.741	29273
809.883	29341
810.025	29254
810.166	29410
810.308	29364
810.45	29467
810.591	29292
810.733	29261
810.875	29166
811.016	29064
811.158	29181
811.299	29052
811.441	29334
811.582	29284
811.724	29071
811.865	29102
812.007	29143
812.148	29064
812.29	29227
812.431	29395
812.573	29425
812.714	29509
812.855	29714
812.997	29661
813.138	29821
813.279	29680
813.421	29714
813.562	29619
813.703	29482
813.845	29387
813.986	29105
814.127	28923
814.268	28953
814.41	28847
814.551	28888
814.692	28949
814.833	28809
814.974	28790
815.115	28782
815.256	28645
815.397	28687
815.539	28812
815.68	28656
815.821	28546
815.962	28713
816.103	28630
816.244	28508
816.385	28440
816.526	28367
816.666	28284
816.807	28169
816.948	28150
817.089	28375
817.23	27998
817.371	28173
817.512	28112
817.653	28200
817.793	28055
817.934	28150
818.075	28268
818.216	28143
818.356	28120
818.497	27926
818.638	27914
818.778	27918
818.919	28006
819.06	28029
819.2	28044
819.341	28143
819.481	28109
819.622	28306
819.762	28462
819.903	28489
820.043	28337
820.184	28257
820.324	28234
820.465	28432
820.605	28303
820.746	28230
820.886	28185
821.026	28196
821.167	28196
821.307	28398
821.447	28116
821.588	28090
821.728	28029
821.868	27759
822.008	27675
822.149	27686
822.289	27675
822.429	27431
822.569	27370
822.709	27142
822.849	27313
822.99	27279
823.13	27089
823.27	27195
823.41	26899
823.55	26883
823.69	27093
823.83	26838
823.97	26960
824.11	26868
824.25	26830
824.389	26667
824.529	26872
824.669	26872
824.809	26956
824.949	26925
825.089	26765
825.228	26933
825.368	26659
825.508	26758
825.648	26648
825.787	26663
825.927	26716
826.067	26632
826.206	26762
826.346	26727
826.485	26705
826.625	26682
826.765	26705
826.904	26792
827.044	26613
827.183	26499
827.323	26431
827.462	26511
827.601	26237
827.741	26404
827.88	26351
828.02	26271
828.159	26370
828.298	26431
828.437	26450
828.577	26347
828.716	26526
828.855	26343
828.994	26180
829.134	26145
829.273	26157
829.412	25989
829.551	26050
829.69	26126
829.829	26180
829.968	26206
830.107	26096
830.246	26092
830.385	25974
830.524	26073
830.663	25761
830.802	25837
830.941	25750
831.08	25868
831.219	25761
831.357	25750
831.496	25864
831.635	25795
831.774	25780
831.913	25544
832.051	25521
832.19	25384
832.329	25506
832.467	25331
832.606	25270
832.744	25206
832.883	25381
833.022	25365
833.16	25308
833.299	25320
833.437	25327
833.576	25400
833.714	25502
833.852	25597
833.991	25510
834.129	25506
834.267	25639
834.406	25521
834.544	25525
834.682	25350
834.821	25365
834.959	25670
835.097	25293
835.235	25514
835.373	25499
835.511	25285
835.65	25320
835.788	25384
835.926	25141
836.064	25042
836.202	25148
836.34	25213
836.478	25327
836.615	25274
836.753	25278
836.891	25384
837.029	25137
837.167	25057
837.305	25194
837.443	25099
837.58	25053
837.718	25088
837.856	25179
837.993	25034
838.131	25046
838.269	24928
838.406	25053
838.544	24829
838.681	24745
838.819	24661
838.956	24574
839.094	24536
839.231	24601
839.369	24753
839.506	24977
839.643	24878
839.781	24601
839.918	24593
840.055	24517
840.193	24532
840.33	24445
840.467	24509
840.604	24528
840.742	24703
840.879	24391
841.016	24388
841.153	24456
841.29	24551
841.427	24441
841.564	24365
841.701	24441
841.838	24456
841.975	24254
842.112	24228
842.249	24319
842.385	24292
842.522	24517
842.659	24353
842.796	24319
842.933	24194
843.069	24281
843.206	24026
843.343	24247
843.479	24228
843.616	24216
843.752	24011
843.889	24072
844.025	24220
844.162	23908
844.298	24007
844.435	23977
844.571	23984
844.708	23863
844.844	24079
844.98	24144
845.117	24068
845.253	23954
845.389	23889
845.525	23874
845.661	23904
845.798	23805
845.934	23783
846.07	23634
846.206	23851
846.342	23931
846.478	23665
846.614	23524
846.75	23425
846.886	23379
847.022	23425
847.158	23471
847.294	23570
847.429	23509
847.565	23410
847.701	23600
847.837	23197
847.972	23208
848.108	23277
848.244	23296
848.379	23128
848.515	23022
848.65	22976
848.786	23048
848.921	23060
849.057	23143
849.192	23132
849.328	23143
849.463	22995
849.598	22953
849.734	22843
849.869	22824
850.004	22847
850.14	22847
850.275	22748
850.41	22664
850.545	22828
850.68	22744
850.815	22698
850.95	22820
851.085	23048
851.22	22881
851.355	22835
851.49	22858
851.625	22729
851.76	22831
851.895	22881
852.03	22725
852.165	22744
852.299	22763
852.434	22934
852.569	22805
852.703	22759
852.838	22831
852.973	22869
853.107	22862
853.242	22618
853.376	22455
853.511	22424
853.645	22615
853.78	22702
853.914	22687
854.048	22489
854.183	22580
854.317	22687
854.451	22801
854.585	22577
854.72	22577
854.854	22744
854.988	22538
855.122	22580
855.256	22485
855.39	22550
855.524	22725
855.658	22649
855.792	22637
855.926	22710
856.06	22660
856.194	22599
856.327	22550
856.461	22535
856.595	22596
856.729	22512
856.862	22691
856.996	22721
857.13	22694
857.263	22691
857.397	22615
857.53	22599
857.664	22721
857.797	22710
857.931	22729
858.064	22607
858.197	22637
858.331	22546
858.464	22565
858.597	22504
858.731	22634
858.864	22550
858.997	22489
859.13	22516
859.263	22569
859.396	22702
859.529	22573
859.662	22527
859.795	22637
859.928	22660
860.061	22809
860.194	22862
860.327	22710
860.46	22679
860.592	22778
860.725	22771
860.858	22687
860.99	22702
861.123	22516
861.256	22557
861.388	22672
861.521	23337
861.653	22489
861.786	22333
861.918	22447
862.05	22573
862.183	22535
862.315	22630
862.447	22622
862.58	22516
862.712	22268
862.844	22200
862.976	22493
863.108	22287
863.24	22774
863.372	22207
863.504	22299
863.636	22371
863.768	22424
863.9	22200
864.032	22382
864.164	22295
864.296	22310
864.428	22512
864.559	22405
864.691	22405
864.823	22143
864.954	22310
865.086	22276
865.217	22265
865.349	22086
865.48	22192
865.612	22257
865.743	22287
865.875	22204
866.006	22211
866.137	22139
866.269	22181
866.4	22177
866.531	22090
866.662	22135
866.793	22135
866.924	22226
867.055	22128
867.186	22173
867.317	22029
867.448	22078
867.579	22116
867.71	21983
867.841	21945
867.972	22097
868.103	22169
868.233	22131
868.364	22124
868.495	22238
868.625	22390
868.756	22436
868.886	22253
869.017	22379
869.147	22443
869.278	22455
869.408	22360
869.539	22451
869.669	22405
869.799	22398
869.929	22516
870.06	22447
870.19	22656
870.32	22649
870.45	22649
870.58	22850
870.71	22850
870.84	22778
870.97	22752
871.1	22717
871.23	22858
871.36	22915
871.489	22896
871.619	22995
871.749	22908
871.879	22972
872.008	23071
872.138	22965
872.267	23006
872.397	22953
872.526	22797
872.656	22759
872.785	22717
872.915	23006
873.044	22949
873.173	22987
873.303	22923
873.432	22889
873.561	23048
873.69	23067
873.819	22995
873.948	23029
874.077	22942
874.206	23006
874.335	23018
874.464	23136
874.593	23227
874.722	23166
874.851	23208
874.979	23189
875.108	23239
875.237	23223
875.365	22919
875.494	23250
875.623	23261
875.751	23132
875.88	23360
876.008	23318
876.136	23265
876.265	23535
876.393	23813
876.521	23649
876.65	23638
876.778	23661
876.906	23535
877.034	23509
877.162	23581
877.29	23471
877.418	23684
877.546	23547
877.674	23474
877.802	23554
877.93	23433
878.058	23463
878.185	23383
878.313	23490
878.441	23543
878.568	23452
878.696	23512
878.824	23562
878.951	23581
879.079	23627
879.206	23840
879.333	23611
879.461	23528
879.588	23646
879.715	23608
879.842	23722
879.97	23619
880.097	23368
880.224	23345
880.351	23406
880.478	23406
880.605	23292
880.732	23372
880.859	23547
880.986	23395
881.112	23444
881.239	23162
881.366	22995
881.493	22987
881.619	23052
881.746	22824
881.872	22953
881.999	22900
882.125	22763
882.252	22961
882.378	22900
882.505	22908
882.631	22649
882.757	22656
882.883	22634
883.01	22573
883.136	22615
883.262	22466
883.388	22474
883.514	22710
883.64	22694
883.766	22504
883.892	22451
884.018	22390
884.143	22424
884.269	22569
884.395	22166
884.52	22242
884.646	22238
884.772	22226
884.897	22223
885.023	22348
885.148	22318
885.274	22379
885.399	22363
885.524	22352
885.65	22101
885.775	22287
885.9	22219
886.025	22344
886.15	22226
886.275	22181
886.4	22086
886.525	22154
886.65	22162
886.775	22143
886.9	22306
887.025	22447
887.149	22223
887.274	22032
887.399	21994
887.523	21975
887.648	21922
887.773	21972
887.897	21998
888.021	21998
888.146	21926
888.27	22105
888.395	22036
888.519	21964
888.643	21953
888.767	22048
888.891	21831
889.015	21739
889.139	21781
889.263	21698
889.387	21808
889.511	21937
889.635	21876
889.759	21675
889.883	21713
890.006	21701
890.13	21838
890.254	21660
890.377	21614
890.501	21466
890.624	21412
890.748	21595
890.871	21496
890.995	21321
891.118	21241
891.241	21340
891.364	21302
891.488	21458
891.611	21294
891.734	21336
891.857	21389
891.98	21374
892.103	21321
892.226	21340
892.349	21260
892.471	21214
892.594	21119
892.717	21241
892.839	21230
892.962	21192
893.085	21207
893.207	21207
893.33	21108
893.452	21104
893.575	21218
893.697	21138
893.819	21306
893.941	21317
894.064	21306
894.186	21165
894.308	21062
894.43	21233
894.552	21317
894.674	21321
894.796	21032
894.918	21207
895.04	21104
895.161	21218
895.283	21272
895.405	21100
895.526	21157
895.648	21184
895.769	21188
895.891	21237
896.012	21317
896.134	21161
896.255	21188
896.376	21165
896.498	21077
896.619	21237
896.74	21108
896.861	21313
896.982	21428
897.103	21564
897.224	21450
897.345	21264
897.466	21272
897.587	21420
897.708	21389
897.828	21420
897.949	21321
898.07	21355
898.19	21249
898.311	21462
898.431	21420
898.552	21389
898.672	21492
898.792	21511
898.913	21340
899.033	21313
899.153	21070
899.273	21005
899.393	21230
899.513	21169
899.633	21055
899.753	21093
899.873	21047
899.993	21112
900.113	21135
900.232	21066
900.352	21020
900.472	20937
900.591	20971
900.711	20914
900.83	20777
900.95	21017
901.069	20902
901.189	20712
901.308	20568
901.427	20427
901.546	20438
901.665	20461
901.784	20336
901.904	20237
902.023	20248
902.141	20031
902.26	20031
902.379	19921
902.498	19936
902.617	19940
902.735	20031
902.854	19849
902.973	19837
903.091	19616
903.21	19712
903.328	19712
903.446	19556
903.565	19415
903.683	19369
903.801	19320
903.919	19308
904.038	19316
904.156	19091
904.274	19270
904.392	19228
904.51	19099
904.627	19103
904.745	19175
904.863	19213
904.981	19042
905.098	18833
905.216	18882
905.334	18886
905.451	18768
905.569	18802
905.686	18688
905.803	18741
905.921	18528
906.038	18776
906.155	18601
906.272	18479
906.389	18445
906.506	18380
906.623	18311
906.74	18369
906.857	18167
906.974	18251
907.091	18361
907.208	18403
907.324	18281
907.441	18315
907.557	18136
907.674	18106
907.79	18026
907.907	17946
908.023	18034
908.139	18072
908.256	17954
908.372	17878
908.488	17821
908.604	17790
908.72	17741
908.836	17710
908.952	17805
909.068	17684
909.184	17927
909.3	17699
909.415	17775
909.531	17661
909.647	17512
909.762	17406
909.878	17349
909.993	17532
910.108	17414
910.224	17318
910.339	17395
910.454	17318
910.57	17330
910.685	17239
910.8	17512
910.915	17337
911.03	17292
911.145	17083
911.259	17067
911.374	17105
911.489	16873
911.604	17022
911.718	16835
911.833	16828
911.947	16634
912.062	16687
912.176	16778
912.291	16759
912.405	16713
912.519	17041
912.633	16892
912.748	16843
912.862	16694
912.976	16649
913.09	16462
913.204	16573
913.318	16653
913.431	16683
913.545	16558
913.659	16656
913.772	16512
913.886	16318
914	16379
914.113	16470
914.226	16554
914.34	16500
914.453	16257
914.566	16394
914.68	16268
914.793	16105
914.906	15987
915.019	15945
915.132	15922
915.245	15991
915.358	15998
915.47	15964
915.583	15850
915.696	15979
915.809	16040
915.921	16067
916.034	15937
916.146	15850
916.259	15903
916.371	15880
916.483	15899
916.595	15682
916.708	15797
916.82	15808
916.932	15705
917.044	15812
917.156	15637
917.268	15660
917.38	15618
917.491	15644
917.603	15663
917.715	15728
917.826	15701
917.938	15416
918.049	15526
918.161	15549
918.272	15572
918.384	15625
918.495	15568
918.606	15412
918.717	15306
918.828	15355
918.939	15397
919.05	15283
919.161	15279
919.272	15104
919.383	15203
919.494	15340
919.604	15458
919.715	15351
919.826	15207
919.936	15116
920.047	15332
920.157	15203
920.267	15435
920.378	15245
920.488	15268
920.598	15466
920.708	15519
920.818	15374
920.928	15408
921.038	15545
921.148	15549
921.258	15245
921.368	15104
921.477	14933
921.587	14967
921.697	14883
921.806	15017
921.916	14864
922.025	14686
922.134	14587
922.244	14476
922.353	14720
922.462	14492
922.571	14499
922.68	14301
922.789	14271
922.898	14187
923.007	14142
923.116	14210
923.224	14206
923.333	14176
923.442	14081
923.55	14043
923.659	14142
923.767	14092
923.876	14138
923.984	14065
924.092	13982
924.201	13989
924.309	13993
924.417	13974
924.525	13917
924.633	13921
924.741	14792
924.849	13696
924.956	13894
925.064	13700
925.172	13620
925.279	13632
925.387	13765
925.494	13689
925.602	13689
925.709	13639
925.816	13445
925.924	13525
926.031	13636
926.138	13597
926.245	13544
926.352	13491
926.459	13590
926.566	13639
926.673	13525
926.779	13365
926.886	13392
926.993	13228
927.099	13202
927.206	13114
927.312	13034
927.419	13190
927.525	13126
927.631	13129
927.737	13088
927.843	13012
927.95	12920
928.056	12894
928.162	12928
928.267	13046
928.373	13590
928.479	13046
928.585	12825
928.69	12913
928.796	12943
928.901	12817
929.007	12627
929.112	12802
929.218	12719
929.323	12642
929.428	12760
929.533	12741
929.638	12536
929.743	12734
929.848	12662
929.953	12669
930.058	12551
930.163	12399
930.267	12380
930.372	12464
930.477	12273
930.581	12494
930.685	12334
930.79	12190
930.894	12254
930.998	12197
931.103	12243
931.207	11965
931.311	11874
931.415	11767
931.519	11592
931.623	11619
