Data from test_V78500241_178.txt Node
Date: Fri Mar 25 15:43:02 CST 2022
User: usil
Spectrometer: V785-0024
Trigger mode: 0
Integration Time (sec): 4.000000E-1
Scans to average: 1
Nonlinearity correction enabled: false
Boxcar width: 0
Storing dark spectrum: false
XAxis mode: Wavelengths
Number of Pixels in Spectrum: 1024
>>>>>Begin Spectral Data<<<<<
801.071	29326
801.214	29372
801.356	29102
801.499	28957
801.641	29006
801.783	28900
801.926	28980
802.068	28934
802.211	28839
802.353	28843
802.496	28626
802.638	28516
802.78	28497
802.923	28455
803.065	28382
803.208	28447
803.35	28554
803.492	28660
803.635	28721
803.777	28580
803.919	28668
804.061	28767
804.204	28660
804.346	28451
804.488	28519
804.63	28523
804.773	28637
804.915	28535
805.057	28660
805.199	28596
805.341	28672
805.483	28786
805.626	28733
805.768	28733
805.91	28793
806.052	28809
806.194	28763
806.336	28877
806.478	28668
806.62	28683
806.762	28888
806.904	28965
807.046	29185
807.188	29086
807.33	29216
807.472	29090
807.614	28946
807.756	29067
807.898	29018
808.04	28873
808.182	29041
808.324	28934
808.465	28984
808.607	29098
808.749	29140
808.891	29406
809.033	29482
809.174	29337
809.316	29212
809.458	29212
809.6	29318
809.741	29406
809.883	29474
810.025	29570
810.166	29539
810.308	29608
810.45	29440
810.591	29349
810.733	29235
810.875	29402
811.016	29181
811.158	29227
811.299	29421
811.441	29410
811.582	29505
811.724	29406
811.865	29292
812.007	29284
812.148	29216
812.29	29242
812.431	29372
812.573	29707
812.714	29657
812.855	29718
812.997	29760
813.138	29821
813.279	29805
813.421	29828
813.562	29608
813.703	29509
813.845	29455
813.986	29337
814.127	29003
814.268	28892
814.41	28927
814.551	28759
814.692	28976
814.833	28664
814.974	28801
815.115	28858
815.256	28698
815.397	28588
815.539	28713
815.68	28512
815.821	28546
815.962	28603
816.103	28599
816.244	28386
816.385	28363
816.526	28234
816.666	28158
816.807	27937
816.948	28086
817.089	28074
817.23	28032
817.371	27972
817.512	27918
817.653	27914
817.793	27937
817.934	27926
818.075	27998
818.216	28032
818.356	27918
818.497	27819
818.638	27698
818.778	27766
818.919	27861
819.06	27808
819.2	27934
819.341	27975
819.481	27873
819.622	28139
819.762	28280
819.903	28230
820.043	28105
820.184	27979
820.324	28055
820.465	27972
820.605	28029
820.746	27880
820.886	28036
821.026	28025
821.167	27888
821.307	27994
821.447	27994
821.588	27690
821.728	27739
821.868	27473
822.008	27488
822.149	27378
822.289	27268
822.429	26982
822.569	27093
822.709	27039
822.849	26902
822.99	26743
823.13	26651
823.27	26834
823.41	26613
823.55	26438
823.69	26716
823.83	26632
823.97	26689
824.11	26400
824.25	26282
824.389	26427
824.529	26511
824.669	26526
824.809	26621
824.949	26450
825.089	26495
825.228	26431
825.368	26339
825.508	26218
825.648	26313
825.787	26145
825.927	26305
826.067	26256
826.206	26374
826.346	26298
826.485	26328
826.625	26180
826.765	26336
826.904	26488
827.044	25909
827.183	26046
827.323	25947
827.462	25993
827.601	25974
827.741	25868
827.88	25947
828.02	25830
828.159	25845
828.298	25906
828.437	25860
828.577	25830
828.716	25887
828.855	25845
828.994	25772
829.134	25624
829.273	25556
829.412	25506
829.551	25419
829.69	25575
829.829	25563
829.968	25639
830.107	25506
830.246	25403
830.385	25529
830.524	25419
830.663	25373
830.802	25301
830.941	25107
831.08	25008
831.219	25156
831.357	25202
831.496	25282
831.635	25259
831.774	25168
831.913	24992
832.051	25046
832.19	24844
832.329	24909
832.467	24783
832.606	24787
832.744	24677
832.883	24753
833.022	24642
833.16	24658
833.299	24768
833.437	24696
833.576	24787
833.714	24798
833.852	24985
833.991	24749
834.129	24928
834.267	24783
834.406	24661
834.544	24722
834.682	24840
834.821	24650
834.959	24875
835.097	24540
835.235	24829
835.373	24760
835.511	24719
835.65	24578
835.788	24540
835.926	24441
836.064	24357
836.202	24384
836.34	24464
836.478	24776
836.615	24631
836.753	24642
836.891	24570
837.029	24665
837.167	24479
837.305	24547
837.443	24361
837.58	24517
837.718	24384
837.856	24376
837.993	24376
838.131	24247
838.269	24216
838.406	24174
838.544	24106
838.681	24057
838.819	23977
838.956	23882
839.094	23775
839.231	23920
839.369	23931
839.506	24182
839.643	23969
839.781	23832
839.918	23821
840.055	23748
840.193	23863
840.33	23589
840.467	23707
840.604	23756
840.742	24015
840.879	23589
841.016	23638
841.153	23524
841.29	23843
841.427	23623
841.564	23684
841.701	23646
841.838	23512
841.975	23558
842.112	23570
842.249	23558
842.385	23356
842.522	23577
842.659	23512
842.796	23387
842.933	23345
843.069	23334
843.206	23360
843.343	23368
843.479	23379
843.616	23277
843.752	23189
843.889	23143
844.025	23197
844.162	23044
844.298	23204
844.435	23170
844.571	23067
844.708	23178
844.844	23223
844.98	23170
845.117	23227
845.253	22976
845.389	22946
845.525	22919
845.661	22866
845.798	22839
845.934	22793
846.07	22672
846.206	22683
846.342	22831
846.478	22866
846.614	22561
846.75	22519
846.886	22459
847.022	22618
847.158	22626
847.294	22557
847.429	22519
847.565	22470
847.701	22824
847.837	22257
847.972	22154
848.108	22341
848.244	22226
848.379	22207
848.515	22021
848.65	22166
848.786	22002
848.921	22067
849.057	22219
849.192	22177
849.328	22036
849.463	22093
849.598	21968
849.734	21987
849.869	21953
850.004	21827
850.14	21846
850.275	21846
850.41	21865
850.545	21728
850.68	21800
850.815	21846
850.95	21793
851.085	21972
851.22	21876
851.355	21774
851.49	21808
851.625	21781
851.76	21800
851.895	21694
852.03	21743
852.165	21857
852.299	21991
852.434	21819
852.569	21831
852.703	21854
852.838	21816
852.973	22070
853.107	21846
853.242	21785
853.376	21637
853.511	21523
853.645	21587
853.78	21812
853.914	21458
854.048	21511
854.183	21637
854.317	21580
854.451	21789
854.585	21481
854.72	21534
854.854	21679
854.988	21466
855.122	21595
855.256	21466
855.39	21667
855.524	21770
855.658	21743
855.792	21492
855.926	21633
856.06	21648
856.194	21713
856.327	21545
856.461	21667
856.595	21583
856.729	21663
856.862	21694
856.996	21633
857.13	21675
857.263	21686
857.397	21644
857.53	21545
857.664	21576
857.797	21625
857.931	21709
858.064	21610
858.197	21610
858.331	21648
858.464	21507
858.597	21450
858.731	21553
858.864	21538
858.997	21530
859.13	21473
859.263	21599
859.396	21610
859.529	21454
859.662	21523
859.795	21473
859.928	21591
860.061	21652
860.194	21701
860.327	21587
860.46	21576
860.592	21553
860.725	21641
860.858	21625
860.99	21485
861.123	21477
861.256	21408
861.388	21610
861.521	22139
861.653	21351
861.786	21359
861.918	21405
862.05	21355
862.183	21408
862.315	21473
862.447	21519
862.58	21523
862.712	21264
862.844	21214
862.976	21291
863.108	21283
863.24	21542
863.372	21203
863.504	21203
863.636	21245
863.768	21161
863.9	21157
864.032	21203
864.164	21173
864.296	21291
864.428	21321
864.559	21374
864.691	21252
864.823	21272
864.954	21157
865.086	21214
865.217	21188
865.349	21017
865.48	21043
865.612	21058
865.743	21245
865.875	21176
866.006	21055
866.137	21135
866.269	21142
866.4	21058
866.531	21096
866.662	21005
866.793	21055
866.924	21123
867.055	21138
867.186	20986
867.317	21089
867.448	20876
867.579	20944
867.71	20941
867.841	20883
867.972	20967
868.103	21100
868.233	21066
868.364	21013
868.495	21146
868.625	21321
868.756	21313
868.886	21199
869.017	21203
869.147	21367
869.278	21264
869.408	21211
869.539	21298
869.669	21370
869.799	21302
869.929	21435
870.06	21408
870.19	21614
870.32	21542
870.45	21629
870.58	21603
870.71	21789
870.84	21800
870.97	21656
871.1	21675
871.23	21728
871.36	21842
871.489	21762
871.619	21812
871.749	21739
871.879	21960
872.008	22093
872.138	21922
872.267	21842
872.397	21747
872.526	21667
872.656	21698
872.785	21637
872.915	21865
873.044	21945
873.173	21899
873.303	21956
873.432	21945
873.561	22059
873.69	22074
873.819	21808
873.948	22025
874.077	21979
874.206	21789
874.335	21949
874.464	21930
874.593	22128
874.722	22010
874.851	22082
874.979	22226
875.108	22188
875.237	22086
875.365	22017
875.494	22131
875.623	22261
875.751	22135
875.88	22139
876.008	22325
876.136	22341
876.265	22550
876.393	22679
876.521	22474
876.65	22436
876.778	22459
876.906	22390
877.034	22356
877.162	22500
877.29	22382
877.418	22455
877.546	22489
877.674	22405
877.802	22421
877.93	22481
878.058	22424
878.185	22394
878.313	22474
878.441	22462
878.568	22310
878.696	22405
878.824	22512
878.951	22512
879.079	22637
879.206	22831
879.333	22687
879.461	22527
879.588	22352
879.715	22641
879.842	22771
879.97	22493
880.097	22154
880.224	22242
880.351	22200
880.478	22261
880.605	22265
880.732	22200
880.859	22432
880.986	22196
881.112	22325
881.239	22055
881.366	22021
881.493	21812
881.619	21789
881.746	22013
881.872	21827
881.999	21819
882.125	21873
882.252	21953
882.378	21876
882.505	22067
882.631	21808
882.757	21663
882.883	21770
883.01	21542
883.136	21515
883.262	21488
883.388	21378
883.514	21576
883.64	21568
883.766	21378
883.892	21367
884.018	21466
884.143	21481
884.269	21614
884.395	21287
884.52	21165
884.646	21207
884.772	21214
884.897	21119
885.023	21233
885.148	21252
885.274	21382
885.399	21325
885.524	21119
885.65	21226
885.775	21302
885.9	21203
886.025	21230
886.15	21283
886.275	21146
886.4	21169
886.525	21055
886.65	21093
886.775	21074
886.9	21317
887.025	21332
887.149	21256
887.274	20864
887.399	20971
887.523	20963
887.648	20918
887.773	20918
887.897	21020
888.021	21116
888.146	20823
888.27	21017
888.395	21112
888.519	20902
888.643	20986
888.767	20902
888.891	20826
889.015	20583
889.139	20872
889.263	20796
889.387	20914
889.511	20902
889.635	20804
889.759	20727
889.883	20693
890.006	20731
890.13	20819
890.254	20781
890.377	20731
890.501	20484
890.624	20446
890.748	20598
890.871	20355
890.995	20286
891.118	20248
891.241	20324
891.364	20259
891.488	20298
891.611	20259
891.734	20324
891.857	20377
891.98	20336
892.103	20370
892.226	20301
892.349	20271
892.471	20050
892.594	20256
892.717	20225
892.839	20218
892.962	20149
893.085	20336
893.207	20248
893.33	20054
893.452	20164
893.575	20263
893.697	20244
893.819	20278
893.941	20427
894.064	20252
894.186	20183
894.308	20122
894.43	20355
894.552	20374
894.674	20415
894.796	20111
894.918	20164
895.04	20214
895.161	20286
895.283	20252
895.405	20122
895.526	20332
895.648	20271
895.769	20225
895.891	20248
896.012	20237
896.134	20149
896.255	20339
896.376	20256
896.498	20149
896.619	20332
896.74	20259
896.861	20385
896.982	20648
897.103	20773
897.224	20492
897.345	20499
897.466	20438
897.587	20530
897.708	20575
897.828	20522
897.949	20469
898.07	20336
898.19	20514
898.311	20488
898.431	20309
898.552	20438
898.672	20670
898.792	20461
898.913	20362
899.033	20324
899.153	20111
899.273	20058
899.393	20218
899.513	20145
899.633	20161
899.753	20210
899.873	19890
899.993	20240
900.113	20054
900.232	20115
900.352	20084
900.472	20008
900.591	19963
900.711	19894
900.83	19913
900.95	20005
901.069	19947
901.189	19849
901.308	19651
901.427	19480
901.546	19594
901.665	19586
901.784	19571
901.904	19438
902.023	19327
902.141	19034
902.26	19133
902.379	19091
902.498	18932
902.617	19004
902.735	19034
902.854	18989
902.973	18829
903.091	18757
903.21	18669
903.328	18722
903.446	18509
903.565	18589
903.683	18452
903.801	18441
903.919	18418
904.038	18361
904.156	18216
904.274	18372
904.392	18304
904.51	18194
904.627	18258
904.745	18243
904.863	18228
904.981	18057
905.098	17813
905.216	17942
905.334	17878
905.451	17874
905.569	17866
905.686	17984
905.803	17878
905.921	17638
906.038	17737
906.155	17646
906.272	17554
906.389	17600
906.506	17322
906.623	17364
906.74	17459
906.857	17288
906.974	17227
907.091	17524
907.208	17585
907.324	17448
907.441	17265
907.557	17109
907.674	17094
907.79	17033
907.907	16968
908.023	17162
908.139	16968
908.256	16949
908.372	17029
908.488	16949
908.604	16782
908.72	16710
908.836	16812
908.952	16740
909.068	16843
909.184	16892
909.3	16828
909.415	16812
909.531	16637
909.647	16478
909.762	16512
909.878	16379
909.993	16516
910.108	16413
910.224	16417
910.339	16489
910.454	16390
910.57	16230
910.685	16124
910.8	16405
910.915	16386
911.03	16211
911.145	16093
911.259	16044
911.374	16097
911.489	16006
911.604	15911
911.718	15785
911.833	15759
911.947	15732
912.062	15663
912.176	15827
912.291	15831
912.405	15823
912.519	16131
912.633	16040
912.748	15759
912.862	15808
912.976	15622
913.09	15523
913.204	15580
913.318	15660
913.431	15625
913.545	15603
913.659	15720
913.772	15492
913.886	15454
914	15355
914.113	15481
914.226	15488
914.34	15458
914.453	15260
914.566	15431
914.68	15279
914.793	15207
914.906	15055
915.019	15051
915.132	14967
915.245	15039
915.358	15070
915.47	15036
915.583	14956
915.696	15043
915.809	15188
915.921	15237
916.034	14971
916.146	14823
916.259	14891
916.371	15039
916.483	14918
916.595	14857
916.708	14853
916.82	14872
916.932	14804
917.044	14785
917.156	14689
917.268	14632
917.38	14610
917.491	14663
917.603	14670
917.715	14720
917.826	14781
917.938	14598
918.049	14476
918.161	14651
918.272	14727
918.384	14769
918.495	14575
918.606	14404
918.717	14370
918.828	14461
918.939	14514
919.05	14366
919.161	14328
919.272	14164
919.383	14278
919.494	14427
919.604	14564
919.715	14309
919.826	14256
919.936	14396
920.047	14408
920.157	14347
920.267	14564
920.378	14396
920.488	14408
920.598	14526
920.708	14644
920.818	14495
920.928	14499
921.038	14625
921.148	14545
921.258	14320
921.368	14237
921.477	14084
921.587	13970
921.697	13932
921.806	14073
921.916	13845
922.025	13712
922.134	13639
922.244	13693
922.353	13795
922.462	13552
922.571	13518
922.68	13403
922.789	13304
922.898	13407
923.007	13145
923.116	13396
923.224	13369
923.333	13187
923.442	13171
923.55	13145
923.659	13194
923.767	13198
923.876	13122
923.984	13259
924.092	13137
924.201	13065
924.309	13061
924.417	13053
924.525	13015
924.633	13031
924.741	13746
924.849	12817
924.956	12947
925.064	12825
925.172	12779
925.279	12806
925.387	12814
925.494	12798
925.602	12882
925.709	12890
925.816	12741
925.924	12795
926.031	12734
926.138	12783
926.245	12844
926.352	12639
926.459	12700
926.566	12863
926.673	12642
926.779	12517
926.886	12464
926.993	12483
927.099	12357
927.206	12365
927.312	12277
927.419	12410
927.525	12350
927.631	12384
927.737	12175
927.843	12197
927.95	12117
928.056	12068
928.162	12205
928.267	12232
928.373	12810
928.479	12285
928.585	11946
928.69	12091
928.796	12144
928.901	12038
929.007	11988
929.112	11992
929.218	11988
929.323	11965
929.428	11939
929.533	12022
929.638	11798
929.743	11847
929.848	11859
929.953	11809
930.058	11733
930.163	11532
930.267	11707
930.372	11726
930.477	11516
930.581	11722
930.685	11592
930.79	11444
930.894	11391
930.998	11459
931.103	11547
931.207	11151
931.311	11041
931.415	11014
931.519	10801
931.623	10854
