Data from test_V78500241_1174.txt Node
Date: Fri Mar 25 15:49:56 CST 2022
User: usil
Spectrometer: V785-0024
Trigger mode: 0
Integration Time (sec): 4.000000E-1
Scans to average: 1
Nonlinearity correction enabled: false
Boxcar width: 0
Storing dark spectrum: false
XAxis mode: Wavelengths
Number of Pixels in Spectrum: 1024
>>>>>Begin Spectral Data<<<<<
801.071	28546
801.214	28360
801.356	28265
801.499	27956
801.641	28181
801.783	28067
801.926	28215
802.068	28162
802.211	28017
802.353	27869
802.496	27873
802.638	27774
802.78	27736
802.923	27816
803.065	27694
803.208	27629
803.35	27842
803.492	27785
803.635	27994
803.777	27759
803.919	27934
804.061	28261
804.204	28070
804.346	27903
804.488	27907
804.63	28055
804.773	27854
804.915	28025
805.057	28067
805.199	28002
805.341	27934
805.483	28280
805.626	28082
805.768	28013
805.91	28204
806.052	28249
806.194	28078
806.336	28230
806.478	28234
806.62	28280
806.762	28360
806.904	28371
807.046	28607
807.188	28634
807.33	28710
807.472	28660
807.614	28413
807.756	28573
807.898	28443
808.04	28341
808.182	28504
808.324	28687
808.465	28569
808.607	28596
808.749	28828
808.891	28862
809.033	28995
809.174	28976
809.316	28839
809.458	28820
809.6	28835
809.741	29212
809.883	29060
810.025	29151
810.166	29143
810.308	29197
810.45	29086
810.591	29025
810.733	28885
810.875	28896
811.016	28908
811.158	28816
811.299	29022
811.441	29064
811.582	29048
811.724	28862
811.865	28831
812.007	28919
812.148	28957
812.29	28881
812.431	29071
812.573	29121
812.714	29375
812.855	29299
812.997	29547
813.138	29630
813.279	29528
813.421	29486
813.562	29197
813.703	29132
813.845	28999
813.986	28748
814.127	28717
814.268	28478
814.41	28546
814.551	28497
814.692	28500
814.833	28497
814.974	28535
815.115	28622
815.256	28432
815.397	28538
815.539	28512
815.68	28272
815.821	28211
815.962	28424
816.103	28348
816.244	28310
816.385	28158
816.526	28158
816.666	27937
816.807	27949
816.948	27899
817.089	28017
817.23	27956
817.371	27808
817.512	27766
817.653	27831
817.793	27865
817.934	27766
818.075	27945
818.216	27899
818.356	27823
818.497	27739
818.638	27534
818.778	27629
818.919	27618
819.06	27671
819.2	27705
819.341	27812
819.481	27804
819.622	28044
819.762	28226
819.903	28036
820.043	28021
820.184	28112
820.324	28078
820.465	28204
820.605	27987
820.746	27903
820.886	27819
821.026	28150
821.167	28006
821.307	28093
821.447	27918
821.588	27835
821.728	27770
821.868	27564
822.008	27405
822.149	27310
822.289	27313
822.429	27180
822.569	27013
822.709	27024
822.849	26815
822.99	26971
823.13	26902
823.27	26773
823.41	26705
823.55	26606
823.69	26727
823.83	26758
823.97	26526
824.11	26556
824.25	26438
824.389	26404
824.529	26598
824.669	26389
824.809	26670
824.949	26575
825.089	26640
825.228	26632
825.368	26347
825.508	26442
825.648	26446
825.787	26347
825.927	26412
826.067	26415
826.206	26377
826.346	26355
826.485	26450
826.625	26370
826.765	26495
826.904	26408
827.044	26267
827.183	26172
827.323	26054
827.462	26149
827.601	26096
827.741	26122
827.88	26088
828.02	25963
828.159	26103
828.298	25986
828.437	26252
828.577	26046
828.716	26240
828.855	26122
828.994	25917
829.134	25750
829.273	25765
829.412	25662
829.551	25784
829.69	25784
829.829	25795
829.968	25974
830.107	25890
830.246	25841
830.385	25753
830.524	25742
830.663	25521
830.802	25518
830.941	25415
831.08	25304
831.219	25510
831.357	25537
831.496	25704
831.635	25403
831.774	25297
831.913	25335
832.051	25076
832.19	25225
832.329	25240
832.467	25164
832.606	25145
832.744	25114
832.883	25183
833.022	25031
833.16	25099
833.299	25088
833.437	25129
833.576	25183
833.714	25228
833.852	25076
833.991	25202
834.129	25225
834.267	25221
834.406	25202
834.544	25099
834.682	25190
834.821	25164
834.959	25274
835.097	25034
835.235	25122
835.373	25209
835.511	25114
835.65	24939
835.788	25027
835.926	24947
836.064	24821
836.202	24795
836.34	25008
836.478	24947
836.615	24920
836.753	25050
836.891	25061
837.029	24966
837.167	25015
837.305	24875
837.443	24757
837.58	24844
837.718	24928
837.856	24825
837.993	24856
838.131	24791
838.269	24741
838.406	24700
838.544	24551
838.681	24479
838.819	24418
838.956	24285
839.094	24262
839.231	24228
839.369	24403
839.506	24661
839.643	24486
839.781	24369
839.918	24285
840.055	24285
840.193	24152
840.33	24182
840.467	24262
840.604	24216
840.742	24486
840.879	23984
841.016	24148
841.153	24178
841.29	24247
841.427	24152
841.564	24114
841.701	24159
841.838	24102
841.975	24011
842.112	23988
842.249	24079
842.385	23961
842.522	24136
842.659	23984
842.796	24007
842.933	23836
843.069	23832
843.206	23790
843.343	23958
843.479	23942
843.616	23973
843.752	23767
843.889	23722
844.025	23840
844.162	23710
844.298	23790
844.435	23627
844.571	23794
844.708	23554
844.844	23961
844.98	23999
845.117	23878
845.253	23657
845.389	23512
845.525	23558
845.661	23497
845.798	23372
845.934	23455
846.07	23501
846.206	23493
846.342	23520
846.478	23322
846.614	23258
846.75	23056
846.886	23159
847.022	23128
847.158	23185
847.294	23242
847.429	23170
847.565	23121
847.701	23501
847.837	22786
847.972	22892
848.108	22946
848.244	22904
848.379	22771
848.515	22816
848.65	22820
848.786	22752
848.921	22679
849.057	22828
849.192	22854
849.328	22797
849.463	22660
849.598	22687
849.734	22641
849.869	22535
850.004	22523
850.14	22592
850.275	22546
850.41	22466
850.545	22428
850.68	22516
850.815	22516
850.95	22599
851.085	22759
851.22	22443
851.355	22584
851.49	22455
851.625	22527
851.76	22375
851.895	22512
852.03	22489
852.165	22455
852.299	22645
852.434	22512
852.569	22424
852.703	22386
852.838	22474
852.973	22607
853.107	22725
853.242	22447
853.376	22363
853.511	22226
853.645	22306
853.78	22424
853.914	22382
854.048	22295
854.183	22261
854.317	22329
854.451	22481
854.585	22272
854.72	22386
854.854	22295
854.988	22169
855.122	22413
855.256	22207
855.39	22200
855.524	22329
855.658	22341
855.792	22272
855.926	22348
856.06	22375
856.194	22352
856.327	22348
856.461	22257
856.595	22261
856.729	22230
856.862	22417
856.996	22280
857.13	22299
857.263	22386
857.397	22348
857.53	22287
857.664	22356
857.797	22459
857.931	22436
858.064	22394
858.197	22363
858.331	22398
858.464	22204
858.597	22299
858.731	22257
858.864	22417
858.997	22306
859.13	22249
859.263	22306
859.396	22504
859.529	22352
859.662	22249
859.795	22192
859.928	22322
860.061	22538
860.194	22516
860.327	22215
860.46	22344
860.592	22474
860.725	22481
860.858	22527
860.99	22348
861.123	22291
861.256	22352
861.388	22375
861.521	23094
861.653	22188
861.786	22215
861.918	22124
862.05	22116
862.183	22169
862.315	22306
862.447	22375
862.58	22162
862.712	22120
862.844	21876
862.976	22211
863.108	22074
863.24	22577
863.372	21987
863.504	21983
863.636	22048
863.768	22010
863.9	21983
864.032	21953
864.164	21895
864.296	21915
864.428	22078
864.559	22036
864.691	22055
864.823	22093
864.954	22006
865.086	21922
865.217	21835
865.349	21804
865.48	21808
865.612	21979
865.743	21968
865.875	21907
866.006	21941
866.137	21884
866.269	21892
866.4	21972
866.531	21930
866.662	21869
866.793	21854
866.924	21835
867.055	21930
867.186	21880
867.317	21861
867.448	21720
867.579	21785
867.71	21755
867.841	21732
867.972	21816
868.103	21800
868.233	21831
868.364	21835
868.495	21991
868.625	21960
868.756	22181
868.886	22021
869.017	22162
869.147	22177
869.278	22086
869.408	22109
869.539	22048
869.669	22025
869.799	22051
869.929	22299
870.06	22192
870.19	22348
870.32	22344
870.45	22375
870.58	22546
870.71	22512
870.84	22485
870.97	22466
871.1	22504
871.23	22691
871.36	22656
871.489	22603
871.619	22577
871.749	22596
871.879	22668
872.008	22729
872.138	22691
872.267	22645
872.397	22516
872.526	22565
872.656	22432
872.785	22599
872.915	22611
873.044	22820
873.173	22691
873.303	22725
873.432	22588
873.561	22839
873.69	22679
873.819	22698
873.948	22786
874.077	22675
874.206	22535
874.335	22702
874.464	22839
874.593	22934
874.722	22858
874.851	22938
874.979	22991
875.108	22999
875.237	22854
875.365	22778
875.494	22896
875.623	22984
875.751	22854
875.88	22930
876.008	22968
876.136	23067
876.265	23307
876.393	23265
876.521	23273
876.65	23334
876.778	23353
876.906	23227
877.034	23102
877.162	23322
877.29	23113
877.418	23242
877.546	23200
877.674	23109
877.802	23166
877.93	23292
878.058	23075
878.185	23109
878.313	23128
878.441	23178
878.568	23033
878.696	23174
878.824	23250
878.951	23326
879.079	23398
879.206	23535
879.333	23383
879.461	23349
879.588	23512
879.715	23334
879.842	23318
879.97	23284
880.097	23071
880.224	23014
880.351	23109
880.478	22904
880.605	22968
880.732	23003
880.859	23261
880.986	23060
881.112	23006
881.239	22946
881.366	22801
881.493	22698
881.619	22653
881.746	22675
881.872	22618
881.999	22584
882.125	22443
882.252	22675
882.378	22474
882.505	22710
882.631	22485
882.757	22337
882.883	22417
883.01	22306
883.136	22268
883.262	22181
883.388	22063
883.514	22192
883.64	22261
883.766	22200
883.892	22040
884.018	21991
884.143	22329
884.269	22322
884.395	21987
884.52	21842
884.646	21918
884.772	21888
884.897	21876
885.023	21774
885.148	21994
885.274	21979
885.399	22002
885.524	21854
885.65	21956
885.775	21819
885.9	21994
886.025	22036
886.15	21949
886.275	21846
886.4	21842
886.525	21918
886.65	21743
886.775	21850
886.9	22021
887.025	22051
887.149	21800
887.274	21686
887.399	21648
887.523	21819
887.648	21682
887.773	21568
887.897	21857
888.021	21835
888.146	21583
888.27	21622
888.395	21774
888.519	21739
888.643	21720
888.767	21705
888.891	21656
889.015	21443
889.139	21542
889.263	21488
889.387	21618
889.511	21694
889.635	21542
889.759	21500
889.883	21359
890.006	21469
890.13	21397
890.254	21359
890.377	21507
890.501	21138
890.624	21184
890.748	21146
890.871	21142
890.995	21005
891.118	20941
891.241	21043
891.364	21005
891.488	21173
891.611	21020
891.734	21005
891.857	21093
891.98	20979
892.103	21108
892.226	20952
892.349	21047
892.471	20910
892.594	21051
892.717	21024
892.839	20815
892.962	21005
893.085	21013
893.207	20933
893.33	20823
893.452	20815
893.575	21017
893.697	20823
893.819	21024
893.941	21112
894.064	20998
894.186	20864
894.308	20895
894.43	20921
894.552	21032
894.674	20971
894.796	20823
894.918	20883
895.04	20933
895.161	21024
895.283	20979
895.405	20872
895.526	20910
895.648	20872
895.769	21024
895.891	20998
896.012	20994
896.134	20967
896.255	20956
896.376	20895
896.498	21009
896.619	21005
896.74	21055
896.861	21032
896.982	21302
897.103	21283
897.224	21302
897.345	21195
897.466	20994
897.587	21184
897.708	21203
897.828	21161
897.949	21077
898.07	21009
898.19	21112
898.311	21291
898.431	21104
898.552	21058
898.672	21207
898.792	21233
898.913	21119
899.033	20998
899.153	20883
899.273	20834
899.393	20785
899.513	20883
899.633	20868
899.753	20872
899.873	20724
899.993	20811
900.113	20796
900.232	20739
900.352	20804
900.472	20769
900.591	20640
900.711	20678
900.83	20454
900.95	20807
901.069	20689
901.189	20492
901.308	20358
901.427	20206
901.546	20320
901.665	20161
901.784	20263
901.904	20081
902.023	20077
902.141	19807
902.26	19879
902.379	19830
902.498	19738
902.617	19738
902.735	19807
902.854	19655
902.973	19548
903.091	19518
903.21	19460
903.328	19460
903.446	19358
903.565	19206
903.683	19129
903.801	19152
903.919	19171
904.038	19148
904.156	18970
904.274	19095
904.392	18882
904.51	18947
904.627	18943
904.745	18920
904.863	19038
904.981	18703
905.098	18684
905.216	18646
905.334	18604
905.451	18578
905.569	18589
905.686	18688
905.803	18650
905.921	18391
906.038	18452
906.155	18327
906.272	18194
906.389	18247
906.506	18114
906.623	18076
906.74	18171
906.857	18034
906.974	17996
907.091	18220
907.208	18281
907.324	18197
907.441	18041
907.557	17878
907.674	17878
907.79	17828
907.907	17923
908.023	17901
908.139	17859
908.256	17760
908.372	17733
908.488	17786
908.604	17634
908.72	17528
908.836	17497
908.952	17554
909.068	17638
909.184	17642
909.3	17596
909.415	17691
909.531	17528
909.647	17311
909.762	17223
909.878	17387
909.993	17292
910.108	17296
910.224	17185
910.339	17212
910.454	17094
910.57	17102
910.685	16957
910.8	17341
910.915	17212
911.03	17075
911.145	16934
911.259	16824
911.374	16946
911.489	16843
911.604	16656
911.718	16561
911.833	16592
911.947	16592
912.062	16428
912.176	16599
912.291	16561
912.405	16653
912.519	16805
912.633	16752
912.748	16645
912.862	16675
912.976	16405
913.09	16299
913.204	16386
913.318	16424
913.431	16489
913.545	16447
913.659	16443
913.772	16314
913.886	16242
914	16173
914.113	16223
914.226	16306
914.34	16192
914.453	16036
914.566	16200
914.68	16090
914.793	16025
914.906	15888
915.019	15785
915.132	15660
915.245	15736
915.358	15709
915.47	15823
915.583	15831
915.696	15816
915.809	15854
915.921	15854
916.034	15751
916.146	15679
916.259	15622
916.371	15736
916.483	15690
916.595	15690
916.708	15667
916.82	15545
916.932	15538
917.044	15564
917.156	15424
917.268	15466
917.38	15458
917.491	15374
917.603	15321
917.715	15481
917.826	15564
917.938	15382
918.049	15184
918.161	15317
918.272	15500
918.384	15507
918.495	15389
918.606	15176
918.717	15032
918.828	15173
918.939	15226
919.05	15108
919.161	15116
919.272	14956
919.383	15001
919.494	15237
919.604	15340
919.715	15097
919.826	15024
919.936	15066
920.047	15184
920.157	15116
920.267	15306
920.378	15093
920.488	15104
920.598	15226
920.708	15408
920.818	15123
920.928	15188
921.038	15397
921.148	15237
921.258	14990
921.368	14910
921.477	14895
921.587	14777
921.697	14739
921.806	14853
921.916	14697
922.025	14530
922.134	14431
922.244	14473
922.353	14480
922.462	14473
922.571	14278
922.68	14176
922.789	14073
922.898	14100
923.007	14005
923.116	14039
923.224	14107
923.333	13978
923.442	13982
923.55	13852
923.659	13894
923.767	14012
923.876	13890
923.984	13875
924.092	13776
924.201	13860
924.309	13803
924.417	13822
924.525	13772
924.633	13811
924.741	14560
924.849	13525
924.956	13742
925.064	13521
925.172	13384
925.279	13460
925.387	13480
925.494	13464
925.602	13544
925.709	13552
925.816	13426
925.924	13396
926.031	13460
926.138	13419
926.245	13453
926.352	13415
926.459	13441
926.566	13419
926.673	13343
926.779	13164
926.886	13183
926.993	13069
927.099	13015
927.206	12973
927.312	13019
927.419	13084
927.525	12977
927.631	13031
927.737	12878
927.843	12928
927.95	12764
928.056	12909
928.162	12863
928.267	12814
928.373	13525
928.479	12837
928.585	12677
928.69	12734
928.796	12856
928.901	12707
929.007	12521
929.112	12662
929.218	12616
929.323	12665
929.428	12544
929.533	12696
929.638	12498
929.743	12559
929.848	12536
929.953	12490
930.058	12437
930.163	12194
930.267	12197
930.372	12357
930.477	12129
930.581	12429
930.685	12296
930.79	12083
930.894	12155
930.998	12095
931.103	12167
931.207	11813
931.311	11794
931.415	11672
931.519	11535
931.623	11440
