Data from test_V78500241_2479.txt Node
Date: Fri Mar 25 15:58:58 CST 2022
User: usil
Spectrometer: V785-0024
Trigger mode: 0
Integration Time (sec): 4.000000E-1
Scans to average: 1
Nonlinearity correction enabled: false
Boxcar width: 0
Storing dark spectrum: false
XAxis mode: Wavelengths
Number of Pixels in Spectrum: 1024
>>>>>Begin Spectral Data<<<<<
801.071	28272
801.214	28185
801.356	28116
801.499	27945
801.641	27743
801.783	28006
801.926	27789
802.068	27888
802.211	27720
802.353	27667
802.496	27568
802.638	27572
802.78	27519
802.923	27519
803.065	27351
803.208	27374
803.35	27526
803.492	27713
803.635	27622
803.777	27675
803.919	27694
804.061	28025
804.204	27698
804.346	27538
804.488	27515
804.63	27629
804.773	27572
804.915	27717
805.057	27888
805.199	27660
805.341	27720
805.483	27842
805.626	27838
805.768	27751
805.91	27835
806.052	27880
806.194	27751
806.336	27998
806.478	27835
806.62	27781
806.762	27953
806.904	28238
807.046	28447
807.188	28303
807.33	28265
807.472	28375
807.614	28284
807.756	28131
807.898	28143
808.04	28029
808.182	28036
808.324	28055
808.465	28135
808.607	28367
808.749	28618
808.891	28603
809.033	28497
809.174	28382
809.316	28535
809.458	28466
809.6	28462
809.741	28550
809.883	28607
810.025	28786
810.166	28873
810.308	28763
810.45	28717
810.591	28767
810.733	28478
810.875	28413
811.016	28405
811.158	28470
811.299	28542
811.441	28717
811.582	28584
811.724	28531
811.865	28542
812.007	28382
812.148	28436
812.29	28565
812.431	28596
812.573	28805
812.714	28839
812.855	28869
812.997	29178
813.138	29197
813.279	29006
813.421	29022
813.562	28942
813.703	28710
813.845	28786
813.986	28447
814.127	28128
814.268	28234
814.41	28268
814.551	28158
814.692	28169
814.833	28135
814.974	28139
815.115	28143
815.256	28067
815.397	27979
815.539	27869
815.68	28128
815.821	27987
815.962	27979
816.103	27991
816.244	27869
816.385	27652
816.526	27713
816.666	27568
816.807	27416
816.948	27561
817.089	27583
817.23	27557
817.371	27485
817.512	27397
817.653	27485
817.793	27351
817.934	27443
818.075	27344
818.216	27614
818.356	27443
818.497	27283
818.638	27192
818.778	27176
818.919	27184
819.06	27222
819.2	27424
819.341	27481
819.481	27450
819.622	27519
819.762	27755
819.903	27778
820.043	27610
820.184	27583
820.324	27625
820.465	27701
820.605	27595
820.746	27561
820.886	27530
821.026	27473
821.167	27583
821.307	27606
821.447	27496
821.588	27329
821.728	27363
821.868	26971
822.008	26975
822.149	26990
822.289	27058
822.429	26659
822.569	26594
822.709	26648
822.849	26396
822.99	26438
823.13	26423
823.27	26370
823.41	26267
823.55	26233
823.69	26294
823.83	26267
823.97	26149
824.11	25947
824.25	25909
824.389	26062
824.529	26275
824.669	26161
824.809	26138
824.949	26130
825.089	26145
825.228	26119
825.368	25963
825.508	25982
825.648	26012
825.787	26138
825.927	26077
826.067	25906
826.206	26062
826.346	26024
826.485	25913
826.625	25940
826.765	26012
826.904	25906
827.044	25788
827.183	25689
827.323	25738
827.462	25651
827.601	25616
827.741	25655
827.88	25856
828.02	25578
828.159	25719
828.298	25689
828.437	25803
828.577	25609
828.716	25746
828.855	25597
828.994	25331
829.134	25464
829.273	25464
829.412	25202
829.551	25316
829.69	25407
829.829	25354
829.968	25266
830.107	25407
830.246	25312
830.385	25346
830.524	25362
830.663	25270
830.802	25179
830.941	24996
831.08	24981
831.219	25297
831.357	25103
831.496	25213
831.635	24935
831.774	24951
831.913	24871
832.051	24905
832.19	24768
832.329	24817
832.467	24719
832.606	24654
832.744	24631
832.883	24692
833.022	24547
833.16	24764
833.299	24707
833.437	24749
833.576	24738
833.714	24593
833.852	24764
833.991	24787
834.129	24817
834.267	24772
834.406	24665
834.544	24745
834.682	24798
834.821	24684
834.959	24970
835.097	24772
835.235	24844
835.373	24688
835.511	24722
835.65	24544
835.788	24532
835.926	24509
836.064	24441
836.202	24258
836.34	24741
836.478	24547
836.615	24544
836.753	24445
836.891	24696
837.029	24570
837.167	24429
837.305	24490
837.443	24418
837.58	24372
837.718	24391
837.856	24407
837.993	24289
838.131	24357
838.269	24220
838.406	24338
838.544	24323
838.681	23992
838.819	23908
838.956	23965
839.094	23897
839.231	23965
839.369	23939
839.506	24285
839.643	24102
839.781	23965
839.918	23745
840.055	23821
840.193	23840
840.33	23840
840.467	23927
840.604	23931
840.742	24026
840.879	23604
841.016	23718
841.153	23600
841.29	23958
841.427	23752
841.564	23794
841.701	23786
841.838	23722
841.975	23528
842.112	23665
842.249	23596
842.385	23482
842.522	23714
842.659	23608
842.796	23406
842.933	23516
843.069	23486
843.206	23417
843.343	23497
843.479	23554
843.616	23497
843.752	23387
843.889	23254
844.025	23349
844.162	23330
844.298	23345
844.435	23391
844.571	23242
844.708	23280
844.844	23368
844.98	23524
845.117	23307
845.253	23330
845.389	23136
845.525	23258
845.661	23083
845.798	22949
845.934	23056
846.07	22949
846.206	23117
846.342	23136
846.478	23083
846.614	22866
846.75	22759
846.886	22801
847.022	22850
847.158	22824
847.294	22645
847.429	22782
847.565	22656
847.701	22949
847.837	22546
847.972	22390
848.108	22588
848.244	22592
848.379	22436
848.515	22424
848.65	22303
848.786	22413
848.921	22303
849.057	22512
849.192	22402
849.328	22436
849.463	22344
849.598	22234
849.734	22242
849.869	22181
850.004	22097
850.14	22128
850.275	22150
850.41	22029
850.545	21964
850.68	22120
850.815	22105
850.95	22070
851.085	22284
851.22	22249
851.355	22131
851.49	22086
851.625	22048
851.76	22040
851.895	21983
852.03	21983
852.165	22112
852.299	22055
852.434	22207
852.569	22135
852.703	22067
852.838	22181
852.973	22299
853.107	22162
853.242	22025
853.376	21934
853.511	21728
853.645	21823
853.78	22006
853.914	21968
854.048	21865
854.183	21876
854.317	22032
854.451	22078
854.585	21907
854.72	22036
854.854	22044
854.988	21827
855.122	21918
855.256	21884
855.39	21899
855.524	21975
855.658	21953
855.792	21838
855.926	21861
856.06	21899
856.194	21884
856.327	21926
856.461	21812
856.595	21922
856.729	21781
856.862	21956
856.996	21998
857.13	22006
857.263	21975
857.397	21949
857.53	21972
857.664	21911
857.797	21953
857.931	21979
858.064	21918
858.197	22032
858.331	21892
858.464	21949
858.597	21884
858.731	21755
858.864	21915
858.997	21892
859.13	21895
859.263	21888
859.396	21964
859.529	21911
859.662	21842
859.795	21854
859.928	21964
860.061	22006
860.194	22063
860.327	21968
860.46	22002
860.592	22086
860.725	22109
860.858	22055
860.99	21797
861.123	21857
861.256	21915
861.388	21987
861.521	22763
861.653	21564
861.786	21800
861.918	21907
862.05	21831
862.183	21850
862.315	21808
862.447	21884
862.58	21922
862.712	21641
862.844	21610
862.976	21694
863.108	21641
863.24	22002
863.372	21709
863.504	21614
863.636	21667
863.768	21739
863.9	21629
864.032	21667
864.164	21595
864.296	21656
864.428	21835
864.559	21595
864.691	21747
864.823	21538
864.954	21610
865.086	21564
865.217	21591
865.349	21313
865.48	21587
865.612	21496
865.743	21545
865.875	21629
866.006	21519
866.137	21538
866.269	21431
866.4	21466
866.531	21515
866.662	21374
866.793	21462
866.924	21500
867.055	21416
867.186	21644
867.317	21458
867.448	21252
867.579	21374
867.71	21306
867.841	21329
867.972	21500
868.103	21405
868.233	21450
868.364	21351
868.495	21515
868.625	21709
868.756	21869
868.886	21610
869.017	21690
869.147	21705
869.278	21857
869.408	21713
869.539	21667
869.669	21857
869.799	21682
869.929	21755
870.06	21835
870.19	22006
870.32	21941
870.45	22036
870.58	22048
870.71	22200
870.84	22154
870.97	22150
871.1	22029
871.23	22356
871.36	22268
871.489	22196
871.619	22143
871.749	22261
871.879	22367
872.008	22325
872.138	22253
872.267	22249
872.397	22124
872.526	22128
872.656	22074
872.785	22074
872.915	22318
873.044	22394
873.173	22390
873.303	22333
873.432	22276
873.561	22314
873.69	22265
873.819	22276
873.948	22440
874.077	22363
874.206	22375
874.335	22375
874.464	22386
874.593	22519
874.722	22440
874.851	22443
874.979	22603
875.108	22812
875.237	22531
875.365	22379
875.494	22478
875.623	22626
875.751	22440
875.88	22546
876.008	22702
876.136	22653
876.265	22934
876.393	23193
876.521	22892
876.65	23003
876.778	22968
876.906	22820
877.034	22820
877.162	22911
877.29	22778
877.418	22892
877.546	22824
877.674	22854
877.802	22892
877.93	23018
878.058	22839
878.185	22812
878.313	22854
878.441	22824
878.568	22630
878.696	22782
878.824	22858
878.951	22946
879.079	23189
879.206	23220
879.333	23018
879.461	22938
879.588	22927
879.715	23075
879.842	23079
879.97	23003
880.097	22721
880.224	22656
880.351	22653
880.478	22736
880.605	22683
880.732	22740
880.859	22843
880.986	22653
881.112	22812
881.239	22626
881.366	22329
881.493	22329
881.619	22337
881.746	22310
881.872	22124
881.999	22382
882.125	22196
882.252	22344
882.378	22219
882.505	22223
882.631	22128
882.757	22032
882.883	22067
883.01	22021
883.136	21941
883.262	21789
883.388	21865
883.514	21861
883.64	21907
883.766	21747
883.892	21766
884.018	21911
884.143	21838
884.269	21968
884.395	21679
884.52	21694
884.646	21614
884.772	21507
884.897	21450
885.023	21519
885.148	21561
885.274	21637
885.399	21606
885.524	21538
885.65	21610
885.775	21469
885.9	21523
886.025	21774
886.15	21641
886.275	21564
886.4	21481
886.525	21549
886.65	21393
886.775	21511
886.9	21690
887.025	21842
887.149	21610
887.274	21401
887.399	21226
887.523	21336
887.648	21275
887.773	21036
887.897	21466
888.021	21454
888.146	21188
888.27	21321
888.395	21443
888.519	21351
888.643	21412
888.767	21348
888.891	21241
889.015	21146
889.139	21195
889.263	21180
889.387	21241
889.511	21230
889.635	21298
889.759	21135
889.883	21127
890.006	21138
890.13	21169
890.254	20990
890.377	21070
890.501	20895
890.624	20975
890.748	20845
890.871	20880
890.995	20640
891.118	20609
891.241	20705
891.364	20697
891.488	20834
891.611	20735
891.734	20739
891.857	20708
891.98	20785
892.103	20629
892.226	20777
892.349	20511
892.471	20511
892.594	20571
892.717	20552
892.839	20488
892.962	20457
893.085	20629
893.207	20533
893.33	20556
893.452	20602
893.575	20590
893.697	20606
893.819	20716
893.941	20811
894.064	20887
894.186	20602
894.308	20480
894.43	20667
894.552	20674
894.674	20667
894.796	20564
894.918	20469
895.04	20488
895.161	20705
895.283	20644
895.405	20480
895.526	20522
895.648	20511
895.769	20537
895.891	20636
896.012	20648
896.134	20617
896.255	20648
896.376	20629
896.498	20617
896.619	20602
896.74	20530
896.861	20575
896.982	20845
897.103	21013
897.224	20895
897.345	20941
897.466	20686
897.587	20720
897.708	20960
897.828	20819
897.949	20842
898.07	20746
898.19	20716
898.311	20918
898.431	20754
898.552	20807
898.672	20876
898.792	20823
898.913	20815
899.033	20674
899.153	20480
899.273	20530
899.393	20488
899.513	20564
899.633	20423
899.753	20568
899.873	20415
899.993	20533
900.113	20362
900.232	20465
900.352	20366
900.472	20355
900.591	20263
900.711	20457
900.83	20370
900.95	20412
901.069	20465
901.189	20214
901.308	19906
901.427	19837
901.546	19978
901.665	19814
901.784	19993
901.904	19803
902.023	19616
902.141	19597
902.26	19529
902.379	19400
902.498	19476
902.617	19354
902.735	19464
902.854	19392
902.973	19335
903.091	19061
903.21	18916
903.328	19164
903.446	18852
903.565	18939
903.683	18962
903.801	18707
903.919	18837
904.038	18806
904.156	18620
904.274	18673
904.392	18582
904.51	18673
904.627	18589
904.745	18601
904.863	18707
904.981	18540
905.098	18319
905.216	18334
905.334	18281
905.451	18327
905.569	18270
905.686	18338
905.803	18254
905.921	18015
906.038	18186
906.155	18083
906.272	18003
906.389	17904
906.506	17813
906.623	17901
906.74	17771
906.857	17672
906.974	17722
907.091	17920
907.208	17958
907.324	17847
907.441	17813
907.557	17570
907.674	17516
907.79	17425
907.907	17463
908.023	17562
908.139	17611
908.256	17486
908.372	17589
908.488	17383
908.604	17239
908.72	17200
908.836	17220
908.952	17227
909.068	17250
909.184	17383
909.3	17227
909.415	17364
909.531	17364
909.647	17003
909.762	16881
909.878	16999
909.993	16949
910.108	16911
910.224	16854
910.339	16972
910.454	16847
910.57	16793
910.685	16649
910.8	16972
910.915	16877
911.03	16634
911.145	16516
911.259	16436
911.374	16584
911.489	16417
911.604	16421
911.718	16314
911.833	16230
911.947	16211
912.062	16116
912.176	16215
912.291	16261
912.405	16310
912.519	16447
912.633	16508
912.748	16131
912.862	16207
912.976	16162
913.09	16051
913.204	16101
913.318	16116
913.431	16162
913.545	16097
913.659	16131
913.772	15987
913.886	15869
914	15831
914.113	15854
914.226	15960
914.34	15941
914.453	15785
914.566	15865
914.68	15698
914.793	15698
914.906	15564
915.019	15557
915.132	15378
915.245	15443
915.358	15477
915.47	15507
915.583	15439
915.696	15496
915.809	15477
915.921	15694
916.034	15469
916.146	15382
916.259	15336
916.371	15431
916.483	15466
916.595	15382
916.708	15275
916.82	15313
916.932	15237
917.044	15241
917.156	15252
917.268	15161
917.38	15119
917.491	15066
917.603	15218
917.715	15154
917.826	15207
917.938	15017
918.049	14944
918.161	15039
918.272	15275
918.384	15157
918.495	15081
918.606	14990
918.717	14804
918.828	14853
918.939	14902
919.05	14910
919.161	14918
919.272	14743
919.383	14769
919.494	15028
919.604	15036
919.715	14807
919.826	14636
919.936	14773
920.047	14899
920.157	14853
920.267	14952
920.378	14792
920.488	14754
920.598	14967
920.708	15081
920.818	15093
920.928	14883
921.038	15146
921.148	15097
921.258	14792
921.368	14758
921.477	14602
921.587	14552
921.697	14427
921.806	14545
921.916	14313
922.025	14309
922.134	14237
922.244	14149
922.353	14282
922.462	14119
922.571	14008
922.68	13902
922.789	13909
922.898	13788
923.007	13841
923.116	13860
923.224	13795
923.333	13799
923.442	13647
923.55	13655
923.659	13727
923.767	13727
923.876	13563
923.984	13712
924.092	13540
924.201	13544
924.309	13575
924.417	13594
924.525	13476
924.633	13525
924.741	14221
924.849	13316
924.956	13426
925.064	13308
925.172	13266
925.279	13190
925.387	13259
925.494	13225
925.602	13278
925.709	13373
925.816	13137
925.924	13103
926.031	13289
926.138	13206
926.245	13301
926.352	13057
926.459	13171
926.566	13217
926.673	12985
926.779	13004
926.886	12928
926.993	12829
927.099	12810
927.206	12730
927.312	12703
927.419	12738
927.525	12817
927.631	12749
927.737	12654
927.843	12582
927.95	12623
928.056	12612
928.162	12597
928.267	12658
928.373	13316
928.479	12631
928.585	12426
928.69	12418
928.796	12563
928.901	12422
929.007	12266
929.112	12479
929.218	12441
929.323	12395
929.428	12311
929.533	12464
929.638	12262
929.743	12289
929.848	12388
929.953	12163
930.058	12159
930.163	12015
930.267	12038
930.372	12171
930.477	11980
930.581	12235
930.685	12152
930.79	11870
930.894	11893
930.998	11942
931.103	12011
931.207	11611
931.311	11581
931.415	11520
931.519	11258
931.623	11269
