Data from test_V78500241_1678.txt Node
Date: Fri Mar 25 15:53:25 CST 2022
User: usil
Spectrometer: V785-0024
Trigger mode: 0
Integration Time (sec): 4.000000E-1
Scans to average: 1
Nonlinearity correction enabled: false
Boxcar width: 0
Storing dark spectrum: false
XAxis mode: Wavelengths
Number of Pixels in Spectrum: 1024
>>>>>Begin Spectral Data<<<<<
801.071	28109
801.214	28188
801.356	27953
801.499	27762
801.641	27591
801.783	27614
801.926	27743
802.068	27568
802.211	27595
802.353	27625
802.496	27382
802.638	27287
802.78	27279
802.923	27176
803.065	27135
803.208	27275
803.35	27279
803.492	27408
803.635	27462
803.777	27427
803.919	27492
804.061	27781
804.204	27542
804.346	27389
804.488	27492
804.63	27473
804.773	27507
804.915	27511
805.057	27587
805.199	27511
805.341	27614
805.483	27705
805.626	27587
805.768	27473
805.91	27576
806.052	27618
806.194	27599
806.336	27819
806.478	27679
806.62	27557
806.762	27808
806.904	27797
807.046	28086
807.188	28109
807.33	28078
807.472	28097
807.614	28109
807.756	28139
807.898	28048
808.04	27804
808.182	27892
808.324	28063
808.465	28185
808.607	28112
808.749	28272
808.891	28405
809.033	28394
809.174	28421
809.316	28280
809.458	28215
809.6	28295
809.741	28519
809.883	28462
810.025	28546
810.166	28565
810.308	28535
810.45	28615
810.591	28489
810.733	28379
810.875	28310
811.016	28272
811.158	28162
811.299	28405
811.441	28535
811.582	28394
811.724	28440
811.865	28333
812.007	28162
812.148	28211
812.29	28314
812.431	28653
812.573	28691
812.714	28831
812.855	28752
812.997	28835
813.138	29075
813.279	28934
813.421	28797
813.562	28858
813.703	28694
813.845	28447
813.986	28310
814.127	28048
814.268	28166
814.41	28017
814.551	27884
814.692	28105
814.833	27964
814.974	27854
815.115	27972
815.256	27899
815.397	27873
815.539	27728
815.68	27728
815.821	27675
815.962	27819
816.103	27747
816.244	27549
816.385	27717
816.526	27557
816.666	27435
816.807	27332
816.948	27359
817.089	27492
817.23	27351
817.371	27363
817.512	27268
817.653	27378
817.793	27165
817.934	27066
818.075	27427
818.216	27279
818.356	27317
818.497	27176
818.638	27112
818.778	27001
818.919	27135
819.06	27222
819.2	27199
819.341	27291
819.481	27329
819.622	27378
819.762	27599
819.903	27545
820.043	27622
820.184	27462
820.324	27424
820.465	27443
820.605	27374
820.746	27336
820.886	27306
821.026	27382
821.167	27367
821.307	27382
821.447	27207
821.588	27207
821.728	27161
821.868	26925
822.008	26773
822.149	26773
822.289	26849
822.429	26552
822.569	26442
822.709	26419
822.849	26248
822.99	26309
823.13	26221
823.27	26259
823.41	26138
823.55	26062
823.69	26031
823.83	26100
823.97	26001
824.11	25807
824.25	25769
824.389	25917
824.529	25894
824.669	25951
824.809	26035
824.949	25955
825.089	26088
825.228	25993
825.368	25860
825.508	25795
825.648	25746
825.787	25803
825.927	25723
826.067	25765
826.206	25765
826.346	25761
826.485	25731
826.625	25708
826.765	25841
826.904	25795
827.044	25597
827.183	25563
827.323	25392
827.462	25605
827.601	25620
827.741	25643
827.88	25510
828.02	25457
828.159	25506
828.298	25613
828.437	25556
828.577	25472
828.716	25681
828.855	25422
828.994	25274
829.134	25255
829.273	25251
829.412	25053
829.551	25129
829.69	25240
829.829	25304
829.968	25152
830.107	25236
830.246	25126
830.385	25221
830.524	25198
830.663	25031
830.802	24916
830.941	24833
831.08	24604
831.219	24939
831.357	24779
831.496	24924
831.635	24768
831.774	24700
831.913	24551
832.051	24532
832.19	24372
832.329	24566
832.467	24429
832.606	24410
832.744	24517
832.883	24494
833.022	24380
833.16	24471
833.299	24494
833.437	24525
833.576	24559
833.714	24517
833.852	24574
833.991	24498
834.129	24555
834.267	24509
834.406	24433
834.544	24566
834.682	24479
834.821	24528
834.959	24585
835.097	24456
835.235	24551
835.373	24391
835.511	24467
835.65	24422
835.788	24357
835.926	24304
836.064	24087
836.202	24133
836.34	24281
836.478	24342
836.615	24266
836.753	24395
836.891	24433
837.029	24418
837.167	24300
837.305	24224
837.443	24372
837.58	24155
837.718	24281
837.856	24216
837.993	24209
838.131	24224
838.269	24064
838.406	24148
838.544	23984
838.681	23855
838.819	23893
838.956	23581
839.094	23623
839.231	23760
839.369	23767
839.506	24011
839.643	23908
839.781	23653
839.918	23539
840.055	23623
840.193	23570
840.33	23562
840.467	23665
840.604	23581
840.742	23764
840.879	23459
841.016	23486
841.153	23356
841.29	23649
841.427	23570
841.564	23695
841.701	23482
841.838	23463
841.975	23406
842.112	23566
842.249	23459
842.385	23299
842.522	23493
842.659	23334
842.796	23364
842.933	23486
843.069	23204
843.206	23303
843.343	23395
843.479	23486
843.616	23318
843.752	23060
843.889	23025
844.025	23299
844.162	23102
844.298	23181
844.435	23109
844.571	23090
844.708	23094
844.844	23170
844.98	23143
845.117	23162
845.253	23025
845.389	22934
845.525	23018
845.661	22854
845.798	22843
845.934	22847
846.07	22828
846.206	22812
846.342	23022
846.478	22805
846.614	22550
846.75	22493
846.886	22413
847.022	22694
847.158	22470
847.294	22622
847.429	22584
847.565	22542
847.701	22892
847.837	22284
847.972	22360
848.108	22428
848.244	22322
848.379	22139
848.515	22158
848.65	22032
848.786	22162
848.921	22169
849.057	22234
849.192	22211
849.328	22105
849.463	22067
849.598	22135
849.734	21979
849.869	21979
850.004	21873
850.14	21918
850.275	21922
850.41	21831
850.545	21755
850.68	21861
850.815	21945
850.95	21854
851.085	21983
851.22	22029
851.355	21991
851.49	21892
851.625	21812
851.76	21876
851.895	21857
852.03	21781
852.165	21918
852.299	21778
852.434	22002
852.569	21953
852.703	21892
852.838	21972
852.973	21968
853.107	21991
853.242	21876
853.376	21720
853.511	21694
853.645	21705
853.78	21850
853.914	21808
854.048	21797
854.183	21694
854.317	21827
854.451	21903
854.585	21633
854.72	21804
854.854	21816
854.988	21762
855.122	21675
855.256	21701
855.39	21785
855.524	21816
855.658	21736
855.792	21755
855.926	21698
856.06	21800
856.194	21789
856.327	21618
856.461	21644
856.595	21637
856.729	21660
856.862	21831
856.996	21785
857.13	21892
857.263	21873
857.397	21819
857.53	21800
857.664	21793
857.797	21804
857.931	21941
858.064	21873
858.197	21850
858.331	21724
858.464	21671
858.597	21572
858.731	21698
858.864	21682
858.997	21682
859.13	21759
859.263	21751
859.396	21884
859.529	21785
859.662	21679
859.795	21732
859.928	21755
860.061	21804
860.194	21964
860.327	21743
860.46	21800
860.592	21800
860.725	21979
860.858	21797
860.99	21873
861.123	21610
861.256	21736
861.388	21656
861.521	22447
861.653	21599
861.786	21458
861.918	21568
862.05	21629
862.183	21724
862.315	21663
862.447	21816
862.58	21736
862.712	21408
862.844	21389
862.976	21530
863.108	21580
863.24	22032
863.372	21344
863.504	21450
863.636	21458
863.768	21500
863.9	21473
864.032	21378
864.164	21408
864.296	21439
864.428	21481
864.559	21275
864.691	21447
864.823	21393
864.954	21321
865.086	21428
865.217	21386
865.349	21291
865.48	21344
865.612	21298
865.743	21523
865.875	21363
866.006	21313
866.137	21332
866.269	21245
866.4	21351
866.531	21233
866.662	21298
866.793	21252
866.924	21348
867.055	21222
867.186	21184
867.317	21264
867.448	21089
867.579	21154
867.71	21161
867.841	21138
867.972	21256
868.103	21218
868.233	21336
868.364	21272
868.495	21367
868.625	21549
868.756	21591
868.886	21428
869.017	21469
869.147	21568
869.278	21618
869.408	21462
869.539	21530
869.669	21553
869.799	21637
869.929	21595
870.06	21652
870.19	21888
870.32	21732
870.45	21876
870.58	21903
870.71	22124
870.84	21987
870.97	22036
871.1	21888
871.23	21979
871.36	22109
871.489	22101
871.619	22139
871.749	22055
871.879	22116
872.008	22211
872.138	22059
872.267	22002
872.397	22059
872.526	22070
872.656	22036
872.785	21930
872.915	22101
873.044	22154
873.173	22086
873.303	22230
873.432	22169
873.561	22257
873.69	22181
873.819	21987
873.948	22253
874.077	22150
874.206	22070
874.335	22192
874.464	22177
874.593	22257
874.722	22394
874.851	22455
874.979	22310
875.108	22375
875.237	22329
875.365	22246
875.494	22291
875.623	22398
875.751	22428
875.88	22356
876.008	22554
876.136	22474
876.265	22801
876.393	22946
876.521	22782
876.65	22759
876.778	22725
876.906	22679
877.034	22759
877.162	22645
877.29	22504
877.418	22736
877.546	22626
877.674	22668
877.802	22694
877.93	22645
878.058	22664
878.185	22630
878.313	22637
878.441	22774
878.568	22447
878.696	22603
878.824	22538
878.951	22889
879.079	22850
879.206	23033
879.333	22824
879.461	22713
879.588	22740
879.715	22927
879.842	22892
879.97	22691
880.097	22550
880.224	22592
880.351	22615
880.478	22436
880.605	22310
880.732	22546
880.859	22733
880.986	22542
881.112	22493
881.239	22417
881.366	22215
881.493	22188
881.619	22131
881.746	22067
881.872	22055
881.999	21880
882.125	22002
882.252	22204
882.378	22116
882.505	22185
882.631	21895
882.757	21838
882.883	21778
883.01	21819
883.136	21759
883.262	21591
883.388	21587
883.514	21766
883.64	21751
883.766	21808
883.892	21576
884.018	21538
884.143	21762
884.269	21812
884.395	21458
884.52	21359
884.646	21469
884.772	21420
884.897	21298
885.023	21393
885.148	21545
885.274	21530
885.399	21545
885.524	21420
885.65	21401
885.775	21500
885.9	21374
886.025	21428
886.15	21523
886.275	21355
886.4	21291
886.525	21420
886.65	21332
886.775	21306
886.9	21580
887.025	21625
887.149	21401
887.274	21188
887.399	21161
887.523	21222
887.648	21192
887.773	21066
887.897	21249
888.021	21275
888.146	21028
888.27	21161
888.395	21222
888.519	21218
888.643	21272
888.767	21321
888.891	21142
889.015	21032
889.139	20986
889.263	21020
889.387	21074
889.511	21116
889.635	21218
889.759	20906
889.883	20853
890.006	20902
890.13	20994
890.254	20971
890.377	20994
890.501	20781
890.624	20644
890.748	20796
890.871	20686
890.995	20632
891.118	20518
891.241	20537
891.364	20560
891.488	20731
891.611	20609
891.734	20686
891.857	20655
891.98	20465
892.103	20636
892.226	20530
892.349	20511
892.471	20282
892.594	20389
892.717	20511
892.839	20324
892.962	20488
893.085	20556
893.207	20488
893.33	20347
893.452	20271
893.575	20484
893.697	20339
893.819	20575
893.941	20659
894.064	20636
894.186	20389
894.308	20225
894.43	20556
894.552	20533
894.674	20590
894.796	20358
894.918	20370
895.04	20454
895.161	20476
895.283	20507
895.405	20271
895.526	20377
895.648	20358
895.769	20480
895.891	20461
896.012	20522
896.134	20526
896.255	20336
896.376	20419
896.498	20415
896.619	20400
896.74	20457
896.861	20495
896.982	20845
897.103	20739
897.224	20678
897.345	20533
897.466	20674
897.587	20636
897.708	20804
897.828	20720
897.949	20617
898.07	20522
898.19	20568
898.311	20693
898.431	20632
898.552	20651
898.672	20712
898.792	20716
898.913	20678
899.033	20552
899.153	20503
899.273	20419
899.393	20423
899.513	20393
899.633	20358
899.753	20328
899.873	20385
899.993	20404
900.113	20248
900.232	20366
900.352	20339
900.472	20305
900.591	20103
900.711	20210
900.83	20130
900.95	20263
901.069	20153
901.189	20046
901.308	19898
901.427	19731
901.546	19769
901.665	19769
901.784	19712
901.904	19628
902.023	19624
902.141	19415
902.26	19327
902.379	19358
902.498	19247
902.617	19171
902.735	19255
902.854	19171
902.973	19274
903.091	18996
903.21	19065
903.328	18886
903.446	18776
903.565	18760
903.683	18730
903.801	18498
903.919	18623
904.038	18665
904.156	18452
904.274	18589
904.392	18448
904.51	18563
904.627	18403
904.745	18540
904.863	18536
904.981	18300
905.098	18224
905.216	18152
905.334	18247
905.451	18220
905.569	18079
905.686	18228
905.803	18197
905.921	17912
906.038	18022
906.155	17980
906.272	17893
906.389	17779
906.506	17707
906.623	17779
906.74	17646
906.857	17570
906.974	17566
907.091	17634
907.208	17786
907.324	17714
907.441	17649
907.557	17349
907.674	17360
907.79	17493
907.907	17402
908.023	17360
908.139	17368
908.256	17322
908.372	17341
908.488	17193
908.604	17170
908.72	17174
908.836	17098
908.952	17132
909.068	17121
909.184	17220
909.3	17083
909.415	17121
909.531	17067
909.647	16942
909.762	16858
909.878	16805
909.993	16850
910.108	16850
910.224	16835
910.339	16809
910.454	16653
910.57	16580
910.685	16630
910.8	16828
910.915	16713
911.03	16683
911.145	16489
911.259	16394
911.374	16504
911.489	16360
911.604	16185
911.718	16135
911.833	16242
911.947	16036
912.062	15899
912.176	16253
912.291	16078
912.405	16101
912.519	16299
912.633	16280
912.748	16242
912.862	16154
912.976	15979
913.09	15774
913.204	16051
913.318	15857
913.431	15956
913.545	16002
913.659	16048
913.772	15911
913.886	15797
914	15705
914.113	15869
914.226	15857
914.34	15770
914.453	15679
914.566	15797
914.68	15549
914.793	15538
914.906	15420
915.019	15428
915.132	15264
915.245	15359
915.358	15367
915.47	15291
915.583	15294
915.696	15454
915.809	15587
915.921	15458
916.034	15245
916.146	15306
916.259	15302
916.371	15351
916.483	15321
916.595	15222
916.708	15283
916.82	15226
916.932	15123
917.044	15214
917.156	15077
917.268	15043
917.38	15070
917.491	14979
917.603	14990
917.715	15039
917.826	15085
917.938	14952
918.049	14842
918.161	14956
918.272	15009
918.384	15024
918.495	14906
918.606	14800
918.717	14739
918.828	14674
918.939	14777
919.05	14625
919.161	14731
919.272	14651
919.383	14556
919.494	14819
919.604	14921
919.715	14674
919.826	14670
919.936	14754
920.047	14807
920.157	14792
920.267	14872
920.378	14701
920.488	14583
920.598	14746
920.708	14979
920.818	14746
920.928	14849
921.038	14975
921.148	14899
921.258	14625
921.368	14556
921.477	14461
921.587	14473
921.697	14298
921.806	14511
921.916	14370
922.025	14096
922.134	14138
922.244	14043
922.353	14103
922.462	14069
922.571	13894
922.68	13772
922.789	13738
922.898	13799
923.007	13681
923.116	13757
923.224	13693
923.333	13624
923.442	13613
923.55	13613
923.659	13597
923.767	13601
923.876	13514
923.984	13571
924.092	13415
924.201	13445
924.309	13476
924.417	13457
924.525	13460
924.633	13480
924.741	14161
924.849	13175
924.956	13350
925.064	13133
925.172	13031
925.279	13015
925.387	13141
925.494	13141
925.602	13232
925.709	13221
925.816	13065
925.924	13057
926.031	13095
926.138	13084
926.245	13187
926.352	13012
926.459	13118
926.566	13149
926.673	12932
926.779	12810
926.886	12909
926.993	12768
927.099	12772
927.206	12745
927.312	12620
927.419	12726
927.525	12631
927.631	12662
927.737	12536
927.843	12540
927.95	12441
928.056	12437
928.162	12627
928.267	12566
928.373	13164
928.479	12604
928.585	12315
928.69	12456
928.796	12551
928.901	12426
929.007	12258
929.112	12403
929.218	12330
929.323	12300
929.428	12197
929.533	12426
929.638	12121
929.743	12167
929.848	12277
929.953	12167
930.058	12182
930.163	11920
930.267	11897
930.372	12045
930.477	11779
930.581	12148
930.685	11942
930.79	11809
930.894	11859
930.998	11756
931.103	11908
931.207	11592
931.311	11448
931.415	11429
931.519	11090
931.623	11174
