Data from test_V78500241_3349.txt Node
Date: Fri Mar 25 16:05:00 CST 2022
User: usil
Spectrometer: V785-0024
Trigger mode: 0
Integration Time (sec): 4.000000E-1
Scans to average: 1
Nonlinearity correction enabled: false
Boxcar width: 0
Storing dark spectrum: false
XAxis mode: Wavelengths
Number of Pixels in Spectrum: 1024
>>>>>Begin Spectral Data<<<<<
801.071	28694
801.214	28698
801.356	28329
801.499	28333
801.641	28223
801.783	28344
801.926	28356
802.068	28329
802.211	28242
802.353	28375
802.496	27983
802.638	28093
802.78	28048
802.923	28055
803.065	27972
803.208	28036
803.35	28097
803.492	28128
803.635	28082
803.777	28120
803.919	28253
804.061	28599
804.204	28207
804.346	28230
804.488	28173
804.63	28223
804.773	28169
804.915	28291
805.057	28341
805.199	28219
805.341	28276
805.483	28500
805.626	28401
805.768	28272
805.91	28394
806.052	28371
806.194	28329
806.336	28637
806.478	28360
806.62	28379
806.762	28554
806.904	28691
807.046	29060
807.188	28850
807.33	28885
807.472	28942
807.614	28797
807.756	28790
807.898	28763
808.04	28820
808.182	28713
808.324	28809
808.465	28778
808.607	29044
808.749	29064
808.891	29197
809.033	29212
809.174	29212
809.316	29109
809.458	29231
809.6	29052
809.741	29170
809.883	29318
810.025	29490
810.166	29292
810.308	29516
810.45	29398
810.591	29345
810.733	29170
810.875	29140
811.016	29025
811.158	29044
811.299	29174
811.441	29296
811.582	29375
811.724	29185
811.865	29105
812.007	29079
812.148	29155
812.29	29113
812.431	29330
812.573	29543
812.714	29512
812.855	29600
812.997	29779
813.138	29836
813.279	29726
813.421	29627
813.562	29436
813.703	29372
813.845	29296
813.986	29147
814.127	28888
814.268	28946
814.41	28698
814.551	28828
814.692	29003
814.833	28778
814.974	28710
815.115	28649
815.256	28656
815.397	28603
815.539	28729
815.68	28634
815.821	28512
815.962	28645
816.103	28733
816.244	28523
816.385	28367
816.526	28329
816.666	28196
816.807	28154
816.948	28337
817.089	28253
817.23	28204
817.371	28158
817.512	28032
817.653	28112
817.793	28074
817.934	28162
818.075	28135
818.216	28070
818.356	28074
818.497	28017
818.638	27907
818.778	27876
818.919	27907
819.06	28032
819.2	28082
819.341	28169
819.481	28131
819.622	28295
819.762	28379
819.903	28337
820.043	28371
820.184	28207
820.324	28158
820.465	28436
820.605	28341
820.746	28249
820.886	28101
821.026	28238
821.167	28223
821.307	28329
821.447	28177
821.588	28025
821.728	28055
821.868	27865
822.008	27614
822.149	27652
822.289	27622
822.429	27466
822.569	27363
822.709	27272
822.849	26963
822.99	27233
823.13	27169
823.27	27116
823.41	26963
823.55	26849
823.69	26971
823.83	26990
823.97	27047
824.11	26815
824.25	26838
824.389	26712
824.529	26944
824.669	26746
824.809	26861
824.949	26838
825.089	26861
825.228	26967
825.368	26617
825.508	26575
825.648	26785
825.787	26758
825.927	26739
826.067	26590
826.206	26617
826.346	26663
826.485	26613
826.625	26670
826.765	26914
826.904	26864
827.044	26492
827.183	26465
827.323	26480
827.462	26507
827.601	26511
827.741	26408
827.88	26457
828.02	26218
828.159	26320
828.298	26495
828.437	26530
828.577	26301
828.716	26488
828.855	26438
828.994	26096
829.134	26142
829.273	26081
829.412	26069
829.551	26157
829.69	26058
829.829	26027
829.968	26142
830.107	26122
830.246	26119
830.385	26001
830.524	25890
830.663	25826
830.802	25772
830.941	25689
831.08	25655
831.219	25807
831.357	25696
831.496	25909
831.635	25753
831.774	25586
831.913	25571
832.051	25476
832.19	25419
832.329	25445
832.467	25449
832.606	25289
832.744	25225
832.883	25202
833.022	25232
833.16	25396
833.299	25343
833.437	25362
833.576	25567
833.714	25464
833.852	25521
833.991	25445
834.129	25540
834.267	25438
834.406	25479
834.544	25407
834.682	25335
834.821	25316
834.959	25578
835.097	25240
835.235	25419
835.373	25472
835.511	25373
835.65	25331
835.788	25407
835.926	25171
836.064	25057
836.202	25141
836.34	25232
836.478	25384
836.615	25278
836.753	25263
836.891	25312
837.029	25160
837.167	25114
837.305	25175
837.443	25190
837.58	25046
837.718	25225
837.856	25114
837.993	24985
838.131	25042
838.269	24897
838.406	24943
838.544	24894
838.681	24730
838.819	24715
838.956	24490
839.094	24536
839.231	24544
839.369	24722
839.506	24958
839.643	24924
839.781	24532
839.918	24376
840.055	24631
840.193	24582
840.33	24437
840.467	24505
840.604	24509
840.742	24783
840.879	24475
841.016	24357
841.153	24334
841.29	24570
841.427	24498
841.564	24353
841.701	24426
841.838	24464
841.975	24369
842.112	24338
842.249	24243
842.385	24163
842.522	24494
842.659	24224
842.796	24273
842.933	24304
843.069	24098
843.206	24163
843.343	24060
843.479	24247
843.616	24114
843.752	24022
843.889	24018
844.025	24251
844.162	23958
844.298	24079
844.435	23969
844.571	24034
844.708	23931
844.844	24133
844.98	24098
845.117	24053
845.253	23950
845.389	23771
845.525	23859
845.661	23859
845.798	23661
845.934	23832
846.07	23817
846.206	23805
846.342	23893
846.478	23596
846.614	23505
846.75	23311
846.886	23421
847.022	23467
847.158	23425
847.294	23463
847.429	23543
847.565	23372
847.701	23695
847.837	23174
847.972	23102
848.108	23288
848.244	23250
848.379	23029
848.515	23006
848.65	22923
848.786	23029
848.921	23029
849.057	22995
849.192	23124
849.328	22987
849.463	23083
849.598	22946
849.734	22862
849.869	22866
850.004	22744
850.14	22767
850.275	22866
850.41	22603
850.545	22664
850.68	22733
850.815	22839
850.95	22668
851.085	23003
851.22	22850
851.355	22850
851.49	22752
851.625	22797
851.76	22801
851.895	22740
852.03	22626
852.165	22805
852.299	22835
852.434	22828
852.569	22786
852.703	22763
852.838	22923
852.973	22839
853.107	22877
853.242	22721
853.376	22683
853.511	22519
853.645	22588
853.78	22733
853.914	22569
854.048	22550
854.183	22519
854.317	22736
854.451	22866
854.585	22683
854.72	22592
854.854	22710
854.988	22489
855.122	22573
855.256	22523
855.39	22645
855.524	22580
855.658	22675
855.792	22554
855.926	22573
856.06	22615
856.194	22660
856.327	22481
856.461	22519
856.595	22577
856.729	22626
856.862	22660
856.996	22557
857.13	22592
857.263	22702
857.397	22561
857.53	22550
857.664	22622
857.797	22759
857.931	22721
858.064	22554
858.197	22645
858.331	22588
858.464	22489
858.597	22447
858.731	22615
858.864	22523
858.997	22565
859.13	22683
859.263	22569
859.396	22645
859.529	22565
859.662	22493
859.795	22611
859.928	22615
860.061	22721
860.194	22797
860.327	22725
860.46	22752
860.592	22866
860.725	22828
860.858	22736
860.99	22702
861.123	22519
861.256	22542
861.388	22478
861.521	23235
861.653	22542
861.786	22424
861.918	22367
862.05	22630
862.183	22443
862.315	22500
862.447	22535
862.58	22535
862.712	22379
862.844	22409
862.976	22363
863.108	22379
863.24	22721
863.372	22234
863.504	22363
863.636	22303
863.768	22390
863.9	22306
864.032	22356
864.164	22303
864.296	22234
864.428	22390
864.559	22398
864.691	22291
864.823	22261
864.954	22360
865.086	22299
865.217	22204
865.349	22074
865.48	22215
865.612	22139
865.743	22204
865.875	22276
866.006	22112
866.137	22185
866.269	22169
866.4	22128
866.531	22154
866.662	22074
866.793	22131
866.924	22223
867.055	22063
867.186	22196
867.317	22158
867.448	22044
867.579	22078
867.71	22059
867.841	22082
867.972	21930
868.103	22124
868.233	21991
868.364	22303
868.495	22287
868.625	22223
868.756	22440
868.886	22150
869.017	22318
869.147	22299
869.278	22497
869.408	22371
869.539	22249
869.669	22398
869.799	22424
869.929	22550
870.06	22474
870.19	22786
870.32	22725
870.45	22710
870.58	22744
870.71	22889
870.84	22934
870.97	22702
871.1	22710
871.23	22881
871.36	22923
871.489	22812
871.619	22873
871.749	22999
871.879	22942
872.008	23121
872.138	22938
872.267	22911
872.397	22835
872.526	22835
872.656	22805
872.785	22790
872.915	22942
873.044	23018
873.173	22904
873.303	22919
873.432	23025
873.561	22942
873.69	23121
873.819	22873
873.948	23033
874.077	22938
874.206	22892
874.335	23113
874.464	22995
874.593	23235
874.722	23170
874.851	23250
874.979	23258
875.108	23204
875.237	23155
875.365	23162
875.494	23231
875.623	23223
875.751	23155
875.88	23181
876.008	23261
876.136	23429
876.265	23600
876.393	23627
876.521	23684
876.65	23726
876.778	23596
876.906	23512
877.034	23547
877.162	23589
877.29	23448
877.418	23509
877.546	23573
877.674	23543
877.802	23505
877.93	23429
878.058	23379
878.185	23474
878.313	23543
878.441	23531
878.568	23414
878.696	23455
878.824	23543
878.951	23509
879.079	23695
879.206	23798
879.333	23680
879.461	23710
879.588	23558
879.715	23627
879.842	23745
879.97	23672
880.097	23368
880.224	23406
880.351	23398
880.478	23334
880.605	23277
880.732	23318
880.859	23634
880.986	23376
881.112	23242
881.239	23197
881.366	23147
881.493	22946
881.619	23044
881.746	22877
881.872	23041
881.999	22866
882.125	22801
882.252	23117
882.378	22805
882.505	23033
882.631	22816
882.757	22687
882.883	22607
883.01	22615
883.136	22729
883.262	22409
883.388	22356
883.514	22653
883.64	22588
883.766	22531
883.892	22295
884.018	22356
884.143	22519
884.269	22531
884.395	22284
884.52	22284
884.646	22223
884.772	22128
884.897	22150
885.023	22188
885.148	22379
885.274	22310
885.399	22188
885.524	22272
885.65	22226
885.775	22120
885.9	22124
886.025	22276
886.15	22188
886.275	22101
886.4	22143
886.525	22147
886.65	22059
886.775	22116
886.9	22234
887.025	22310
887.149	22181
887.274	22013
887.399	22006
887.523	21934
887.648	21876
887.773	21850
887.897	21937
888.021	21857
888.146	21937
888.27	22120
888.395	22082
888.519	21964
888.643	22002
888.767	21968
888.891	21816
889.015	21781
889.139	21766
889.263	21759
889.387	21930
889.511	22036
889.635	21850
889.759	21633
889.883	21797
890.006	21789
890.13	21785
890.254	21534
890.377	21724
890.501	21424
890.624	21511
890.748	21443
890.871	21405
890.995	21287
891.118	21279
891.241	21393
891.364	21325
891.488	21389
891.611	21245
891.734	21397
891.857	21374
891.98	21298
892.103	21348
892.226	21348
892.349	21317
892.471	21013
892.594	21157
892.717	21192
892.839	21207
892.962	21211
893.085	21291
893.207	21116
893.33	20979
893.452	21066
893.575	21184
893.697	21093
893.819	21344
893.941	21294
894.064	21207
894.186	21180
894.308	21036
894.43	21233
894.552	21302
894.674	21325
894.796	21043
894.918	21154
895.04	21028
895.161	21279
895.283	21203
895.405	21150
895.526	21104
895.648	21127
895.769	21180
895.891	21165
896.012	21294
896.134	21214
896.255	21256
896.376	21085
896.498	21230
896.619	21203
896.74	21169
896.861	21233
896.982	21462
897.103	21667
897.224	21340
897.345	21310
897.466	21275
897.587	21336
897.708	21481
897.828	21355
897.949	21230
898.07	21260
898.19	21260
898.311	21382
898.431	21237
898.552	21367
898.672	21405
898.792	21408
898.913	21363
899.033	21218
899.153	21123
899.273	20963
899.393	21036
899.513	21066
899.633	21112
899.753	21055
899.873	20921
899.993	21119
900.113	20982
900.232	21108
900.352	21013
900.472	20986
900.591	20876
900.711	20891
900.83	20830
900.95	20899
901.069	20941
901.189	20712
901.308	20511
901.427	20480
901.546	20400
901.665	20385
901.784	20446
901.904	20332
902.023	20275
902.141	19944
902.26	20031
902.379	19978
902.498	19837
902.617	19967
902.735	20016
902.854	19989
902.973	19837
903.091	19518
903.21	19639
903.328	19601
903.446	19483
903.565	19445
903.683	19480
903.801	19381
903.919	19346
904.038	19320
904.156	19240
904.274	19316
904.392	19046
904.51	19110
904.627	19148
904.745	19221
904.863	19069
904.981	18939
905.098	18806
905.216	18882
905.334	18848
905.451	18932
905.569	18810
905.686	18852
905.803	18787
905.921	18650
906.038	18673
906.155	18616
906.272	18448
906.389	18464
906.506	18258
906.623	18429
906.74	18270
906.857	18133
906.974	18235
907.091	18319
907.208	18357
907.324	18399
907.441	18243
907.557	18098
907.674	18083
907.79	18019
907.907	17961
908.023	17882
908.139	18102
908.256	17973
908.372	17958
908.488	17935
908.604	17783
908.72	17707
908.836	17722
908.952	17707
909.068	17771
909.184	17817
909.3	17752
909.415	17741
909.531	17741
909.647	17501
909.762	17398
909.878	17379
909.993	17436
910.108	17383
910.224	17356
910.339	17417
910.454	17410
910.57	17223
910.685	17212
910.8	17459
910.915	17410
911.03	17265
911.145	17083
911.259	17094
911.374	16957
911.489	16991
911.604	16972
911.718	16774
911.833	16733
911.947	16603
912.062	16634
912.176	16793
912.291	16809
912.405	16706
912.519	16942
912.633	16873
912.748	16634
912.862	16675
912.976	16580
913.09	16580
913.204	16538
913.318	16588
913.431	16645
913.545	16710
913.659	16656
913.772	16542
913.886	16535
914	16424
914.113	16352
914.226	16508
914.34	16398
914.453	16215
914.566	16375
914.68	16253
914.793	16196
914.906	16040
915.019	15953
915.132	15880
915.245	15838
915.358	15945
915.47	15876
915.583	15987
915.696	16044
915.809	16086
915.921	16067
916.034	15930
916.146	15819
916.259	15857
916.371	15892
916.483	15774
916.595	15701
916.708	15838
916.82	15865
916.932	15698
917.044	15675
917.156	15675
917.268	15648
917.38	15625
917.491	15561
917.603	15545
917.715	15679
917.826	15690
917.938	15473
918.049	15291
918.161	15644
918.272	15591
918.384	15580
918.495	15549
918.606	15264
918.717	15256
918.828	15287
918.939	15374
919.05	15344
919.161	15272
919.272	15104
919.383	15070
919.494	15332
919.604	15443
919.715	15340
919.826	15203
919.936	15173
920.047	15272
920.157	15272
920.267	15507
920.378	15329
920.488	15256
920.598	15420
920.708	15500
920.818	15389
920.928	15310
921.038	15515
921.148	15526
921.258	15188
921.368	15100
921.477	14952
921.587	14887
921.697	14929
921.806	14971
921.916	14811
922.025	14739
922.134	14629
922.244	14629
922.353	14644
922.462	14522
922.571	14434
922.68	14351
922.789	14195
922.898	14263
923.007	14187
923.116	14271
923.224	14320
923.333	14221
923.442	14081
923.55	14096
923.659	14111
923.767	14081
923.876	14039
923.984	14138
924.092	13989
924.201	14016
924.309	13932
924.417	13986
924.525	13807
924.633	13932
924.741	14807
924.849	13613
924.956	13757
925.064	13670
925.172	13639
925.279	13601
925.387	13655
925.494	13578
925.602	13765
925.709	13616
925.816	13594
925.924	13628
926.031	13628
926.138	13556
926.245	13677
926.352	13483
926.459	13624
926.566	13616
926.673	13559
926.779	13422
926.886	13293
926.993	13171
927.099	13202
927.206	13095
927.312	13095
927.419	13187
927.525	13175
927.631	13171
927.737	13050
927.843	13019
927.95	12916
928.056	12905
928.162	12977
928.267	13023
928.373	13552
928.479	13046
928.585	12875
928.69	12924
928.796	12890
928.901	12806
929.007	12707
929.112	12829
929.218	12692
929.323	12696
929.428	12703
929.533	12829
929.638	12627
929.743	12578
929.848	12620
929.953	12642
930.058	12483
930.163	12410
930.267	12319
930.372	12460
930.477	12266
930.581	12604
930.685	12357
930.79	12220
930.894	12311
930.998	12167
931.103	12433
931.207	11992
931.311	11916
931.415	11764
931.519	11592
931.623	11562
