Data from test_V78500241_104.txt Node
Date: Fri Mar 25 15:42:31 CST 2022
User: usil
Spectrometer: V785-0024
Trigger mode: 0
Integration Time (sec): 4.000000E-1
Scans to average: 1
Nonlinearity correction enabled: false
Boxcar width: 0
Storing dark spectrum: false
XAxis mode: Wavelengths
Number of Pixels in Spectrum: 1024
>>>>>Begin Spectral Data<<<<<
801.071	29337
801.214	29395
801.356	29060
801.499	28892
801.641	28748
801.783	28831
801.926	28790
802.068	28782
802.211	28660
802.353	28584
802.496	28382
802.638	28310
802.78	28440
802.923	28341
803.065	28230
803.208	28394
803.35	28394
803.492	28504
803.635	28577
803.777	28318
803.919	28557
804.061	28752
804.204	28535
804.346	28382
804.488	28253
804.63	28443
804.773	28348
804.915	28322
805.057	28413
805.199	28401
805.341	28470
805.483	28527
805.626	28485
805.768	28424
805.91	28504
806.052	28611
806.194	28440
806.336	28599
806.478	28478
806.62	28493
806.762	28584
806.904	28790
807.046	29109
807.188	28915
807.33	28968
807.472	28953
807.614	28793
807.756	28774
807.898	28675
808.04	28634
808.182	28664
808.324	28668
808.465	28839
808.607	28896
808.749	29064
808.891	29178
809.033	29170
809.174	29056
809.316	29006
809.458	29025
809.6	28942
809.741	28968
809.883	29060
810.025	29178
810.166	29170
810.308	29178
810.45	29330
810.591	29212
810.733	28995
810.875	28976
811.016	28953
811.158	28877
811.299	29037
811.441	29273
811.582	29143
811.724	28946
811.865	28980
812.007	28965
812.148	28938
812.29	29033
812.431	29128
812.573	29231
812.714	29258
812.855	29509
812.997	29520
813.138	29695
813.279	29623
813.421	29562
813.562	29448
813.703	29349
813.845	28995
813.986	28790
814.127	28557
814.268	28565
814.41	28519
814.551	28493
814.692	28626
814.833	28470
814.974	28432
815.115	28485
815.256	28481
815.397	28527
815.539	28363
815.68	28253
815.821	28306
815.962	28268
816.103	28234
816.244	28131
816.385	27994
816.526	27983
816.666	27819
816.807	27644
816.948	27736
817.089	27709
817.23	27690
817.371	27713
817.512	27583
817.653	27583
817.793	27564
817.934	27580
818.075	27728
818.216	27625
818.356	27496
818.497	27580
818.638	27340
818.778	27367
818.919	27313
819.06	27344
819.2	27450
819.341	27557
819.481	27622
819.622	27679
819.762	27903
819.903	27857
820.043	27675
820.184	27770
820.324	27519
820.465	27770
820.605	27720
820.746	27618
820.886	27485
821.026	27523
821.167	27530
821.307	27583
821.447	27564
821.588	27443
821.728	27370
821.868	27237
822.008	27161
822.149	26914
822.289	27020
822.429	26796
822.569	26724
822.709	26655
822.849	26453
822.99	26503
823.13	26461
823.27	26400
823.41	26187
823.55	26138
823.69	26366
823.83	26423
823.97	26164
824.11	26073
824.25	25898
824.389	25959
824.529	26050
824.669	25936
824.809	26187
824.949	26100
825.089	26183
825.228	26031
825.368	25860
825.508	25944
825.648	25875
825.787	25864
825.927	25837
826.067	25795
826.206	25742
826.346	25860
826.485	25909
826.625	25864
826.765	26024
826.904	25928
827.044	25712
827.183	25544
827.323	25388
827.462	25575
827.601	25499
827.741	25327
827.88	25521
828.02	25354
828.159	25567
828.298	25441
828.437	25556
828.577	25449
828.716	25529
828.855	25384
828.994	25148
829.134	25122
829.273	25232
829.412	25209
829.551	25019
829.69	25145
829.829	25137
829.968	25110
830.107	25217
830.246	25088
830.385	24985
830.524	25072
830.663	24821
830.802	24840
830.941	24578
831.08	24749
831.219	24753
831.357	24840
831.496	24890
831.635	24722
831.774	24604
831.913	24563
832.051	24357
832.19	24327
832.329	24407
832.467	24300
832.606	24247
832.744	24308
832.883	24353
833.022	24190
833.16	24258
833.299	24380
833.437	24334
833.576	24205
833.714	24346
833.852	24418
833.991	24346
834.129	24376
834.267	24319
834.406	24266
834.544	24346
834.682	24281
834.821	24247
834.959	24475
835.097	24270
835.235	24334
835.373	24308
835.511	24190
835.65	24102
835.788	24136
835.926	24064
836.064	23935
836.202	23984
836.34	24015
836.478	24121
836.615	24072
836.753	24121
836.891	24125
837.029	24197
837.167	23946
837.305	24026
837.443	23950
837.58	23920
837.718	23958
837.856	24045
837.993	23843
838.131	23912
838.269	23809
838.406	23866
838.544	23729
838.681	23471
838.819	23528
838.956	23463
839.094	23459
839.231	23383
839.369	23505
839.506	23691
839.643	23562
839.781	23277
839.918	23174
840.055	23273
840.193	23170
840.33	23311
840.467	23307
840.604	23414
840.742	23448
840.879	23223
841.016	23246
841.153	23166
841.29	23391
841.427	23102
841.564	23277
841.701	23121
841.838	23212
841.975	22995
842.112	23098
842.249	22987
842.385	22858
842.522	23105
842.659	22972
842.796	22987
842.933	22843
843.069	22828
843.206	22839
843.343	22965
843.479	22816
843.616	22820
843.752	22592
843.889	22527
844.025	22721
844.162	22561
844.298	22675
844.435	22687
844.571	22569
844.708	22618
844.844	22782
844.98	22793
845.117	22706
845.253	22542
845.389	22470
845.525	22485
845.661	22459
845.798	22303
845.934	22348
846.07	22409
846.206	22246
846.342	22382
846.478	22238
846.614	22143
846.75	21998
846.886	22059
847.022	22177
847.158	22246
847.294	22063
847.429	22093
847.565	21987
847.701	22348
847.837	21778
847.972	21861
848.108	21781
848.244	21854
848.379	21622
848.515	21591
848.65	21644
848.786	21549
848.921	21587
849.057	21656
849.192	21557
849.328	21561
849.463	21587
849.598	21557
849.734	21530
849.869	21374
850.004	21294
850.14	21260
850.275	21329
850.41	21237
850.545	21306
850.68	21443
850.815	21287
850.95	21256
851.085	21603
851.22	21370
851.355	21329
851.49	21230
851.625	21264
851.76	21173
851.895	21176
852.03	21135
852.165	21298
852.299	21401
852.434	21294
852.569	21294
852.703	21310
852.838	21275
852.973	21393
853.107	21252
853.242	21195
853.376	21173
853.511	21028
853.645	21154
853.78	21207
853.914	21211
854.048	21146
854.183	21009
854.317	21058
854.451	21241
854.585	21058
854.72	20979
854.854	21169
854.988	21028
855.122	21062
855.256	20891
855.39	21135
855.524	21222
855.658	21024
855.792	21020
855.926	21112
856.06	21188
856.194	21226
856.327	21093
856.461	21096
856.595	20979
856.729	21009
856.862	21161
856.996	21093
857.13	21146
857.263	21169
857.397	21237
857.53	20952
857.664	21093
857.797	21135
857.931	21138
858.064	21135
858.197	21184
858.331	21036
858.464	20979
858.597	20937
858.731	20880
858.864	21028
858.997	20990
859.13	21058
859.263	21024
859.396	21043
859.529	21005
859.662	21066
859.795	20941
859.928	21047
860.061	21169
860.194	21119
860.327	20994
860.46	21074
860.592	21066
860.725	21039
860.858	21043
860.99	20937
861.123	21081
861.256	20895
861.388	21047
861.521	21614
861.653	20883
861.786	20849
861.918	20918
862.05	20933
862.183	20925
862.315	21032
862.447	21066
862.58	21085
862.712	20815
862.844	20701
862.976	20937
863.108	20743
863.24	21146
863.372	20651
863.504	20735
863.636	20667
863.768	20758
863.9	20731
864.032	20613
864.164	20674
864.296	20735
864.428	20762
864.559	20739
864.691	20720
864.823	20796
864.954	20678
865.086	20697
865.217	20575
865.349	20511
865.48	20587
865.612	20727
865.743	20781
865.875	20564
866.006	20560
866.137	20552
866.269	20613
866.4	20594
866.531	20571
866.662	20541
866.793	20385
866.924	20579
867.055	20564
867.186	20545
867.317	20503
867.448	20332
867.579	20507
867.71	20366
867.841	20415
867.972	20541
868.103	20438
868.233	20419
868.364	20473
868.495	20712
868.625	20765
868.756	20796
868.886	20571
869.017	20804
869.147	20880
869.278	20796
869.408	20678
869.539	20682
869.669	20788
869.799	20743
869.929	20918
870.06	20868
870.19	21051
870.32	20979
870.45	20963
870.58	21127
870.71	21252
870.84	21291
870.97	21142
871.1	21173
871.23	21302
871.36	21332
871.489	21203
871.619	21378
871.749	21283
871.879	21348
872.008	21523
872.138	21363
872.267	21237
872.397	21233
872.526	21188
872.656	21176
872.785	21252
872.915	21302
873.044	21477
873.173	21397
873.303	21351
873.432	21287
873.561	21416
873.69	21462
873.819	21389
873.948	21622
874.077	21370
874.206	21378
874.335	21386
874.464	21481
874.593	21572
874.722	21618
874.851	21682
874.979	21492
875.108	21736
875.237	21549
875.365	21595
875.494	21504
875.623	21637
875.751	21572
875.88	21660
876.008	21755
876.136	21918
876.265	21968
876.393	22101
876.521	22032
876.65	22051
876.778	22048
876.906	21983
877.034	22002
877.162	21842
877.29	21854
877.418	22063
877.546	21991
877.674	22021
877.802	21911
877.93	21903
878.058	21972
878.185	21732
878.313	21960
878.441	21987
878.568	21895
878.696	21994
878.824	21983
878.951	22055
879.079	22025
879.206	22143
879.333	22124
879.461	21972
879.588	22044
879.715	21941
879.842	22234
879.97	22029
880.097	21743
880.224	21759
880.351	21789
880.478	21728
880.605	21819
880.732	21880
880.859	22093
880.986	21766
881.112	21823
881.239	21637
881.366	21576
881.493	21481
881.619	21420
881.746	21424
881.872	21344
881.999	21325
882.125	21241
882.252	21351
882.378	21302
882.505	21485
882.631	21291
882.757	21157
882.883	21245
883.01	21123
883.136	21157
883.262	20967
883.388	20899
883.514	21211
883.64	21112
883.766	21001
883.892	21005
884.018	20914
884.143	21013
884.269	21173
884.395	20815
884.52	20781
884.646	20796
884.772	20667
884.897	20689
885.023	20754
885.148	20937
885.274	20887
885.399	20823
885.524	20731
885.65	20724
885.775	20655
885.9	20735
886.025	20724
886.15	20758
886.275	20560
886.4	20613
886.525	20674
886.65	20686
886.775	20621
886.9	20651
887.025	20823
887.149	20712
887.274	20549
887.399	20473
887.523	20480
887.648	20473
887.773	20275
887.897	20564
888.021	20617
888.146	20381
888.27	20712
888.395	20522
888.519	20549
888.643	20408
888.767	20427
888.891	20377
889.015	20286
889.139	20385
889.263	20214
889.387	20290
889.511	20465
889.635	20290
889.759	20267
889.883	20164
890.006	20286
890.13	20294
890.254	20180
890.377	20168
890.501	20012
890.624	20001
890.748	20043
890.871	19932
890.995	19807
891.118	19833
891.241	19761
891.364	19913
891.488	19944
891.611	19906
891.734	19803
891.857	19868
891.98	19765
892.103	19944
892.226	19826
892.349	19715
892.471	19651
892.594	19795
892.717	19841
892.839	19890
892.962	19811
893.085	19795
893.207	19704
893.33	19597
893.452	19666
893.575	19818
893.697	19708
893.819	19807
893.941	19883
894.064	19864
894.186	19696
894.308	19734
894.43	19742
894.552	19928
894.674	19947
894.796	19628
894.918	19723
895.04	19712
895.161	19791
895.283	19757
895.405	19715
895.526	19765
895.648	19715
895.769	19765
895.891	19864
896.012	19769
896.134	19807
896.255	19784
896.376	19708
896.498	19731
896.619	19925
896.74	19818
896.861	19833
896.982	20122
897.103	20320
897.224	20149
897.345	19951
897.466	19974
897.587	20020
897.708	20145
897.828	20058
897.949	19997
898.07	19753
898.19	19890
898.311	20069
898.431	19982
898.552	20016
898.672	20058
898.792	19989
898.913	19951
899.033	19845
899.153	19685
899.273	19647
899.393	19658
899.513	19761
899.633	19571
899.753	19696
899.873	19567
899.993	19624
900.113	19586
900.232	19571
900.352	19624
900.472	19537
900.591	19400
900.711	19544
900.83	19491
900.95	19708
901.069	19495
901.189	19460
901.308	19282
901.427	19038
901.546	19156
901.665	19110
901.784	19156
901.904	18920
902.023	18776
902.141	18665
902.26	18627
902.379	18677
902.498	18547
902.617	18452
902.735	18665
902.854	18544
902.973	18429
903.091	18262
903.21	18266
903.328	18163
903.446	18125
903.565	18068
903.683	18114
903.801	17946
903.919	17958
904.038	17996
904.156	17851
904.274	17920
904.392	17767
904.51	17752
904.627	17783
904.745	17714
904.863	17851
904.981	17570
905.098	17482
905.216	17524
905.334	17547
905.451	17478
905.569	17299
905.686	17440
905.803	17436
905.921	17181
906.038	17360
906.155	17307
906.272	17174
906.389	17151
906.506	16877
906.623	17029
906.74	16904
906.857	16809
906.974	16919
907.091	17025
907.208	17045
907.324	17033
907.441	16835
907.557	16752
907.674	16702
907.79	16641
907.907	16672
908.023	16645
908.139	16542
908.256	16660
908.372	16588
908.488	16459
908.604	16382
908.72	16402
908.836	16325
908.952	16265
909.068	16375
909.184	16440
909.3	16356
909.415	16443
909.531	16386
909.647	16082
909.762	16040
909.878	16036
909.993	16040
910.108	15979
910.224	15987
910.339	16059
910.454	15903
910.57	15937
910.685	15785
910.8	16044
910.915	16013
911.03	15778
911.145	15686
911.259	15663
911.374	15682
911.489	15473
911.604	15370
911.718	15408
911.833	15310
911.947	15252
912.062	15222
912.176	15412
912.291	15386
912.405	15450
912.519	15641
912.633	15523
912.748	15317
912.862	15306
912.976	15108
913.09	15097
913.204	15176
913.318	15211
913.431	15226
913.545	15321
913.659	15279
913.772	15089
913.886	15013
914	14933
914.113	15127
914.226	15055
914.34	15093
914.453	14887
914.566	15039
914.68	14899
914.793	14800
914.906	14731
915.019	14621
915.132	14625
915.245	14670
915.358	14507
915.47	14674
915.583	14636
915.696	14716
915.809	14648
915.921	14769
916.034	14533
916.146	14473
916.259	14488
916.371	14716
916.483	14651
916.595	14530
916.708	14427
916.82	14431
916.932	14511
917.044	14446
917.156	14339
917.268	14320
917.38	14362
917.491	14313
917.603	14286
917.715	14339
917.826	14476
917.938	14210
918.049	14069
918.161	14294
918.272	14328
918.384	14313
918.495	14210
918.606	14027
918.717	13944
918.828	14031
918.939	14008
919.05	14012
919.161	14050
919.272	13769
919.383	13826
919.494	14069
919.604	14210
919.715	14050
919.826	13856
919.936	13963
920.047	14073
920.157	13925
920.267	14115
920.378	13959
920.488	14027
920.598	14218
920.708	14282
920.818	14073
920.928	14161
921.038	14259
921.148	14313
921.258	13928
921.368	13734
921.477	13704
921.587	13712
921.697	13590
921.806	13742
921.916	13563
922.025	13449
922.134	13339
922.244	13343
922.353	13396
922.462	13251
922.571	13061
922.68	13019
922.789	13072
922.898	12993
923.007	13000
923.116	13053
923.224	12924
923.333	12985
923.442	12837
923.55	12833
923.659	12825
923.767	12802
923.876	12840
923.984	12798
924.092	12703
924.201	12779
924.309	12719
924.417	12749
924.525	12722
924.633	12662
924.741	13506
924.849	12456
924.956	12582
925.064	12460
925.172	12395
925.279	12426
925.387	12426
925.494	12407
925.602	12578
925.709	12490
925.816	12353
925.924	12483
926.031	12517
926.138	12388
926.245	12437
926.352	12304
926.459	12433
926.566	12460
926.673	12357
926.779	12201
926.886	12228
926.993	12072
927.099	11984
927.206	11973
927.312	12003
927.419	12045
927.525	12068
927.631	12053
927.737	11836
927.843	11923
927.95	11752
928.056	11847
928.162	11882
928.267	11923
928.373	12536
928.479	11984
928.585	11661
928.69	11786
928.796	11874
928.901	11672
929.007	11558
929.112	11748
929.218	11695
929.323	11611
929.428	11570
929.533	11668
929.638	11512
929.743	11490
929.848	11570
929.953	11478
930.058	11368
930.163	11235
930.267	11277
930.372	11417
930.477	11269
930.581	11440
930.685	11334
930.79	11075
930.894	11117
930.998	11151
931.103	11277
931.207	10835
931.311	10831
931.415	10694
931.519	10649
931.623	10504
