Data from test_V78500241_2228.txt Node
Date: Fri Mar 25 15:57:14 CST 2022
User: usil
Spectrometer: V785-0024
Trigger mode: 0
Integration Time (sec): 4.000000E-1
Scans to average: 1
Nonlinearity correction enabled: false
Boxcar width: 0
Storing dark spectrum: false
XAxis mode: Wavelengths
Number of Pixels in Spectrum: 1024
>>>>>Begin Spectral Data<<<<<
801.071	29455
801.214	29193
801.356	28991
801.499	28976
801.641	28809
801.783	28801
801.926	28824
802.068	28778
802.211	28736
802.353	28717
802.496	28588
802.638	28561
802.78	28523
802.923	28447
803.065	28432
803.208	28542
803.35	28626
803.492	28531
803.635	28767
803.777	28687
803.919	28801
804.061	29166
804.204	28938
804.346	28717
804.488	28577
804.63	28831
804.773	28748
804.915	28866
805.057	28873
805.199	28793
805.341	28793
805.483	28809
805.626	29056
805.768	28896
805.91	28949
806.052	28930
806.194	28888
806.336	29140
806.478	29056
806.62	28972
806.762	28980
806.904	29265
807.046	29455
807.188	29402
807.33	29379
807.472	29516
807.614	29364
807.756	29516
807.898	29193
808.04	29398
808.182	29109
808.324	29143
808.465	29273
808.607	29547
808.749	29592
808.891	29843
809.033	29897
809.174	29813
809.316	29562
809.458	29589
809.6	29474
809.741	29802
809.883	29661
810.025	30022
810.166	29984
810.308	29977
810.45	29836
810.591	29885
810.733	29627
810.875	29726
811.016	29589
811.158	29680
811.299	29847
811.441	29714
811.582	29832
811.724	29817
811.865	29611
812.007	29699
812.148	29703
812.29	29703
812.431	29840
812.573	29946
812.714	30251
812.855	30289
812.997	30334
813.138	30372
813.279	30327
813.421	30384
813.562	30232
813.703	30182
813.845	29904
813.986	29859
814.127	29516
814.268	29486
814.41	29482
814.551	29368
814.692	29528
814.833	29383
814.974	29318
815.115	29543
815.256	29318
815.397	29299
815.539	29387
815.68	29296
815.821	29227
815.962	29379
816.103	29197
816.244	29284
816.385	29014
816.526	29025
816.666	28946
816.807	28782
816.948	28919
817.089	28850
817.23	28774
817.371	28904
817.512	28702
817.653	28748
817.793	28656
817.934	28675
818.075	28752
818.216	28797
818.356	28888
818.497	28523
818.638	28504
818.778	28538
818.919	28580
819.06	28664
819.2	28725
819.341	28816
819.481	28744
819.622	28953
819.762	29014
819.903	29048
820.043	29044
820.184	28995
820.324	28957
820.465	28873
820.605	28923
820.746	28858
820.886	28740
821.026	28820
821.167	28892
821.307	29010
821.447	28877
821.588	28790
821.728	28519
821.868	28413
822.008	28284
822.149	28375
822.289	28295
822.429	28078
822.569	27926
822.709	27930
822.849	27808
822.99	27793
823.13	27720
823.27	27656
823.41	27648
823.55	27431
823.69	27701
823.83	27629
823.97	27633
824.11	27382
824.25	27481
824.389	27382
824.529	27538
824.669	27405
824.809	27663
824.949	27424
825.089	27500
825.228	27526
825.368	27222
825.508	27412
825.648	27367
825.787	27511
825.927	27302
826.067	27291
826.206	27249
826.346	27249
826.485	27283
826.625	27283
826.765	27469
826.904	27378
827.044	26975
827.183	27074
827.323	26982
827.462	27119
827.601	27017
827.741	26956
827.88	27173
828.02	26994
828.159	26940
828.298	27074
828.437	27070
828.577	26891
828.716	27157
828.855	26940
828.994	26785
829.134	26750
829.273	26773
829.412	26708
829.551	26644
829.69	26609
829.829	26765
829.968	26606
830.107	26781
830.246	26697
830.385	26670
830.524	26663
830.663	26492
830.802	26484
830.941	26358
831.08	26275
831.219	26377
831.357	26298
831.496	26511
831.635	26427
831.774	26347
831.913	26180
832.051	26069
832.19	26024
832.329	26161
832.467	26054
832.606	25917
832.744	25818
832.883	25997
833.022	25955
833.16	25966
833.299	25997
833.437	25868
833.576	25974
833.714	26111
833.852	25936
833.991	25993
834.129	26161
834.267	26065
834.406	25959
834.544	26077
834.682	25997
834.821	25978
834.959	26267
835.097	25989
835.235	26012
835.373	26031
835.511	25997
835.65	25921
835.788	25875
835.926	25799
836.064	25731
836.202	25738
836.34	25822
836.478	25917
836.615	25811
836.753	25887
836.891	25928
837.029	25951
837.167	25609
837.305	25784
837.443	25700
837.58	25674
837.718	25784
837.856	25723
837.993	25613
838.131	25693
838.269	25514
838.406	25552
838.544	25548
838.681	25460
838.819	25346
838.956	25206
839.094	25072
839.231	25202
839.369	25289
839.506	25445
839.643	25320
839.781	25175
839.918	25057
840.055	25145
840.193	25183
840.33	24981
840.467	25046
840.604	25076
840.742	25362
840.879	24878
841.016	25038
841.153	24924
841.29	25168
841.427	25156
841.564	25110
841.701	25012
841.838	25034
841.975	24886
842.112	24863
842.249	24859
842.385	24760
842.522	24935
842.659	24894
842.796	24711
842.933	24829
843.069	24901
843.206	24650
843.343	24863
843.479	24829
843.616	24722
843.752	24566
843.889	24589
844.025	24677
844.162	24471
844.298	24673
844.435	24589
844.571	24505
844.708	24585
844.844	24688
844.98	24779
845.117	24578
845.253	24365
845.389	24513
845.525	24547
845.661	24330
845.798	24174
845.934	24224
846.07	24251
846.206	24235
846.342	24422
846.478	24235
846.614	24125
846.75	23897
846.886	23843
847.022	24060
847.158	24060
847.294	24030
847.429	24018
847.565	23866
847.701	24289
847.837	23684
847.972	23832
848.108	23904
848.244	23714
848.379	23570
848.515	23596
848.65	23608
848.786	23646
848.921	23691
849.057	23623
849.192	23596
849.328	23585
849.463	23395
849.598	23551
849.734	23558
849.869	23402
850.004	23391
850.14	23436
850.275	23360
850.41	23239
850.545	23326
850.68	23356
850.815	23368
850.95	23292
851.085	23531
851.22	23482
851.355	23463
851.49	23307
851.625	23261
851.76	23296
851.895	23273
852.03	23212
852.165	23250
852.299	23486
852.434	23395
852.569	23433
852.703	23376
852.838	23299
852.973	23573
853.107	23471
853.242	23318
853.376	23288
853.511	23033
853.645	23151
853.78	23235
853.914	23197
854.048	23250
854.183	23223
854.317	23197
854.451	23398
854.585	23200
854.72	23155
854.854	23288
854.988	23079
855.122	23231
855.256	23048
855.39	23193
855.524	23143
855.658	23197
855.792	23071
855.926	23121
856.06	23197
856.194	23349
856.327	23140
856.461	23140
856.595	23124
856.729	23132
856.862	23128
856.996	23155
857.13	23315
857.263	23303
857.397	23284
857.53	23162
857.664	23200
857.797	23353
857.931	23254
858.064	23143
858.197	23299
858.331	23060
858.464	23124
858.597	23239
858.731	23159
858.864	23086
858.997	23121
859.13	23109
859.263	23189
859.396	23318
859.529	23178
859.662	23098
859.795	23014
859.928	23064
860.061	23372
860.194	23395
860.327	23094
860.46	23197
860.592	23261
860.725	23417
860.858	23330
860.99	23151
861.123	23094
861.256	23124
861.388	23105
861.521	23855
861.653	23060
861.786	22987
861.918	23128
862.05	22984
862.183	23083
862.315	23181
862.447	23197
862.58	23048
862.712	22881
862.844	22805
862.976	22850
863.108	22869
863.24	23345
863.372	22911
863.504	22908
863.636	22869
863.768	22930
863.9	22858
864.032	22774
864.164	22850
864.296	22824
864.428	23025
864.559	22889
864.691	22934
864.823	22850
864.954	22778
865.086	22809
865.217	22759
865.349	22656
865.48	22717
865.612	22763
865.743	22748
865.875	22847
866.006	22668
866.137	22698
866.269	22702
866.4	22702
866.531	22641
866.662	22550
866.793	22557
866.924	22611
867.055	22649
867.186	22729
867.317	22634
867.448	22565
867.579	22580
867.71	22557
867.841	22546
867.972	22645
868.103	22634
868.233	22668
868.364	22679
868.495	22858
868.625	22904
868.756	22980
868.886	22812
869.017	22759
869.147	22991
869.278	23041
869.408	22938
869.539	22881
869.669	22949
869.799	23037
869.929	22999
870.06	23029
870.19	23147
870.32	23261
870.45	23235
870.58	23315
870.71	23425
870.84	23395
870.97	23433
871.1	23334
871.23	23493
871.36	23512
871.489	23372
871.619	23398
871.749	23531
871.879	23452
872.008	23665
872.138	23448
872.267	23520
872.397	23493
872.526	23349
872.656	23379
872.785	23330
872.915	23585
873.044	23573
873.173	23512
873.303	23493
873.432	23531
873.561	23676
873.69	23619
873.819	23661
873.948	23554
874.077	23604
874.206	23630
874.335	23478
874.464	23615
874.593	23824
874.722	23760
874.851	23870
874.979	23695
875.108	23733
875.237	23786
875.365	23493
875.494	23630
875.623	23779
875.751	23802
875.88	23646
876.008	23908
876.136	23847
876.265	24106
876.393	24262
876.521	24201
876.65	24289
876.778	24159
876.906	24018
877.034	23977
877.162	24079
877.29	24018
877.418	24121
877.546	24098
877.674	23946
877.802	24064
877.93	24003
878.058	23988
878.185	23977
878.313	24136
878.441	24064
878.568	23893
878.696	23901
878.824	24022
878.951	24186
879.079	24224
879.206	24266
879.333	24239
879.461	24110
879.588	24197
879.715	24121
879.842	24395
879.97	24034
880.097	23973
880.224	23836
880.351	23870
880.478	23889
880.605	23817
880.732	23893
880.859	24030
880.986	23870
881.112	23786
881.239	23665
881.366	23623
881.493	23471
881.619	23337
881.746	23425
881.872	23429
881.999	23360
882.125	23395
882.252	23459
882.378	23459
882.505	23543
882.631	23235
882.757	23044
882.883	23170
883.01	23136
883.136	23041
883.262	23029
883.388	22934
883.514	23018
883.64	23086
883.766	23109
883.892	22999
884.018	22900
884.143	22862
884.269	23204
884.395	22797
884.52	22721
884.646	22706
884.772	22584
884.897	22577
885.023	22664
885.148	22691
885.274	22835
885.399	22752
885.524	22866
885.65	22580
885.775	22729
885.9	22523
886.025	22843
886.15	22790
886.275	22679
886.4	22538
886.525	22744
886.65	22630
886.775	22561
886.9	22710
887.025	22843
887.149	22675
887.274	22599
887.399	22432
887.523	22276
887.648	22462
887.773	22462
887.897	22508
888.021	22455
888.146	22379
888.27	22500
888.395	22660
888.519	22413
888.643	22402
888.767	22440
888.891	22386
889.015	22265
889.139	22291
889.263	22276
889.387	22363
889.511	22478
889.635	22329
889.759	22150
889.883	22101
890.006	22314
890.13	22303
890.254	22173
890.377	22147
890.501	21922
890.624	21903
890.748	22093
890.871	21781
890.995	21797
891.118	21747
891.241	21789
891.364	21785
891.488	21983
891.611	21679
891.734	21804
891.857	21838
891.98	21762
892.103	21831
892.226	21785
892.349	21720
892.471	21507
892.594	21667
892.717	21709
892.839	21709
892.962	21614
893.085	21736
893.207	21614
893.33	21538
893.452	21663
893.575	21614
893.697	21576
893.819	21835
893.941	21831
894.064	21766
894.186	21618
894.308	21591
894.43	21816
894.552	21781
894.674	21797
894.796	21686
894.918	21717
895.04	21610
895.161	21800
895.283	21717
895.405	21599
895.526	21652
895.648	21667
895.769	21667
895.891	21652
896.012	21713
896.134	21610
896.255	21633
896.376	21557
896.498	21599
896.619	21515
896.74	21519
896.861	21663
896.982	21778
897.103	22010
897.224	21888
897.345	21747
897.466	21736
897.587	21755
897.708	21892
897.828	21812
897.949	21736
898.07	21568
898.19	21781
898.311	21876
898.431	21705
898.552	21819
898.672	21884
898.792	21964
898.913	21888
899.033	21549
899.153	21713
899.273	21454
899.393	21625
899.513	21652
899.633	21485
899.753	21439
899.873	21500
899.993	21564
900.113	21393
900.232	21466
900.352	21428
900.472	21416
900.591	21241
900.711	21298
900.83	21218
900.95	21321
901.069	21374
901.189	21150
901.308	20979
901.427	20811
901.546	20963
901.665	20944
901.784	20864
901.904	20674
902.023	20613
902.141	20469
902.26	20438
902.379	20450
902.498	20465
902.617	20294
902.735	20298
902.854	20229
902.973	20256
903.091	20005
903.21	20012
903.328	20001
903.446	19909
903.565	19738
903.683	19750
903.801	19685
903.919	19715
904.038	19731
904.156	19677
904.274	19544
904.392	19624
904.51	19453
904.627	19460
904.745	19388
904.863	19468
904.981	19206
905.098	19289
905.216	19217
905.334	19213
905.451	19198
905.569	19004
905.686	19118
905.803	19244
905.921	19019
906.038	19012
906.155	18970
906.272	18973
906.389	18817
906.506	18798
906.623	18726
906.74	18700
906.857	18585
906.974	18642
907.091	18768
907.208	18787
907.324	18920
907.441	18608
907.557	18540
907.674	18460
907.79	18361
907.907	18418
908.023	18460
908.139	18418
908.256	18490
908.372	18365
908.488	18262
908.604	18277
908.72	18106
908.836	18144
908.952	18098
909.068	18205
909.184	18117
909.3	18174
909.415	18194
909.531	18076
909.647	17950
909.762	17775
909.878	17794
909.993	17885
910.108	17805
910.224	17786
910.339	17756
910.454	17661
910.57	17520
910.685	17672
910.8	17843
910.915	17805
911.03	17505
911.145	17459
911.259	17414
911.374	17395
911.489	17288
911.604	17356
911.718	17132
911.833	17136
911.947	17064
912.062	16930
912.176	17109
912.291	17147
912.405	17064
912.519	17299
912.633	17299
912.748	17166
912.862	17052
912.976	16961
913.09	16877
913.204	16904
913.318	16911
913.431	17045
913.545	17010
913.659	17022
913.772	16915
913.886	16889
914	16713
914.113	16869
914.226	16885
914.34	16816
914.453	16641
914.566	16710
914.68	16546
914.793	16531
914.906	16478
915.019	16204
915.132	16154
915.245	16322
915.358	16344
915.47	16402
915.583	16325
915.696	16360
915.809	16363
915.921	16291
916.034	16139
916.146	16169
916.259	16150
916.371	16295
916.483	16226
916.595	16074
916.708	16105
916.82	16192
916.932	16048
917.044	16013
917.156	15926
917.268	15922
917.38	15911
917.491	15812
917.603	15873
917.715	16010
917.826	15918
917.938	15911
918.049	15854
918.161	15899
918.272	15972
918.384	15884
918.495	15842
918.606	15713
918.717	15625
918.828	15698
918.939	15644
919.05	15549
919.161	15652
919.272	15431
919.383	15439
919.494	15641
919.604	15755
919.715	15667
919.826	15500
919.936	15580
920.047	15732
920.157	15652
920.267	15918
920.378	15549
920.488	15587
920.598	15762
920.708	15934
920.818	15797
920.928	15778
921.038	15884
921.148	15831
921.258	15580
921.368	15431
921.477	15363
921.587	15291
921.697	15173
921.806	15268
921.916	15207
922.025	14925
922.134	14941
922.244	14910
922.353	14925
922.462	14918
922.571	14819
922.68	14636
922.789	14644
922.898	14571
923.007	14568
923.116	14579
923.224	14522
923.333	14495
923.442	14499
923.55	14366
923.659	14381
923.767	14385
923.876	14404
923.984	14309
924.092	14221
924.201	14317
924.309	14244
924.417	14206
924.525	14138
924.633	14180
924.741	14960
924.849	14058
924.956	14149
925.064	13989
925.172	13913
925.279	13936
925.387	13967
925.494	13906
925.602	13951
925.709	13921
925.816	13909
925.924	13811
926.031	14043
926.138	13765
926.245	13913
926.352	13795
926.459	13875
926.566	13909
926.673	13868
926.779	13666
926.886	13609
926.993	13487
927.099	13415
927.206	13430
927.312	13415
927.419	13567
927.525	13468
927.631	13510
927.737	13320
927.843	13244
927.95	13164
928.056	13213
928.162	13263
928.267	13297
928.373	13818
928.479	13282
928.585	13091
928.69	13183
928.796	13266
928.901	13061
929.007	12977
929.112	13046
929.218	13042
929.323	12924
929.428	12943
929.533	13061
929.638	12867
929.743	12821
929.848	12954
929.953	12833
930.058	12726
930.163	12620
930.267	12646
930.372	12669
930.477	12509
930.581	12840
930.685	12623
930.79	12544
930.894	12528
930.998	12369
931.103	12608
931.207	12243
931.311	12163
931.415	12041
931.519	11809
931.623	11889
