Data from test_V78500241_1863.txt Node
Date: Fri Mar 25 15:54:42 CST 2022
User: usil
Spectrometer: V785-0024
Trigger mode: 0
Integration Time (sec): 4.000000E-1
Scans to average: 1
Nonlinearity correction enabled: false
Boxcar width: 0
Storing dark spectrum: false
XAxis mode: Wavelengths
Number of Pixels in Spectrum: 1024
>>>>>Begin Spectral Data<<<<<
801.071	28656
801.214	28519
801.356	28379
801.499	28261
801.641	28291
801.783	28162
801.926	28360
802.068	28238
802.211	28249
802.353	28063
802.496	27949
802.638	27793
802.78	27907
802.923	27808
803.065	27759
803.208	27778
803.35	27869
803.492	27975
803.635	28188
803.777	28029
803.919	28188
804.061	28455
804.204	28147
804.346	28207
804.488	28044
804.63	28090
804.773	28059
804.915	28188
805.057	28325
805.199	28135
805.341	28295
805.483	28341
805.626	28223
805.768	28223
805.91	28299
806.052	28337
806.194	28196
806.336	28405
806.478	28417
806.62	28344
806.762	28535
806.904	28459
807.046	28885
807.188	28801
807.33	28877
807.472	28809
807.614	28672
807.756	28725
807.898	28603
808.04	28630
808.182	28481
808.324	28744
808.465	28702
808.607	28740
808.749	29006
808.891	29003
809.033	29083
809.174	29003
809.316	29124
809.458	28934
809.6	28839
809.741	29102
809.883	29136
810.025	29318
810.166	29326
810.308	29372
810.45	29212
810.591	29136
810.733	29067
810.875	28949
811.016	28908
811.158	28942
811.299	29079
811.441	29235
811.582	29090
811.724	29029
811.865	29033
812.007	28953
812.148	29041
812.29	28957
812.431	29174
812.573	29284
812.714	29429
812.855	29421
812.997	29570
813.138	29600
813.279	29581
813.421	29531
813.562	29341
813.703	29360
813.845	29174
813.986	28892
814.127	28946
814.268	28820
814.41	28706
814.551	28740
814.692	28797
814.833	28691
814.974	28729
815.115	28790
815.256	28721
815.397	28710
815.539	28557
815.68	28561
815.821	28546
815.962	28466
816.103	28390
816.244	28352
816.385	28375
816.526	28226
816.666	28124
816.807	28048
816.948	28124
817.089	28120
817.23	28013
817.371	28090
817.512	28169
817.653	28112
817.793	28086
817.934	27979
818.075	28006
818.216	28040
818.356	28036
818.497	27911
818.638	27827
818.778	27736
818.919	27892
819.06	27766
819.2	27747
819.341	28010
819.481	27956
819.622	28188
819.762	28375
819.903	28337
820.043	28276
820.184	28097
820.324	28067
820.465	28196
820.605	28131
820.746	28070
820.886	28010
821.026	28215
821.167	28147
821.307	28291
821.447	27994
821.588	27994
821.728	27816
821.868	27679
822.008	27488
822.149	27587
822.289	27526
822.429	27287
822.569	27378
822.709	27188
822.849	26952
822.99	26906
823.13	27074
823.27	26933
823.41	26743
823.55	26777
823.69	26689
823.83	26857
823.97	26773
824.11	26568
824.25	26644
824.389	26701
824.529	26708
824.669	26777
824.809	26792
824.949	26682
825.089	26682
825.228	26705
825.368	26450
825.508	26434
825.648	26583
825.787	26556
825.927	26499
826.067	26526
826.206	26514
826.346	26514
826.485	26606
826.625	26640
826.765	26583
826.904	26480
827.044	26336
827.183	26252
827.323	26248
827.462	26286
827.601	26301
827.741	26278
827.88	26180
828.02	26142
828.159	26237
828.298	26309
828.437	26305
828.577	26305
828.716	26275
828.855	26130
828.994	25959
829.134	25906
829.273	25871
829.412	25974
829.551	25833
829.69	25974
829.829	25902
829.968	26058
830.107	26069
830.246	26016
830.385	25936
830.524	25883
830.663	25776
830.802	25635
830.941	25529
831.08	25552
831.219	25651
831.357	25601
831.496	25845
831.635	25487
831.774	25449
831.913	25533
832.051	25457
832.19	25415
832.329	25312
832.467	25228
832.606	25206
832.744	25118
832.883	25240
833.022	25145
833.16	25320
833.299	25297
833.437	25244
833.576	25339
833.714	25187
833.852	25346
833.991	25251
834.129	25365
834.267	25434
834.406	25240
834.544	25320
834.682	25209
834.821	25308
834.959	25479
835.097	25088
835.235	25304
835.373	25304
835.511	25179
835.65	25148
835.788	25046
835.926	24966
836.064	24996
836.202	24970
836.34	25129
836.478	25156
836.615	24992
836.753	25046
836.891	25141
837.029	25088
837.167	25042
837.305	25008
837.443	24882
837.58	24913
837.718	24977
837.856	24867
837.993	24806
838.131	25027
838.269	24787
838.406	24932
838.544	24661
838.681	24547
838.819	24494
838.956	24429
839.094	24353
839.231	24391
839.369	24700
839.506	24730
839.643	24566
839.781	24441
839.918	24365
840.055	24414
840.193	24357
840.33	24197
840.467	24182
840.604	24380
840.742	24559
840.879	24045
841.016	24315
841.153	24171
841.29	24346
841.427	24224
841.564	24258
841.701	24273
841.838	24311
841.975	24121
842.112	24213
842.249	24110
842.385	24087
842.522	24285
842.659	24079
842.796	24083
842.933	23969
843.069	23904
843.206	23920
843.343	24045
843.479	24022
843.616	24011
843.752	23840
843.889	23870
844.025	24038
844.162	23843
844.298	23828
844.435	23965
844.571	23794
844.708	23828
844.844	23954
844.98	24038
845.117	23988
845.253	23821
845.389	23722
845.525	23699
845.661	23619
845.798	23531
845.934	23535
846.07	23573
846.206	23672
846.342	23775
846.478	23512
846.614	23292
846.75	23303
846.886	23261
847.022	23299
847.158	23292
847.294	23307
847.429	23307
847.565	23239
847.701	23463
847.837	22953
847.972	22911
848.108	23121
848.244	23083
848.379	22862
848.515	22862
848.65	22858
848.786	22809
848.921	22911
849.057	22976
849.192	22908
849.328	22919
849.463	22915
849.598	22809
849.734	22778
849.869	22805
850.004	22637
850.14	22740
850.275	22694
850.41	22596
850.545	22611
850.68	22599
850.815	22599
850.95	22675
851.085	22729
851.22	22698
851.355	22622
851.49	22626
851.625	22660
851.76	22615
851.895	22466
852.03	22653
852.165	22554
852.299	22641
852.434	22767
852.569	22691
852.703	22447
852.838	22634
852.973	22672
853.107	22675
853.242	22615
853.376	22421
853.511	22280
853.645	22367
853.78	22516
853.914	22516
854.048	22344
854.183	22459
854.317	22474
854.451	22607
854.585	22504
854.72	22478
854.854	22523
854.988	22470
855.122	22398
855.256	22306
855.39	22546
855.524	22542
855.658	22424
855.792	22493
855.926	22504
856.06	22516
856.194	22542
856.327	22398
856.461	22379
856.595	22436
856.729	22371
856.862	22550
856.996	22523
857.13	22417
857.263	22508
857.397	22531
857.53	22421
857.664	22462
857.797	22466
857.931	22618
858.064	22481
858.197	22500
858.331	22413
858.464	22409
858.597	22348
858.731	22424
858.864	22371
858.997	22440
859.13	22306
859.263	22436
859.396	22561
859.529	22542
859.662	22413
859.795	22379
859.928	22440
860.061	22641
860.194	22641
860.327	22451
860.46	22440
860.592	22557
860.725	22630
860.858	22592
860.99	22382
861.123	22352
861.256	22306
861.388	22356
861.521	23265
861.653	22417
861.786	22242
861.918	22234
862.05	22253
862.183	22265
862.315	22432
862.447	22413
862.58	22284
862.712	22055
862.844	22036
862.976	22234
863.108	22329
863.24	22611
863.372	22120
863.504	22120
863.636	22207
863.768	22158
863.9	22200
864.032	22040
864.164	22196
864.296	22196
864.428	22253
864.559	22150
864.691	22268
864.823	22147
864.954	21983
865.086	21998
865.217	22109
865.349	21979
865.48	22097
865.612	22185
865.743	22303
865.875	22086
866.006	22135
866.137	22090
866.269	21998
866.4	22067
866.531	22017
866.662	21960
866.793	21949
866.924	21930
867.055	22013
867.186	21949
867.317	21994
867.448	21968
867.579	21915
867.71	21918
867.841	21892
867.972	21975
868.103	21968
868.233	21949
868.364	22074
868.495	21994
868.625	22162
868.756	22230
868.886	22051
869.017	22211
869.147	22219
869.278	22299
869.408	22063
869.539	22139
869.669	22257
869.799	22234
869.929	22497
870.06	22291
870.19	22447
870.32	22557
870.45	22535
870.58	22653
870.71	22588
870.84	22740
870.97	22535
871.1	22523
871.23	22664
871.36	22896
871.489	22641
871.619	22710
871.749	22744
871.879	22854
872.008	22915
872.138	22831
872.267	22713
872.397	22664
872.526	22500
872.656	22557
872.785	22592
872.915	22790
873.044	22934
873.173	22839
873.303	22782
873.432	22904
873.561	22866
873.69	22828
873.819	22828
873.948	22774
874.077	22904
874.206	22713
874.335	22854
874.464	23014
874.593	23102
874.722	22946
874.851	23056
874.979	23060
875.108	23075
875.237	22889
875.365	22968
875.494	23109
875.623	23170
875.751	22938
875.88	22968
876.008	23170
876.136	23170
876.265	23410
876.393	23509
876.521	23448
876.65	23512
876.778	23398
876.906	23341
877.034	23322
877.162	23353
877.29	23337
877.418	23379
877.546	23383
877.674	23353
877.802	23307
877.93	23299
878.058	23436
878.185	23155
878.313	23322
878.441	23360
878.568	23136
878.696	23383
878.824	23402
878.951	23349
879.079	23611
879.206	23676
879.333	23505
879.461	23455
879.588	23387
879.715	23520
879.842	23474
879.97	23501
880.097	23246
880.224	23254
880.351	23166
880.478	23204
880.605	23083
880.732	23193
880.859	23376
880.986	23258
881.112	23200
881.239	23189
881.366	22885
881.493	22839
881.619	22923
881.746	22778
881.872	22717
881.999	22809
882.125	22698
882.252	22831
882.378	22858
882.505	22809
882.631	22500
882.757	22402
882.883	22474
883.01	22500
883.136	22386
883.262	22272
883.388	22405
883.514	22382
883.64	22413
883.766	22291
883.892	22139
884.018	22181
884.143	22413
884.269	22287
884.395	22143
884.52	22025
884.646	22040
884.772	21979
884.897	21941
885.023	21987
885.148	22036
885.274	22200
885.399	22169
885.524	21937
885.65	21987
885.775	21972
885.9	22082
886.025	22223
886.15	22139
886.275	22112
886.4	21987
886.525	21911
886.65	22021
886.775	22002
886.9	22139
887.025	22219
887.149	22139
887.274	21888
887.399	21880
887.523	21789
887.648	21663
887.773	21682
887.897	21812
888.021	21857
888.146	21690
888.27	21831
888.395	21998
888.519	21865
888.643	21876
888.767	21766
888.891	21648
889.015	21492
889.139	21656
889.263	21580
889.387	21720
889.511	21816
889.635	21717
889.759	21496
889.883	21447
890.006	21572
890.13	21713
890.254	21515
890.377	21416
890.501	21336
890.624	21340
890.748	21443
890.871	21252
890.995	21108
891.118	20975
891.241	21207
891.364	21157
891.488	21180
891.611	21142
891.734	21188
891.857	21184
891.98	21169
892.103	21150
892.226	21039
892.349	21135
892.471	20925
892.594	21146
892.717	21032
892.839	21074
892.962	20979
893.085	21203
893.207	21085
893.33	20948
893.452	20937
893.575	21077
893.697	21036
893.819	21169
893.941	21249
894.064	21146
894.186	21036
894.308	21001
894.43	21039
894.552	21131
894.674	21005
894.796	20887
894.918	21135
895.04	20971
895.161	21013
895.283	21024
895.405	20967
895.526	20944
895.648	20998
895.769	20975
895.891	21108
896.012	21066
896.134	21051
896.255	20994
896.376	20960
896.498	21161
896.619	20853
896.74	21047
896.861	20906
896.982	21313
897.103	21583
897.224	21241
897.345	21313
897.466	21093
897.587	21317
897.708	21348
897.828	21142
897.949	21184
898.07	21036
898.19	21104
898.311	21237
898.431	21157
898.552	21192
898.672	21233
898.792	21275
898.913	21256
899.033	21157
899.153	20921
899.273	20872
899.393	20952
899.513	21043
899.633	20979
899.753	20986
899.873	20918
899.993	20967
900.113	20872
900.232	20963
900.352	20899
900.472	20750
900.591	20621
900.711	20781
900.83	20724
900.95	20823
901.069	20792
901.189	20556
901.308	20332
901.427	20301
901.546	20237
901.665	20396
901.784	20290
901.904	20275
902.023	20054
902.141	19986
902.26	19963
902.379	19837
902.498	19871
902.617	19784
902.735	19765
902.854	19799
902.973	19651
903.091	19616
903.21	19388
903.328	19563
903.446	19373
903.565	19285
903.683	19400
903.801	19187
903.919	19259
904.038	19133
904.156	19084
904.274	19065
904.392	18993
904.51	18943
904.627	18954
904.745	19103
904.863	18951
904.981	18840
905.098	18623
905.216	18696
905.334	18749
905.451	18741
905.569	18635
905.686	18711
905.803	18612
905.921	18498
906.038	18551
906.155	18467
906.272	18422
906.389	18448
906.506	18182
906.623	18197
906.74	18117
906.857	18117
906.974	18091
907.091	18197
907.208	18353
907.324	18334
907.441	18125
907.557	17935
907.674	17908
907.79	17824
907.907	17942
908.023	17942
908.139	17874
908.256	17802
908.372	17821
908.488	17741
908.604	17585
908.72	17665
908.836	17596
908.952	17627
909.068	17687
909.184	17661
909.3	17623
909.415	17699
909.531	17577
909.647	17299
909.762	17322
909.878	17299
909.993	17341
910.108	17269
910.224	17265
910.339	17288
910.454	17075
910.57	17071
910.685	17064
910.8	17406
910.915	17227
911.03	17102
911.145	16953
911.259	16889
911.374	16942
911.489	16862
911.604	16805
911.718	16660
911.833	16675
911.947	16607
912.062	16424
912.176	16683
912.291	16691
912.405	16607
912.519	16698
912.633	16847
912.748	16706
912.862	16577
912.976	16497
913.09	16333
913.204	16440
913.318	16409
913.431	16504
913.545	16569
913.659	16546
913.772	16432
913.886	16257
914	16226
914.113	16257
914.226	16417
914.34	16284
914.453	16101
914.566	16303
914.68	16101
914.793	16139
914.906	15857
915.019	15869
915.132	15797
915.245	15785
915.358	15831
915.47	15857
915.583	15854
915.696	15759
915.809	15823
915.921	15930
916.034	15732
916.146	15720
916.259	15720
916.371	15804
916.483	15857
916.595	15641
916.708	15656
916.82	15671
916.932	15488
917.044	15606
917.156	15542
917.268	15504
917.38	15481
917.491	15386
917.603	15443
917.715	15462
917.826	15492
917.938	15310
918.049	15313
918.161	15397
918.272	15469
918.384	15397
918.495	15321
918.606	15252
918.717	15112
918.828	15214
918.939	15157
919.05	15173
919.161	15199
919.272	15009
919.383	15009
919.494	15127
919.604	15450
919.715	15207
919.826	15097
919.936	15081
920.047	15272
920.157	15184
920.267	15332
920.378	15230
920.488	15192
920.598	15291
920.708	15488
920.818	15249
920.928	15249
921.038	15374
921.148	15359
921.258	15169
921.368	14944
921.477	14826
921.587	14868
921.697	14754
921.806	14975
921.916	14705
922.025	14484
922.134	14568
922.244	14488
922.353	14507
922.462	14412
922.571	14362
922.68	14195
922.789	14130
922.898	14130
923.007	14100
923.116	14149
923.224	14054
923.333	14195
923.442	14065
923.55	13932
923.659	13826
923.767	14012
923.876	13830
923.984	14043
924.092	13715
924.201	13830
924.309	13826
924.417	13833
924.525	13791
924.633	13868
924.741	14511
924.849	13563
924.956	13807
925.064	13563
925.172	13506
925.279	13518
925.387	13548
925.494	13445
925.602	13674
925.709	13586
925.816	13453
925.924	13460
926.031	13571
926.138	13426
926.245	13487
926.352	13445
926.459	13468
926.566	13616
926.673	13251
926.779	13228
926.886	13251
926.993	13080
927.099	13110
927.206	13053
927.312	13046
927.419	13034
927.525	13065
927.631	13061
927.737	12981
927.843	12905
927.95	12810
928.056	12913
928.162	12962
928.267	12932
928.373	13590
928.479	12962
928.585	12730
928.69	12875
928.796	12875
928.901	12806
929.007	12635
929.112	12681
929.218	12662
929.323	12681
929.428	12547
929.533	12726
929.638	12467
929.743	12502
929.848	12612
929.953	12528
930.058	12418
930.163	12289
930.267	12300
930.372	12410
930.477	12224
930.581	12452
930.685	12395
930.79	12197
930.894	12114
930.998	12106
931.103	12251
931.207	11859
931.311	11771
931.415	11767
931.519	11539
931.623	11478
