Data from test_V78500241_2255.txt Node
Date: Fri Mar 25 15:57:25 CST 2022
User: usil
Spectrometer: V785-0024
Trigger mode: 0
Integration Time (sec): 4.000000E-1
Scans to average: 1
Nonlinearity correction enabled: false
Boxcar width: 0
Storing dark spectrum: false
XAxis mode: Wavelengths
Number of Pixels in Spectrum: 1024
>>>>>Begin Spectral Data<<<<<
801.071	29322
801.214	29010
801.356	28957
801.499	29022
801.641	28835
801.783	28603
801.926	28968
802.068	28938
802.211	28767
802.353	28691
802.496	28550
802.638	28607
802.78	28504
802.923	28455
803.065	28265
803.208	28409
803.35	28649
803.492	28656
803.635	28721
803.777	28641
803.919	28713
804.061	29079
804.204	28786
804.346	28812
804.488	28774
804.63	28839
804.773	28698
804.915	28888
805.057	28953
805.199	28824
805.341	28862
805.483	28896
805.626	28965
805.768	28759
805.91	28965
806.052	28908
806.194	28987
806.336	29136
806.478	28980
806.62	28976
806.762	29102
806.904	29261
807.046	29562
807.188	29543
807.33	29406
807.472	29478
807.614	29360
807.756	29452
807.898	29296
808.04	29212
808.182	29296
808.324	29273
808.465	29364
808.607	29726
808.749	29764
808.891	29695
809.033	29939
809.174	29859
809.316	29828
809.458	29646
809.6	29585
809.741	29855
809.883	29897
810.025	29950
810.166	29927
810.308	29980
810.45	29923
810.591	29851
810.733	29779
810.875	29710
811.016	29596
811.158	29486
811.299	29889
811.441	29756
811.582	29870
811.724	29805
811.865	29531
812.007	29661
812.148	29748
812.29	29809
812.431	30030
812.573	29988
812.714	30159
812.855	30216
812.997	30300
813.138	30460
813.279	30334
813.421	30327
813.562	30117
813.703	30148
813.845	29920
813.986	29710
814.127	29490
814.268	29372
814.41	29429
814.551	29345
814.692	29490
814.833	29410
814.974	29436
815.115	29474
815.256	29444
815.397	29307
815.539	29265
815.68	29296
815.821	29121
815.962	29250
816.103	29220
816.244	29189
816.385	29083
816.526	29029
816.666	28858
816.807	28713
816.948	28736
817.089	28904
817.23	28835
817.371	28793
817.512	28637
817.653	28774
817.793	28691
817.934	28653
818.075	28816
818.216	28854
818.356	28626
818.497	28668
818.638	28478
818.778	28489
818.919	28561
819.06	28603
819.2	28637
819.341	28809
819.481	28649
819.622	28862
819.762	29166
819.903	28972
820.043	28946
820.184	28961
820.324	28934
820.465	28877
820.605	28774
820.746	28896
820.886	28854
821.026	28904
821.167	28809
821.307	28999
821.447	28717
821.588	28675
821.728	28493
821.868	28367
822.008	28287
822.149	28223
822.289	28306
822.429	28029
822.569	27922
822.709	27922
822.849	27800
822.99	27895
823.13	27728
823.27	27747
823.41	27622
823.55	27534
823.69	27599
823.83	27564
823.97	27496
824.11	27336
824.25	27279
824.389	27504
824.529	27534
824.669	27481
824.809	27496
824.949	27313
825.089	27477
825.228	27511
825.368	27241
825.508	27275
825.648	27226
825.787	27291
825.927	27397
826.067	27302
826.206	27218
826.346	27241
826.485	27306
826.625	27306
826.765	27405
826.904	27336
827.044	27032
827.183	27066
827.323	27013
827.462	27119
827.601	27127
827.741	27055
827.88	27036
828.02	26830
828.159	27013
828.298	27043
828.437	27009
828.577	26990
828.716	27039
828.855	26937
828.994	26689
829.134	26746
829.273	26796
829.412	26655
829.551	26731
829.69	26811
829.829	26708
829.968	26746
830.107	26849
830.246	26731
830.385	26659
830.524	26545
830.663	26640
830.802	26499
830.941	26309
831.08	26320
831.219	26355
831.357	26244
831.496	26484
831.635	26343
831.774	26259
831.913	26320
832.051	26157
832.19	26134
832.329	26122
832.467	26092
832.606	25947
832.744	25970
832.883	25966
833.022	25993
833.16	26005
833.299	26069
833.437	26069
833.576	25902
833.714	26138
833.852	26107
833.991	26062
834.129	26077
834.267	25993
834.406	26043
834.544	26016
834.682	25966
834.821	25898
834.959	26115
835.097	25951
835.235	26142
835.373	26069
835.511	26027
835.65	25925
835.788	25982
835.926	25795
836.064	25791
836.202	25795
836.34	25849
836.478	25818
836.615	25746
836.753	25807
836.891	25921
837.029	25909
837.167	25723
837.305	25712
837.443	25624
837.58	25639
837.718	25837
837.856	25723
837.993	25635
838.131	25700
838.269	25464
838.406	25590
838.544	25468
838.681	25251
838.819	25236
838.956	25050
839.094	25072
839.231	25247
839.369	25259
839.506	25677
839.643	25415
839.781	25198
839.918	24989
840.055	25145
840.193	24992
840.33	25091
840.467	25069
840.604	25042
840.742	25259
840.879	24928
841.016	25046
841.153	25023
841.29	25160
841.427	25076
841.564	24981
841.701	25137
841.838	25091
841.975	24867
842.112	24947
842.249	24985
842.385	24760
842.522	25061
842.659	24852
842.796	24696
842.933	24719
843.069	24688
843.206	24627
843.343	24810
843.479	24760
843.616	24791
843.752	24528
843.889	24578
844.025	24688
844.162	24563
844.298	24795
844.435	24574
844.571	24544
844.708	24635
844.844	24738
844.98	24711
845.117	24631
845.253	24585
845.389	24475
845.525	24452
845.661	24448
845.798	24380
845.934	24239
846.07	24228
846.206	24270
846.342	24311
846.478	24266
846.614	24057
846.75	23973
846.886	23897
847.022	24057
847.158	24015
847.294	23965
847.429	24155
847.565	24007
847.701	24369
847.837	23840
847.972	23668
848.108	23939
848.244	23847
848.379	23680
848.515	23615
848.65	23554
848.786	23627
848.921	23653
849.057	23771
849.192	23699
849.328	23649
849.463	23642
849.598	23596
849.734	23421
849.869	23505
850.004	23280
850.14	23414
850.275	23326
850.41	23353
850.545	23105
850.68	23303
850.815	23474
850.95	23360
851.085	23520
851.22	23600
851.355	23292
851.49	23372
851.625	23296
851.76	23334
851.895	23212
852.03	23220
852.165	23414
852.299	23406
852.434	23383
852.569	23444
852.703	23311
852.838	23383
852.973	23490
853.107	23414
853.242	23296
853.376	23178
853.511	23109
853.645	23117
853.78	23345
853.914	23277
854.048	23246
854.183	23212
854.317	23155
854.451	23254
854.585	23216
854.72	23113
854.854	23223
854.988	23067
855.122	23170
855.256	22968
855.39	23086
855.524	23311
855.658	23189
855.792	23174
855.926	23181
856.06	23178
856.194	23159
856.327	23277
856.461	23185
856.595	23090
856.729	23322
856.862	23242
856.996	23143
857.13	23269
857.263	23181
857.397	23143
857.53	23235
857.664	23258
857.797	23212
857.931	23220
858.064	23239
858.197	23227
858.331	23090
858.464	23109
858.597	23079
858.731	23025
858.864	23109
858.997	23086
859.13	23121
859.263	23079
859.396	23315
859.529	23178
859.662	23029
859.795	23083
859.928	23151
860.061	23341
860.194	23360
860.327	23311
860.46	23174
860.592	23162
860.725	23402
860.858	23383
860.99	23136
861.123	23022
861.256	23105
861.388	23200
861.521	23973
861.653	23086
861.786	22843
861.918	23022
862.05	23048
862.183	22976
862.315	23128
862.447	23090
862.58	23025
862.712	22949
862.844	22835
862.976	22953
863.108	22869
863.24	23318
863.372	22850
863.504	22889
863.636	22942
863.768	22946
863.9	22805
864.032	22797
864.164	22729
864.296	22744
864.428	22896
864.559	22957
864.691	22881
864.823	22877
864.954	22805
865.086	22786
865.217	22698
865.349	22687
865.48	22793
865.612	22733
865.743	22892
865.875	22892
866.006	22767
866.137	22786
866.269	22717
866.4	22721
866.531	22698
866.662	22672
866.793	22721
866.924	22634
867.055	22645
867.186	22797
867.317	22618
867.448	22607
867.579	22675
867.71	22599
867.841	22561
867.972	22710
868.103	22679
868.233	22535
868.364	22588
868.495	22755
868.625	22873
868.756	22946
868.886	22892
869.017	23003
869.147	23113
869.278	23174
869.408	22930
869.539	22984
869.669	22995
869.799	22866
869.929	23022
870.06	23166
870.19	23258
870.32	23261
870.45	23269
870.58	23429
870.71	23436
870.84	23398
870.97	23212
871.1	23296
871.23	23547
871.36	23360
871.489	23414
871.619	23562
871.749	23547
871.879	23592
872.008	23684
872.138	23425
872.267	23474
872.397	23490
872.526	23436
872.656	23368
872.785	23372
872.915	23627
873.044	23745
873.173	23501
873.303	23619
873.432	23665
873.561	23589
873.69	23661
873.819	23459
873.948	23615
874.077	23539
874.206	23421
874.335	23459
874.464	23672
874.593	23691
874.722	23600
874.851	23714
874.979	23859
875.108	23802
875.237	23657
875.365	23619
875.494	23642
875.623	23809
875.751	23672
875.88	23783
876.008	23855
876.136	23885
876.265	24045
876.393	24247
876.521	24106
876.65	24106
876.778	24353
876.906	24083
877.034	24095
877.162	23954
877.29	24003
877.418	24072
877.546	24114
877.674	23999
877.802	24022
877.93	24209
878.058	24030
878.185	23908
878.313	24018
878.441	24125
878.568	23931
878.696	24011
878.824	24102
878.951	24007
879.079	24178
879.206	24296
879.333	24159
879.461	24045
879.588	24239
879.715	24296
879.842	24380
879.97	24220
880.097	23821
880.224	23863
880.351	23916
880.478	23824
880.605	23775
880.732	23866
880.859	24060
880.986	23965
881.112	23920
881.239	23779
881.366	23642
881.493	23562
881.619	23535
881.746	23467
881.872	23482
881.999	23429
882.125	23425
882.252	23425
882.378	23204
882.505	23551
882.631	23299
882.757	23102
882.883	23231
883.01	23162
883.136	23033
883.262	23003
883.388	22946
883.514	23037
883.64	23090
883.766	22942
883.892	22869
884.018	22911
884.143	22946
884.269	23113
884.395	22801
884.52	22809
884.646	22774
884.772	22755
884.897	22668
885.023	22698
885.148	22873
885.274	22889
885.399	22809
885.524	22729
885.65	22843
885.775	22847
885.9	22717
886.025	22847
886.15	22778
886.275	22649
886.4	22645
886.525	22645
886.65	22710
886.775	22691
886.9	22767
887.025	22919
887.149	22664
887.274	22500
887.399	22386
887.523	22531
887.648	22462
887.773	22325
887.897	22531
888.021	22489
888.146	22440
888.27	22466
888.395	22607
888.519	22489
888.643	22504
888.767	22474
888.891	22421
889.015	22352
889.139	22333
889.263	22295
889.387	22466
889.511	22470
889.635	22466
889.759	22238
889.883	22318
890.006	22405
890.13	22325
890.254	22265
890.377	22223
890.501	21983
890.624	22055
890.748	22029
890.871	21861
890.995	21804
891.118	21743
891.241	21842
891.364	21842
891.488	21941
891.611	21774
891.734	21778
891.857	21819
891.98	21648
892.103	21736
892.226	21838
892.349	21778
892.471	21568
892.594	21599
892.717	21835
892.839	21739
892.962	21679
893.085	21793
893.207	21667
893.33	21652
893.452	21576
893.575	21789
893.697	21701
893.819	21861
893.941	21819
894.064	21850
894.186	21564
894.308	21580
894.43	21709
894.552	21804
894.674	21732
894.796	21534
894.918	21720
895.04	21671
895.161	21732
895.283	21698
895.405	21580
895.526	21671
895.648	21701
895.769	21656
895.891	21713
896.012	21694
896.134	21705
896.255	21713
896.376	21576
896.498	21743
896.619	21610
896.74	21641
896.861	21720
896.982	21918
897.103	22116
897.224	21915
897.345	21915
897.466	21774
897.587	21705
897.708	21945
897.828	21778
897.949	21850
898.07	21751
898.19	21827
898.311	21793
898.431	21743
898.552	21785
898.672	21823
898.792	21888
898.913	21785
899.033	21720
899.153	21682
899.273	21526
899.393	21580
899.513	21641
899.633	21530
899.753	21603
899.873	21401
899.993	21618
900.113	21507
900.232	21469
900.352	21629
900.472	21393
900.591	21317
900.711	21454
900.83	21336
900.95	21401
901.069	21412
901.189	21131
901.308	21013
901.427	20914
901.546	20933
901.665	20925
901.784	20876
901.904	20781
902.023	20682
902.141	20381
902.26	20336
902.379	20590
902.498	20332
902.617	20370
902.735	20381
902.854	20328
902.973	20244
903.091	20043
903.21	20088
903.328	20054
903.446	19845
903.565	19890
903.683	19856
903.801	19658
903.919	19822
904.038	19784
904.156	19613
904.274	19662
904.392	19632
904.51	19571
904.627	19472
904.745	19525
904.863	19594
904.981	19400
905.098	19179
905.216	19244
905.334	19297
905.451	19388
905.569	19190
905.686	19293
905.803	19194
905.921	18954
906.038	19027
906.155	19141
906.272	18920
906.389	19008
906.506	18741
906.623	18817
906.74	18741
906.857	18681
906.974	18658
907.091	18852
907.208	18779
907.324	18757
907.441	18665
907.557	18429
907.674	18506
907.79	18410
907.907	18479
908.023	18395
908.139	18388
908.256	18414
908.372	18311
908.488	18342
908.604	18289
908.72	18114
908.836	18220
908.952	18129
909.068	18224
909.184	18232
909.3	18121
909.415	18182
909.531	18091
909.647	17889
909.762	17942
909.878	17786
909.993	17809
910.108	17870
910.224	17745
910.339	17859
910.454	17878
910.57	17649
910.685	17718
910.8	17752
910.915	17718
911.03	17554
911.145	17486
911.259	17452
911.374	17459
911.489	17322
911.604	17345
911.718	17269
911.833	17223
911.947	17121
912.062	17029
912.176	17056
912.291	17124
912.405	17147
912.519	17341
912.633	17356
912.748	17242
912.862	17086
912.976	17022
913.09	16828
913.204	16938
913.318	16961
913.431	17151
913.545	17064
913.659	17041
913.772	16831
913.886	16809
914	16778
914.113	16869
914.226	16858
914.34	16778
914.453	16592
914.566	16744
914.68	16675
914.793	16588
914.906	16421
915.019	16276
915.132	16363
915.245	16363
915.358	16341
915.47	16413
915.583	16329
915.696	16280
915.809	16474
915.921	16402
916.034	16352
916.146	16238
916.259	16169
916.371	16398
916.483	16223
916.595	16120
916.708	16154
916.82	16166
916.932	16093
917.044	16051
917.156	16078
917.268	15922
917.38	15922
917.491	15781
917.603	15911
917.715	16002
917.826	16025
917.938	15888
918.049	15686
918.161	15880
918.272	16029
918.384	15960
918.495	15865
918.606	15660
918.717	15648
918.828	15587
918.939	15675
919.05	15667
919.161	15591
919.272	15488
919.383	15519
919.494	15751
919.604	15781
919.715	15644
919.826	15584
919.936	15633
920.047	15652
920.157	15652
920.267	15793
920.378	15587
920.488	15561
920.598	15743
920.708	15770
920.818	15812
920.928	15766
921.038	15857
921.148	15770
921.258	15530
921.368	15374
921.477	15329
921.587	15336
921.697	15226
921.806	15363
921.916	15047
922.025	14982
922.134	14986
922.244	14834
922.353	14994
922.462	14804
922.571	14750
922.68	14579
922.789	14590
922.898	14537
923.007	14625
923.116	14655
923.224	14499
923.333	14499
923.442	14415
923.55	14385
923.659	14355
923.767	14366
923.876	14385
923.984	14461
924.092	14320
924.201	14294
924.309	14252
924.417	14267
924.525	14157
924.633	14183
924.741	15085
924.849	14027
924.956	14119
925.064	13936
925.172	13925
925.279	14024
925.387	14054
925.494	13845
925.602	14077
925.709	13989
925.816	13742
925.924	13890
926.031	13906
926.138	13803
926.245	13925
926.352	13723
926.459	13940
926.566	13936
926.673	13791
926.779	13613
926.886	13575
926.993	13468
927.099	13552
927.206	13411
927.312	13430
927.419	13457
927.525	13441
927.631	13430
927.737	13434
927.843	13278
927.95	13156
928.056	13282
928.162	13247
928.267	13225
928.373	13921
928.479	13339
928.585	13160
928.69	13221
928.796	13213
928.901	13095
929.007	12951
929.112	13080
929.218	13126
929.323	12924
929.428	12966
929.533	13145
929.638	12973
929.743	12920
929.848	12954
929.953	12852
930.058	12719
930.163	12521
930.267	12688
930.372	12749
930.477	12559
930.581	12935
930.685	12578
930.79	12494
930.894	12502
930.998	12433
931.103	12540
931.207	12209
931.311	12186
931.415	12026
931.519	11824
931.623	11885
