Data from test_V78500241_3537.txt Node
Date: Fri Mar 25 16:06:18 CST 2022
User: usil
Spectrometer: V785-0024
Trigger mode: 0
Integration Time (sec): 4.000000E-1
Scans to average: 1
Nonlinearity correction enabled: false
Boxcar width: 0
Storing dark spectrum: false
XAxis mode: Wavelengths
Number of Pixels in Spectrum: 1024
>>>>>Begin Spectral Data<<<<<
801.071	28965
801.214	28877
801.356	28641
801.499	28527
801.641	28512
801.783	28516
801.926	28478
802.068	28508
802.211	28390
802.353	28394
802.496	28135
802.638	28322
802.78	28177
802.923	28082
803.065	28135
803.208	28109
803.35	28246
803.492	28360
803.635	28428
803.777	28268
803.919	28379
804.061	28721
804.204	28401
804.346	28337
804.488	28474
804.63	28504
804.773	28200
804.915	28546
805.057	28702
805.199	28672
805.341	28443
805.483	28683
805.626	28592
805.768	28447
805.91	28603
806.052	28592
806.194	28500
806.336	28584
806.478	28702
806.62	28641
806.762	28786
806.904	28934
807.046	29098
807.188	29090
807.33	29094
807.472	29170
807.614	29056
807.756	29003
807.898	28888
808.04	28888
808.182	28934
808.324	28866
808.465	28934
808.607	29402
808.749	29239
808.891	29383
809.033	29440
809.174	29307
809.316	29254
809.458	29193
809.6	29128
809.741	29318
809.883	29436
810.025	29600
810.166	29627
810.308	29566
810.45	29592
810.591	29512
810.733	29379
810.875	29299
811.016	29280
811.158	29239
811.299	29315
811.441	29452
811.582	29433
811.724	29315
811.865	29284
812.007	29296
812.148	29402
812.29	29448
812.431	29570
812.573	29699
812.714	29779
812.855	29840
812.997	29882
813.138	30098
813.279	29965
813.421	29923
813.562	29874
813.703	29687
813.845	29604
813.986	29318
814.127	29067
814.268	28942
814.41	29029
814.551	29102
814.692	29067
814.833	29003
814.974	28972
815.115	29170
815.256	28774
815.397	28877
815.539	28934
815.68	28812
815.821	28729
815.962	28911
816.103	28885
816.244	28691
816.385	28622
816.526	28596
816.666	28474
816.807	28386
816.948	28333
817.089	28440
817.23	28447
817.371	28371
817.512	28325
817.653	28325
817.793	28356
817.934	28424
818.075	28322
818.216	28371
818.356	28409
818.497	28246
818.638	28147
818.778	28013
818.919	28169
819.06	28131
819.2	28341
819.341	28459
819.481	28360
819.622	28527
819.762	28736
819.903	28573
820.043	28500
820.184	28618
820.324	28417
820.465	28664
820.605	28668
820.746	28531
820.886	28337
821.026	28455
821.167	28409
821.307	28417
821.447	28322
821.588	28352
821.728	28078
821.868	28135
822.008	27953
822.149	27937
822.289	27895
822.429	27629
822.569	27603
822.709	27488
822.849	27378
822.99	27336
823.13	27363
823.27	27310
823.41	27199
823.55	27100
823.69	27222
823.83	27192
823.97	27222
824.11	26940
824.25	26849
824.389	27062
824.529	27157
824.669	26986
824.809	27070
824.949	27096
825.089	27131
825.228	27093
825.368	26883
825.508	26739
825.648	26963
825.787	26876
825.927	27005
826.067	26807
826.206	26933
826.346	26895
826.485	26979
826.625	26929
826.765	27047
826.904	27036
827.044	26686
827.183	26606
827.323	26587
827.462	26754
827.601	26602
827.741	26545
827.88	26503
828.02	26659
828.159	26617
828.298	26564
828.437	26712
828.577	26446
828.716	26716
828.855	26453
828.994	26408
829.134	26275
829.273	26366
829.412	26343
829.551	26157
829.69	26366
829.829	26355
829.968	26286
830.107	26362
830.246	26240
830.385	26210
830.524	26298
830.663	26161
830.802	25993
830.941	25963
831.08	25917
831.219	26008
831.357	26035
831.496	26096
831.635	25989
831.774	25784
831.913	25689
832.051	25746
832.19	25803
832.329	25567
832.467	25597
832.606	25601
832.744	25518
832.883	25582
833.022	25597
833.16	25601
833.299	25529
833.437	25502
833.576	25685
833.714	25655
833.852	25761
833.991	25833
834.129	25704
834.267	25578
834.406	25594
834.544	25666
834.682	25601
834.821	25567
834.959	25693
835.097	25548
835.235	25696
835.373	25548
835.511	25521
835.65	25449
835.788	25434
835.926	25533
836.064	25316
836.202	25278
836.34	25491
836.478	25529
836.615	25430
836.753	25582
836.891	25582
837.029	25434
837.167	25396
837.305	25445
837.443	25354
837.58	25255
837.718	25392
837.856	25362
837.993	25301
838.131	25381
838.269	25061
838.406	25213
838.544	25012
838.681	24966
838.819	24882
838.956	24734
839.094	24578
839.231	24745
839.369	24981
839.506	25164
839.643	25038
839.781	24753
839.918	24642
840.055	24745
840.193	24658
840.33	24726
840.467	24677
840.604	24810
840.742	24928
840.879	24452
841.016	24559
841.153	24471
841.29	24837
841.427	24650
841.564	24772
841.701	24684
841.838	24502
841.975	24498
842.112	24589
842.249	24513
842.385	24330
842.522	24612
842.659	24467
842.796	24479
842.933	24486
843.069	24380
843.206	24388
843.343	24433
843.479	24418
843.616	24422
843.752	24140
843.889	24018
844.025	24308
844.162	24163
844.298	24190
844.435	24140
844.571	24197
844.708	24251
844.844	24414
844.98	24319
845.117	24281
845.253	24114
845.389	23969
845.525	24182
845.661	24148
845.798	24003
845.934	23923
846.07	23912
846.206	24018
846.342	23973
846.478	23980
846.614	23634
846.75	23649
846.886	23627
847.022	23657
847.158	23615
847.294	23505
847.429	23668
847.565	23592
847.701	23855
847.837	23406
847.972	23265
848.108	23440
848.244	23444
848.379	23208
848.515	23277
848.65	23318
848.786	23258
848.921	23231
849.057	23387
849.192	23299
849.328	23265
849.463	23124
849.598	23083
849.734	23178
849.869	23105
850.004	22999
850.14	23083
850.275	22942
850.41	22904
850.545	22904
850.68	22904
850.815	23098
850.95	22957
851.085	23277
851.22	23159
851.355	23018
851.49	23041
851.625	23010
851.76	22908
851.895	22839
852.03	22858
852.165	22892
852.299	22892
852.434	23025
852.569	22915
852.703	22934
852.838	23094
852.973	23075
853.107	23250
853.242	23052
853.376	22824
853.511	22679
853.645	22801
853.78	22843
853.914	22816
854.048	22744
854.183	22835
854.317	22885
854.451	22934
854.585	22850
854.72	22771
854.854	22915
854.988	22679
855.122	22881
855.256	22713
855.39	22717
855.524	22923
855.658	22843
855.792	22972
855.926	22866
856.06	22843
856.194	23003
856.327	22869
856.461	22733
856.595	22729
856.729	22771
856.862	22858
856.996	22854
857.13	22904
857.263	22873
857.397	22953
857.53	22790
857.664	22816
857.797	22801
857.931	22949
858.064	22820
858.197	23018
858.331	22858
858.464	22702
858.597	22721
858.731	22809
858.864	22759
858.997	22767
859.13	22892
859.263	22835
859.396	22889
859.529	22831
859.662	22771
859.795	22717
859.928	22934
860.061	22934
860.194	23064
860.327	22759
860.46	22900
860.592	22942
860.725	22961
860.858	23022
860.99	22793
861.123	22748
861.256	22706
861.388	22713
861.521	23535
861.653	22721
861.786	22675
861.918	22565
862.05	22717
862.183	22637
862.315	22736
862.447	22721
862.58	22729
862.712	22596
862.844	22413
862.976	22550
863.108	22527
863.24	23098
863.372	22527
863.504	22565
863.636	22519
863.768	22478
863.9	22584
864.032	22500
864.164	22512
864.296	22535
864.428	22573
864.559	22630
864.691	22592
864.823	22577
864.954	22440
865.086	22489
865.217	22409
865.349	22367
865.48	22394
865.612	22443
865.743	22592
865.875	22421
866.006	22291
866.137	22356
866.269	22375
866.4	22405
866.531	22363
866.662	22219
866.793	22344
866.924	22276
867.055	22398
867.186	22402
867.317	22253
867.448	22188
867.579	22287
867.71	22147
867.841	22204
867.972	22417
868.103	22265
868.233	22508
868.364	22341
868.495	22303
868.625	22512
868.756	22519
868.886	22489
869.017	22573
869.147	22733
869.278	22626
869.408	22531
869.539	22573
869.669	22630
869.799	22565
869.929	22763
870.06	22702
870.19	22881
870.32	22877
870.45	22850
870.58	22896
870.71	23132
870.84	23064
870.97	23079
871.1	22946
871.23	23052
871.36	22999
871.489	23105
871.619	23185
871.749	23235
871.879	23151
872.008	23261
872.138	23132
872.267	23189
872.397	23071
872.526	23060
872.656	22976
872.785	23025
872.915	23189
873.044	23121
873.173	23254
873.303	23166
873.432	23250
873.561	23246
873.69	23136
873.819	23292
873.948	23242
874.077	23170
874.206	22999
874.335	23193
874.464	23353
874.593	23398
874.722	23334
874.851	23433
874.979	23452
875.108	23505
875.237	23288
875.365	23311
875.494	23315
875.623	23368
875.751	23322
875.88	23379
876.008	23482
876.136	23524
876.265	23756
876.393	23878
876.521	23893
876.65	23923
876.778	23805
876.906	23642
877.034	23783
877.162	23840
877.29	23653
877.418	23790
877.546	23733
877.674	23767
877.802	23718
877.93	23687
878.058	23581
878.185	23668
878.313	23657
878.441	23707
878.568	23577
878.696	23653
878.824	23691
878.951	23828
879.079	24064
879.206	24144
879.333	23942
879.461	23817
879.588	23870
879.715	23973
879.842	23980
879.97	23748
880.097	23668
880.224	23543
880.351	23661
880.478	23687
880.605	23383
880.732	23528
880.859	23714
880.986	23474
881.112	23520
881.239	23452
881.366	23223
881.493	23200
881.619	23083
881.746	23075
881.872	23071
881.999	23090
882.125	23022
882.252	22972
882.378	23075
882.505	23189
882.631	22968
882.757	22736
882.883	22778
883.01	22736
883.136	22820
883.262	22565
883.388	22557
883.514	22812
883.64	22877
883.766	22725
883.892	22637
884.018	22630
884.143	22702
884.269	22820
884.395	22360
884.52	22360
884.646	22443
884.772	22390
884.897	22333
885.023	22303
885.148	22569
885.274	22599
885.399	22615
885.524	22443
885.65	22417
885.775	22341
885.9	22303
886.025	22516
886.15	22402
886.275	22303
886.4	22261
886.525	22322
886.65	22261
886.775	22322
886.9	22538
887.025	22649
887.149	22440
887.274	22272
887.399	22135
887.523	22086
887.648	22002
887.773	22044
887.897	22173
888.021	22253
888.146	22036
888.27	22287
888.395	22207
888.519	22120
888.643	22154
888.767	22093
888.891	22067
889.015	21956
889.139	22048
889.263	21934
889.387	22101
889.511	22158
889.635	22013
889.759	21911
889.883	21934
890.006	22074
890.13	21975
890.254	21854
890.377	21899
890.501	21732
890.624	21606
890.748	21701
890.871	21553
890.995	21599
891.118	21363
891.241	21439
891.364	21469
891.488	21572
891.611	21420
891.734	21511
891.857	21572
891.98	21587
892.103	21511
892.226	21435
892.349	21351
892.471	21321
892.594	21428
892.717	21485
892.839	21416
892.962	21408
893.085	21450
893.207	21458
893.33	21203
893.452	21393
893.575	21454
893.697	21279
893.819	21473
893.941	21507
894.064	21473
894.186	21306
894.308	21230
894.43	21568
894.552	21431
894.674	21454
894.796	21218
894.918	21260
895.04	21355
895.161	21488
895.283	21268
895.405	21294
895.526	21310
895.648	21351
895.769	21416
895.891	21359
896.012	21397
896.134	21393
896.255	21401
896.376	21306
896.498	21351
896.619	21401
896.74	21302
896.861	21351
896.982	21679
897.103	21739
897.224	21530
897.345	21599
897.466	21545
897.587	21519
897.708	21606
897.828	21667
897.949	21496
898.07	21359
898.19	21473
898.311	21618
898.431	21374
898.552	21561
898.672	21507
898.792	21656
898.913	21549
899.033	21538
899.153	21416
899.273	21359
899.393	21256
899.513	21382
899.633	21329
899.753	21275
899.873	21184
899.993	21291
900.113	21184
900.232	21241
900.352	21104
900.472	21119
900.591	20952
900.711	20944
900.83	20998
900.95	21165
901.069	21062
901.189	20891
901.308	20724
901.427	20659
901.546	20545
901.665	20609
901.784	20556
901.904	20431
902.023	20476
902.141	20069
902.26	20046
902.379	20237
902.498	20122
902.617	19982
902.735	20130
902.854	20164
902.973	19993
903.091	19826
903.21	19833
903.328	19799
903.446	19696
903.565	19582
903.683	19655
903.801	19441
903.919	19525
904.038	19514
904.156	19396
904.274	19289
904.392	19217
904.51	19202
904.627	19335
904.745	19312
904.863	19346
904.981	19015
905.098	18939
905.216	18962
905.334	19027
905.451	19012
905.569	18985
905.686	18928
905.803	18935
905.921	18749
906.038	18730
906.155	18802
906.272	18730
906.389	18722
906.506	18460
906.623	18445
906.74	18566
906.857	18384
906.974	18365
907.091	18547
907.208	18521
907.324	18445
907.441	18319
907.557	18346
907.674	18228
907.79	18144
907.907	18178
908.023	18205
908.139	18327
908.256	18239
908.372	18068
908.488	18007
908.604	17904
908.72	17870
908.836	17916
908.952	17882
909.068	17923
909.184	17969
909.3	17920
909.415	17973
909.531	17836
909.647	17630
909.762	17630
909.878	17592
909.993	17619
910.108	17649
910.224	17615
910.339	17459
910.454	17471
910.57	17353
910.685	17208
910.8	17608
910.915	17539
911.03	17429
911.145	17132
911.259	17170
911.374	17231
911.489	17151
911.604	17079
911.718	16915
911.833	16881
911.947	16828
912.062	16744
912.176	16896
912.291	16919
912.405	16915
912.519	17117
912.633	17121
912.748	16885
912.862	16915
912.976	16744
913.09	16573
913.204	16618
913.318	16755
913.431	16774
913.545	16858
913.659	16828
913.772	16683
913.886	16573
914	16523
914.113	16637
914.226	16527
914.34	16561
914.453	16440
914.566	16497
914.68	16356
914.793	16287
914.906	16242
915.019	16150
915.132	15987
915.245	15972
915.358	16097
915.47	16059
915.583	16074
915.696	16036
915.809	16169
915.921	16162
916.034	15979
916.146	15983
916.259	15937
916.371	15983
916.483	16010
916.595	15911
916.708	15899
916.82	15903
916.932	15895
917.044	15732
917.156	15831
917.268	15648
917.38	15701
917.491	15534
917.603	15728
917.715	15633
917.826	15793
917.938	15618
918.049	15530
918.161	15587
918.272	15732
918.384	15728
918.495	15618
918.606	15500
918.717	15325
918.828	15477
918.939	15348
919.05	15386
919.161	15348
919.272	15184
919.383	15161
919.494	15412
919.604	15500
919.715	15420
919.826	15298
919.936	15294
920.047	15488
920.157	15351
920.267	15580
920.378	15393
920.488	15348
920.598	15557
920.708	15728
920.818	15511
920.928	15504
921.038	15671
921.148	15614
921.258	15306
921.368	15180
921.477	15180
921.587	15077
921.697	14918
921.806	15032
921.916	14948
922.025	14754
922.134	14705
922.244	14659
922.353	14716
922.462	14625
922.571	14545
922.68	14317
922.789	14358
922.898	14469
923.007	14290
923.116	14351
923.224	14434
923.333	14259
923.442	14172
923.55	14199
923.659	14229
923.767	14267
923.876	14149
923.984	14202
924.092	14020
924.201	14157
924.309	14016
924.417	14119
924.525	14001
924.633	14065
924.741	14963
924.849	13791
924.956	13921
925.064	13868
925.172	13685
925.279	13750
925.387	13776
925.494	13651
925.602	13803
925.709	13761
925.816	13674
925.924	13597
926.031	13674
926.138	13643
926.245	13708
926.352	13525
926.459	13738
926.566	13708
926.673	13636
926.779	13521
926.886	13468
926.993	13396
927.099	13331
927.206	13247
927.312	13194
927.419	13244
927.525	13221
927.631	13236
927.737	13137
927.843	13088
927.95	12935
928.056	13061
928.162	13095
928.267	13103
928.373	13746
928.479	13088
928.585	13027
928.69	13091
928.796	13004
928.901	12882
929.007	12734
929.112	12840
929.218	12859
929.323	12764
929.428	12859
929.533	12871
929.638	12635
929.743	12745
929.848	12764
929.953	12722
930.058	12559
930.163	12410
930.267	12429
930.372	12582
930.477	12437
930.581	12623
930.685	12471
930.79	12292
930.894	12369
930.998	12247
931.103	12448
931.207	12064
931.311	12034
931.415	11840
931.519	11729
931.623	11741
