Data from test_V78500241_2305.txt Node
Date: Fri Mar 25 15:57:46 CST 2022
User: usil
Spectrometer: V785-0024
Trigger mode: 0
Integration Time (sec): 4.000000E-1
Scans to average: 1
Nonlinearity correction enabled: false
Boxcar width: 0
Storing dark spectrum: false
XAxis mode: Wavelengths
Number of Pixels in Spectrum: 1024
>>>>>Begin Spectral Data<<<<<
801.071	28839
801.214	28740
801.356	28584
801.499	28630
801.641	28557
801.783	28577
801.926	28557
802.068	28580
802.211	28481
802.353	28424
802.496	28200
802.638	28246
802.78	28192
802.923	28017
803.065	27991
803.208	28154
803.35	28093
803.492	28181
803.635	28398
803.777	28367
803.919	28428
804.061	28786
804.204	28478
804.346	28455
804.488	28394
804.63	28375
804.773	28287
804.915	28390
805.057	28683
805.199	28508
805.341	28512
805.483	28516
805.626	28641
805.768	28535
805.91	28683
806.052	28580
806.194	28622
806.336	28523
806.478	28683
806.62	28672
806.762	28694
806.904	28968
807.046	29151
807.188	28957
807.33	29083
807.472	29204
807.614	28980
807.756	29090
807.898	28885
808.04	28809
808.182	28908
808.324	29067
808.465	28892
808.607	29223
808.749	29261
808.891	29410
809.033	29482
809.174	29455
809.316	29189
809.458	29303
809.6	29258
809.741	29269
809.883	29455
810.025	29581
810.166	29505
810.308	29539
810.45	29528
810.591	29482
810.733	29288
810.875	29349
811.016	29269
811.158	29292
811.299	29296
811.441	29330
811.582	29474
811.724	29395
811.865	29349
812.007	29242
812.148	29383
812.29	29277
812.431	29543
812.573	29608
812.714	29589
812.855	29840
812.997	29942
813.138	30007
813.279	29916
813.421	29783
813.562	29764
813.703	29657
813.845	29459
813.986	29254
814.127	29124
814.268	29105
814.41	29113
814.551	28976
814.692	29197
814.833	29033
814.974	28991
815.115	28930
815.256	28866
815.397	28843
815.539	28911
815.68	28694
815.821	28774
815.962	28908
816.103	28744
816.244	28645
816.385	28645
816.526	28641
816.666	28516
816.807	28310
816.948	28523
817.089	28554
817.23	28291
817.371	28185
817.512	28379
817.653	28367
817.793	28268
817.934	28253
818.075	28367
818.216	28318
818.356	28318
818.497	28242
818.638	28093
818.778	28116
818.919	27968
819.06	28150
819.2	28325
819.341	28386
819.481	28424
819.622	28645
819.762	28649
819.903	28626
820.043	28474
820.184	28432
820.324	28466
820.465	28561
820.605	28440
820.746	28371
820.886	28352
821.026	28466
821.167	28322
821.307	28527
821.447	28287
821.588	28322
821.728	28139
821.868	27991
822.008	27846
822.149	27747
822.289	27812
822.429	27561
822.569	27545
822.709	27477
822.849	27427
822.99	27317
823.13	27283
823.27	27192
823.41	27199
823.55	27024
823.69	27287
823.83	27131
823.97	27146
824.11	26864
824.25	26940
824.389	26933
824.529	27195
824.669	26948
824.809	27192
824.949	27013
825.089	27058
825.228	26952
825.368	26880
825.508	26826
825.648	26765
825.787	26940
825.927	26967
826.067	26887
826.206	26834
826.346	26891
826.485	26940
826.625	26731
826.765	27024
826.904	26883
827.044	26629
827.183	26758
827.323	26492
827.462	26575
827.601	26476
827.741	26473
827.88	26663
828.02	26427
828.159	26419
828.298	26587
828.437	26533
828.577	26541
828.716	26651
828.855	26370
828.994	26328
829.134	26214
829.273	26278
829.412	26168
829.551	26119
829.69	26100
829.829	26290
829.968	26339
830.107	26370
830.246	26229
830.385	26309
830.524	26202
830.663	26020
830.802	26027
830.941	25845
831.08	25906
831.219	25921
831.357	26001
831.496	26107
831.635	25833
831.774	25826
831.913	25784
832.051	25597
832.19	25632
832.329	25620
832.467	25662
832.606	25552
832.744	25499
832.883	25552
833.022	25441
833.16	25556
833.299	25518
833.437	25510
833.576	25643
833.714	25624
833.852	25704
833.991	25624
834.129	25681
834.267	25727
834.406	25624
834.544	25662
834.682	25514
834.821	25559
834.959	25670
835.097	25594
835.235	25613
835.373	25597
835.511	25575
835.65	25396
835.788	25445
835.926	25312
836.064	25217
836.202	25240
836.34	25434
836.478	25403
836.615	25434
836.753	25343
836.891	25403
837.029	25438
837.167	25301
837.305	25289
837.443	25285
837.58	25171
837.718	25331
837.856	25263
837.993	25168
838.131	25278
838.269	25228
838.406	25251
838.544	24996
838.681	24806
838.819	24825
838.956	24703
839.094	24669
839.231	24673
839.369	24852
839.506	25065
839.643	24958
839.781	24681
839.918	24806
840.055	24681
840.193	24700
840.33	24521
840.467	24642
840.604	24570
840.742	24894
840.879	24559
841.016	24616
841.153	24395
841.29	24673
841.427	24471
841.564	24753
841.701	24582
841.838	24551
841.975	24555
842.112	24601
842.249	24422
842.385	24384
842.522	24395
842.659	24456
842.796	24273
842.933	24224
843.069	24262
843.206	24327
843.343	24338
843.479	24445
843.616	24277
843.752	24148
843.889	24125
844.025	24296
844.162	24190
844.298	24129
844.435	24102
844.571	24102
844.708	24114
844.844	24281
844.98	24296
845.117	24285
845.253	24079
845.389	23999
845.525	23874
845.661	23923
845.798	23794
845.934	23870
846.07	23794
846.206	23828
846.342	24026
846.478	23729
846.614	23699
846.75	23657
846.886	23558
847.022	23707
847.158	23585
847.294	23516
847.429	23623
847.565	23608
847.701	23866
847.837	23296
847.972	23356
848.108	23387
848.244	23273
848.379	23216
848.515	23162
848.65	23246
848.786	23140
848.921	23250
849.057	23334
849.192	23216
849.328	23258
849.463	23216
849.598	23185
849.734	22957
849.869	22885
850.004	22934
850.14	23018
850.275	22999
850.41	22847
850.545	22862
850.68	22953
850.815	22957
850.95	22835
851.085	23223
851.22	23033
851.355	22965
851.49	22892
851.625	22877
851.76	22889
851.895	22942
852.03	22782
852.165	22927
852.299	22790
852.434	23060
852.569	22862
852.703	22927
852.838	22949
852.973	23044
853.107	23022
853.242	22809
853.376	22740
853.511	22649
853.645	22630
853.78	22854
853.914	22847
854.048	22622
854.183	22710
854.317	22850
854.451	22885
854.585	22755
854.72	22740
854.854	22801
854.988	22672
855.122	22763
855.256	22630
855.39	22793
855.524	22759
855.658	22748
855.792	22744
855.926	22793
856.06	22729
856.194	22892
856.327	22660
856.461	22626
856.595	22599
856.729	22725
856.862	22858
856.996	22809
857.13	22854
857.263	22805
857.397	22831
857.53	22653
857.664	22733
857.797	22740
857.931	22812
858.064	22752
858.197	22786
858.331	22752
858.464	22664
858.597	22634
858.731	22634
858.864	22672
858.997	22694
859.13	22626
859.263	22854
859.396	22790
859.529	22790
859.662	22713
859.795	22679
859.928	22733
860.061	22869
860.194	22850
860.327	22793
860.46	22675
860.592	22809
860.725	22896
860.858	22805
860.99	22820
861.123	22592
861.256	22771
861.388	22797
861.521	23398
861.653	22634
861.786	22580
861.918	22497
862.05	22557
862.183	22729
862.315	22694
862.447	22630
862.58	22645
862.712	22474
862.844	22443
862.976	22573
863.108	22565
863.24	23033
863.372	22287
863.504	22379
863.636	22519
863.768	22382
863.9	22394
864.032	22276
864.164	22436
864.296	22546
864.428	22596
864.559	22653
864.691	22577
864.823	22512
864.954	22474
865.086	22542
865.217	22287
865.349	22188
865.48	22352
865.612	22314
865.743	22337
865.875	22413
866.006	22253
866.137	22375
866.269	22306
866.4	22303
866.531	22230
866.662	22158
866.793	22154
866.924	22280
867.055	22261
867.186	22230
867.317	22150
867.448	22074
867.579	22192
867.71	22211
867.841	22154
867.972	22272
868.103	22261
868.233	22188
868.364	22322
868.495	22295
868.625	22432
868.756	22615
868.886	22462
869.017	22386
869.147	22478
869.278	22615
869.408	22443
869.539	22546
869.669	22535
869.799	22550
869.929	22535
870.06	22478
870.19	22816
870.32	22904
870.45	22786
870.58	22869
870.71	23003
870.84	22984
870.97	22763
871.1	22934
871.23	23025
871.36	23003
871.489	22972
871.619	23185
871.749	23064
871.879	23014
872.008	23273
872.138	23003
872.267	23048
872.397	23010
872.526	23006
872.656	22961
872.785	22919
872.915	23162
873.044	23117
873.173	23014
873.303	23025
873.432	23178
873.561	23162
873.69	23140
873.819	23033
873.948	23147
874.077	23216
874.206	23094
874.335	23041
874.464	23254
874.593	23269
874.722	23349
874.851	23334
874.979	23254
875.108	23398
875.237	23337
875.365	23185
875.494	23315
875.623	23360
875.751	23216
875.88	23318
876.008	23482
876.136	23547
876.265	23748
876.393	23824
876.521	23775
876.65	23813
876.778	23611
876.906	23490
877.034	23634
877.162	23573
877.29	23676
877.418	23661
877.546	23722
877.674	23726
877.802	23756
877.93	23684
878.058	23608
878.185	23531
878.313	23611
878.441	23684
878.568	23425
878.696	23501
878.824	23684
878.951	23726
879.079	23786
879.206	23748
879.333	23863
879.461	23710
879.588	23824
879.715	23771
879.842	23965
879.97	23752
880.097	23524
880.224	23440
880.351	23379
880.478	23459
880.605	23410
880.732	23421
880.859	23604
880.986	23463
881.112	23452
881.239	23497
881.366	23216
881.493	23094
881.619	22949
881.746	23052
881.872	23155
881.999	22961
882.125	23128
882.252	22961
882.378	23003
882.505	23075
882.631	22904
882.757	22759
882.883	22828
883.01	22615
883.136	22694
883.262	22573
883.388	22527
883.514	22622
883.64	22713
883.766	22653
883.892	22478
884.018	22447
884.143	22664
884.269	22729
884.395	22432
884.52	22215
884.646	22360
884.772	22207
884.897	22276
885.023	22451
885.148	22577
885.274	22481
885.399	22474
885.524	22318
885.65	22329
885.775	22207
885.9	22200
886.025	22337
886.15	22398
886.275	22337
886.4	22242
886.525	22276
886.65	22238
886.775	22215
886.9	22306
887.025	22527
887.149	22306
887.274	22143
887.399	22169
887.523	22063
887.648	21949
887.773	21979
887.897	22067
888.021	22226
888.146	22021
888.27	22067
888.395	22109
888.519	22067
888.643	22143
888.767	22048
888.891	21998
889.015	21762
889.139	21884
889.263	21701
889.387	21983
889.511	22181
889.635	22032
889.759	21884
889.883	21819
890.006	21861
890.13	22067
890.254	21759
890.377	21793
890.501	21739
890.624	21599
890.748	21690
890.871	21519
890.995	21336
891.118	21458
891.241	21416
891.364	21515
891.488	21507
891.611	21393
891.734	21367
891.857	21401
891.98	21363
892.103	21386
892.226	21370
892.349	21351
892.471	21195
892.594	21233
892.717	21348
892.839	21272
892.962	21264
893.085	21374
893.207	21264
893.33	21047
893.452	21226
893.575	21291
893.697	21249
893.819	21454
893.941	21431
894.064	21431
894.186	21233
894.308	21230
894.43	21321
894.552	21458
894.674	21386
894.796	21203
894.918	21233
895.04	21382
895.161	21332
895.283	21237
895.405	21256
895.526	21279
895.648	21226
895.769	21169
895.891	21359
896.012	21192
896.134	21321
896.255	21233
896.376	21252
896.498	21302
896.619	21275
896.74	21260
896.861	21321
896.982	21587
897.103	21686
897.224	21572
897.345	21496
897.466	21450
897.587	21443
897.708	21629
897.828	21625
897.949	21443
898.07	21310
898.19	21389
898.311	21542
898.431	21435
898.552	21458
898.672	21488
898.792	21603
898.913	21534
899.033	21344
899.153	21180
899.273	21154
899.393	21211
899.513	21207
899.633	21123
899.753	21096
899.873	21150
899.993	21131
900.113	21070
900.232	21131
900.352	21135
900.472	21093
900.591	20876
900.711	21104
900.83	21009
900.95	21055
901.069	20998
901.189	20796
901.308	20606
901.427	20488
901.546	20575
901.665	20503
901.784	20499
901.904	20374
902.023	20385
902.141	20161
902.26	20035
902.379	20161
902.498	20145
902.617	19978
902.735	20073
902.854	20065
902.973	19921
903.091	19670
903.21	19575
903.328	19734
903.446	19712
903.565	19525
903.683	19578
903.801	19430
903.919	19373
904.038	19396
904.156	19285
904.274	19285
904.392	19274
904.51	19065
904.627	19069
904.745	19274
904.863	19301
904.981	19015
905.098	18825
905.216	18935
905.334	18886
905.451	18867
905.569	18966
905.686	18981
905.803	18993
905.921	18650
906.038	18753
906.155	18612
906.272	18719
906.389	18578
906.506	18506
906.623	18433
906.74	18365
906.857	18304
906.974	18357
907.091	18410
907.208	18559
907.324	18494
907.441	18281
907.557	18159
907.674	18171
907.79	18064
907.907	18060
908.023	18121
908.139	18110
908.256	18026
908.372	18011
908.488	17996
908.604	17889
908.72	17824
908.836	17775
908.952	17760
909.068	17863
909.184	17901
909.3	17859
909.415	17889
909.531	17893
909.647	17638
909.762	17539
909.878	17501
909.993	17512
910.108	17512
910.224	17558
910.339	17596
910.454	17364
910.57	17303
910.685	17265
910.8	17615
910.915	17482
911.03	17296
911.145	17273
911.259	17086
911.374	17086
911.489	17037
911.604	16965
911.718	16862
911.833	16809
911.947	16755
912.062	16725
912.176	16854
912.291	16942
912.405	16847
912.519	17003
912.633	16999
912.748	16976
912.862	16763
912.976	16710
913.09	16599
913.204	16588
913.318	16634
913.431	16755
913.545	16771
913.659	16736
913.772	16550
913.886	16409
914	16565
914.113	16519
914.226	16592
914.34	16546
914.453	16299
914.566	16485
914.68	16284
914.793	16192
914.906	16128
915.019	16029
915.132	16040
915.245	15956
915.358	15998
915.47	16021
915.583	16010
915.696	16097
915.809	16166
915.921	16188
916.034	15937
916.146	15816
916.259	15846
916.371	15968
916.483	16021
916.595	15766
916.708	15846
916.82	15873
916.932	15873
917.044	15857
917.156	15770
917.268	15682
917.38	15622
917.491	15557
917.603	15694
917.715	15618
917.826	15781
917.938	15576
918.049	15439
918.161	15648
918.272	15698
918.384	15694
918.495	15515
918.606	15435
918.717	15367
918.828	15386
918.939	15523
919.05	15329
919.161	15340
919.272	15188
919.383	15203
919.494	15310
919.604	15545
919.715	15355
919.826	15310
919.936	15336
920.047	15298
920.157	15348
920.267	15530
920.378	15351
920.488	15287
920.598	15587
920.708	15641
920.818	15382
920.928	15469
921.038	15629
921.148	15622
921.258	15310
921.368	15192
921.477	15100
921.587	14998
921.697	14880
921.806	14971
921.916	14811
922.025	14823
922.134	14712
922.244	14583
922.353	14708
922.462	14507
922.571	14537
922.68	14370
922.789	14412
922.898	14362
923.007	14336
923.116	14396
923.224	14229
923.333	14237
923.442	14225
923.55	14142
923.659	14145
923.767	14157
923.876	14088
923.984	14218
924.092	14005
924.201	14035
924.309	14012
924.417	14008
924.525	13875
924.633	13917
924.741	14895
924.849	13750
924.956	13898
925.064	13742
925.172	13578
925.279	13677
925.387	13738
925.494	13620
925.602	13830
925.709	13693
925.816	13578
925.924	13510
926.031	13696
926.138	13575
926.245	13624
926.352	13422
926.459	13670
926.566	13616
926.673	13666
926.779	13441
926.886	13422
926.993	13225
927.099	13206
927.206	13137
927.312	13171
927.419	13282
927.525	13206
927.631	13202
927.737	13194
927.843	13118
927.95	13000
928.056	13069
928.162	13061
928.267	13057
928.373	13590
928.479	13053
928.585	12726
928.69	12989
928.796	12970
928.901	12802
929.007	12715
929.112	12878
929.218	12840
929.323	12787
929.428	12662
929.533	12867
929.638	12623
929.743	12764
929.848	12753
929.953	12677
930.058	12589
930.163	12330
930.267	12490
930.372	12563
930.477	12353
930.581	12658
930.685	12464
930.79	12330
930.894	12365
930.998	12353
931.103	12384
931.207	11988
931.311	11973
931.415	11813
931.519	11676
931.623	11615
