Data from test_V78500241_1293.txt Node
Date: Fri Mar 25 15:50:45 CST 2022
User: usil
Spectrometer: V785-0024
Trigger mode: 0
Integration Time (sec): 4.000000E-1
Scans to average: 1
Nonlinearity correction enabled: false
Boxcar width: 0
Storing dark spectrum: false
XAxis mode: Wavelengths
Number of Pixels in Spectrum: 1024
>>>>>Begin Spectral Data<<<<<
801.071	28333
801.214	28265
801.356	28230
801.499	28128
801.641	27842
801.783	28074
801.926	27960
802.068	28010
802.211	27770
802.353	27705
802.496	27660
802.638	27526
802.78	27724
802.923	27500
803.065	27538
803.208	27443
803.35	27625
803.492	27755
803.635	27911
803.777	27819
803.919	27823
804.061	28200
804.204	27869
804.346	27808
804.488	27778
804.63	27701
804.773	27698
804.915	27667
805.057	28002
805.199	27747
805.341	27869
805.483	27930
805.626	27968
805.768	27983
805.91	27930
806.052	28017
806.194	27914
806.336	27994
806.478	27987
806.62	28044
806.762	28135
806.904	28223
807.046	28542
807.188	28470
807.33	28409
807.472	28500
807.614	28268
807.756	28500
807.898	28158
808.04	28253
808.182	28287
808.324	28314
808.465	28280
808.607	28481
808.749	28687
808.891	28755
809.033	28774
809.174	28702
809.316	28611
809.458	28577
809.6	28470
809.741	28733
809.883	28668
810.025	28942
810.166	28911
810.308	28961
810.45	28892
810.591	28816
810.733	28824
810.875	28561
811.016	28592
811.158	28645
811.299	28774
811.441	28668
811.582	28790
811.724	28744
811.865	28554
812.007	28774
812.148	28596
812.29	28710
812.431	28854
812.573	29041
812.714	29067
812.855	29136
812.997	29117
813.138	29387
813.279	29360
813.421	29212
813.562	29159
813.703	29033
813.845	28968
813.986	28573
814.127	28493
814.268	28405
814.41	28401
814.551	28360
814.692	28451
814.833	28428
814.974	28428
815.115	28436
815.256	28276
815.397	28284
815.539	28348
815.68	28078
815.821	28040
815.962	28185
816.103	28139
816.244	28021
816.385	27987
816.526	27987
816.666	27690
816.807	27770
816.948	27846
817.089	27641
817.23	27720
817.371	27751
817.512	27614
817.653	27747
817.793	27622
817.934	27709
818.075	27667
818.216	27781
818.356	27679
818.497	27507
818.638	27542
818.778	27431
818.919	27469
819.06	27504
819.2	27652
819.341	27576
819.481	27549
819.622	27835
819.762	28017
819.903	27994
820.043	27911
820.184	27762
820.324	27679
820.465	27876
820.605	27713
820.746	27778
820.886	27633
821.026	27789
821.167	27713
821.307	27812
821.447	27743
821.588	27595
821.728	27526
821.868	27291
822.008	27154
822.149	27188
822.289	27142
822.429	26868
822.569	26883
822.709	26864
822.849	26701
822.99	26644
823.13	26556
823.27	26480
823.41	26393
823.55	26393
823.69	26412
823.83	26476
823.97	26457
824.11	26275
824.25	26301
824.389	26374
824.529	26389
824.669	26237
824.809	26298
824.949	26442
825.089	26267
825.228	26286
825.368	26103
825.508	26145
825.648	26153
825.787	26233
825.927	26225
826.067	25982
826.206	26187
826.346	26134
826.485	26320
826.625	26210
826.765	26214
826.904	26180
827.044	26058
827.183	25982
827.323	25917
827.462	26054
827.601	26031
827.741	25856
827.88	25928
828.02	25750
828.159	25841
828.298	25944
828.437	25959
828.577	25917
828.716	25966
828.855	25731
828.994	25803
829.134	25559
829.273	25628
829.412	25506
829.551	25430
829.69	25544
829.829	25666
829.968	25761
830.107	25662
830.246	25601
830.385	25552
830.524	25468
830.663	25415
830.802	25251
830.941	25110
831.08	25095
831.219	25293
831.357	25266
831.496	25301
831.635	25088
831.774	25091
831.913	25057
832.051	25019
832.19	24859
832.329	25042
832.467	24951
832.606	24954
832.744	24825
832.883	24935
833.022	24863
833.16	24897
833.299	24692
833.437	24856
833.576	24901
833.714	24905
833.852	25050
833.991	24970
834.129	25046
834.267	25000
834.406	25038
834.544	24996
834.682	24970
834.821	24878
834.959	25091
835.097	24840
835.235	24989
835.373	24844
835.511	24783
835.65	24844
835.788	24726
835.926	24665
836.064	24517
836.202	24566
836.34	24757
836.478	24848
836.615	24795
836.753	24673
836.891	24798
837.029	24886
837.167	24715
837.305	24795
837.443	24627
837.58	24486
837.718	24684
837.856	24650
837.993	24589
838.131	24563
838.269	24445
838.406	24464
838.544	24433
838.681	24182
838.819	24041
838.956	24076
839.094	24041
839.231	24114
839.369	24235
839.506	24467
839.643	24308
839.781	23992
839.918	23988
840.055	24079
840.193	23916
840.33	23878
840.467	24022
840.604	24079
840.742	24209
840.879	23920
841.016	23741
841.153	23809
841.29	24079
841.427	23961
841.564	24083
841.701	23958
841.838	23893
841.975	23813
842.112	23794
842.249	23783
842.385	23805
842.522	23980
842.659	23729
842.796	23687
842.933	23722
843.069	23726
843.206	23733
843.343	23695
843.479	23828
843.616	23722
843.752	23551
843.889	23531
844.025	23627
844.162	23486
844.298	23520
844.435	23474
844.571	23406
844.708	23478
844.844	23573
844.98	23668
845.117	23528
845.253	23345
845.389	23303
845.525	23318
845.661	23379
845.798	23216
845.934	23136
846.07	23166
846.206	23212
846.342	23315
846.478	23216
846.614	22965
846.75	22774
846.886	22873
847.022	22987
847.158	23033
847.294	22923
847.429	22911
847.565	22968
847.701	23166
847.837	22656
847.972	22824
848.108	22721
848.244	22702
848.379	22565
848.515	22508
848.65	22432
848.786	22519
848.921	22531
849.057	22538
849.192	22656
849.328	22649
849.463	22478
849.598	22577
849.734	22394
849.869	22413
850.004	22337
850.14	22188
850.275	22291
850.41	22181
850.545	22268
850.68	22185
850.815	22367
850.95	22299
851.085	22386
851.22	22424
851.355	22280
851.49	22223
851.625	22238
851.76	22192
851.895	22158
852.03	22120
852.165	22185
852.299	22287
852.434	22238
852.569	22424
852.703	22299
852.838	22375
852.973	22409
853.107	22443
853.242	22268
853.376	22128
853.511	22051
853.645	21987
853.78	22143
853.914	22032
854.048	22090
854.183	22063
854.317	22124
854.451	22303
854.585	22139
854.72	22143
854.854	22185
854.988	22055
855.122	22093
855.256	21918
855.39	22135
855.524	22204
855.658	22124
855.792	22181
855.926	22150
856.06	22051
856.194	22196
856.327	22086
856.461	22112
856.595	21987
856.729	22181
856.862	22223
856.996	22162
857.13	22139
857.263	22242
857.397	22188
857.53	22143
857.664	22105
857.797	22150
857.931	22166
858.064	22181
858.197	22150
858.331	22086
858.464	22116
858.597	22010
858.731	21972
858.864	22040
858.997	22032
859.13	22162
859.263	21975
859.396	22150
859.529	22135
859.662	22025
859.795	21941
859.928	22055
860.061	22238
860.194	22322
860.327	22246
860.46	22169
860.592	22253
860.725	22200
860.858	22249
860.99	22131
861.123	21998
861.256	22036
861.388	22036
861.521	22782
861.653	21842
861.786	21835
861.918	21903
862.05	21907
862.183	21930
862.315	22013
862.447	22093
862.58	22097
862.712	21732
862.844	21842
862.976	21895
863.108	21998
863.24	22120
863.372	21762
863.504	21785
863.636	21823
863.768	21793
863.9	21960
864.032	21808
864.164	21671
864.296	21895
864.428	21941
864.559	21823
864.691	21899
864.823	21736
864.954	21835
865.086	21789
865.217	21762
865.349	21603
865.48	21675
865.612	21751
865.743	21774
865.875	21751
866.006	21698
866.137	21717
866.269	21694
866.4	21667
866.531	21606
866.662	21614
866.793	21587
866.924	21641
867.055	21663
867.186	21599
867.317	21564
867.448	21583
867.579	21557
867.71	21572
867.841	21500
867.972	21538
868.103	21599
868.233	21583
868.364	21603
868.495	21717
868.625	21835
868.756	22048
868.886	21766
869.017	21755
869.147	21835
869.278	22010
869.408	21918
869.539	21743
869.669	21823
869.799	22013
869.929	21949
870.06	21964
870.19	22333
870.32	22078
870.45	22200
870.58	22287
870.71	22375
870.84	22226
870.97	22242
871.1	22295
871.23	22417
871.36	22451
871.489	22451
871.619	22447
871.749	22546
871.879	22379
872.008	22546
872.138	22394
872.267	22462
872.397	22371
872.526	22303
872.656	22162
872.785	22242
872.915	22493
873.044	22561
873.173	22527
873.303	22413
873.432	22554
873.561	22550
873.69	22466
873.819	22519
873.948	22672
874.077	22569
874.206	22394
874.335	22607
874.464	22588
874.593	22656
874.722	22584
874.851	22630
874.979	22691
875.108	22691
875.237	22664
875.365	22622
875.494	22729
875.623	22748
875.751	22664
875.88	22656
876.008	22820
876.136	22809
876.265	23124
876.393	23155
876.521	23174
876.65	23162
876.778	23064
876.906	22987
877.034	22949
877.162	23117
877.29	22980
877.418	23105
877.546	22999
877.674	22965
877.802	23052
877.93	23105
878.058	22965
878.185	22961
878.313	22957
878.441	23044
878.568	22820
878.696	22953
878.824	23060
878.951	23083
879.079	23071
879.206	23349
879.333	23341
879.461	23121
879.588	23235
879.715	23254
879.842	23296
879.97	23067
880.097	22767
880.224	22755
880.351	22847
880.478	22923
880.605	22763
880.732	22790
880.859	23174
880.986	22984
881.112	22786
881.239	22759
881.366	22546
881.493	22504
881.619	22436
881.746	22702
881.872	22329
881.999	22363
882.125	22390
882.252	22417
882.378	22409
882.505	22516
882.631	22478
882.757	22109
882.883	22280
883.01	22158
883.136	21979
883.262	22044
883.388	21956
883.514	22181
883.64	22204
883.766	21991
883.892	21827
884.018	21850
884.143	21960
884.269	22059
884.395	21873
884.52	21751
884.646	21804
884.772	21743
884.897	21618
885.023	21835
885.148	21869
885.274	21831
885.399	21694
885.524	21755
885.65	21827
885.775	21701
885.9	21717
886.025	21835
886.15	21838
886.275	21797
886.4	21542
886.525	21675
886.65	21625
886.775	21644
886.9	21804
887.025	21987
887.149	21625
887.274	21428
887.399	21393
887.523	21488
887.648	21488
887.773	21454
887.897	21488
888.021	21435
888.146	21416
888.27	21587
888.395	21587
888.519	21469
888.643	21553
888.767	21488
888.891	21431
889.015	21279
889.139	21344
889.263	21256
889.387	21344
889.511	21515
889.635	21386
889.759	21260
889.883	21428
890.006	21298
890.13	21443
890.254	21203
890.377	21233
890.501	21024
890.624	20967
890.748	21036
890.871	20929
890.995	20857
891.118	20811
891.241	20880
891.364	20815
891.488	21028
891.611	20830
891.734	20906
891.857	20933
891.98	20826
892.103	20918
892.226	20845
892.349	20682
892.471	20705
892.594	20826
892.717	20781
892.839	20807
892.962	20769
893.085	20853
893.207	20731
893.33	20701
893.452	20564
893.575	20815
893.697	20636
893.819	20838
893.941	20998
894.064	20925
894.186	20667
894.308	20571
894.43	20792
894.552	20872
894.674	20838
894.796	20640
894.918	20648
895.04	20663
895.161	20743
895.283	20785
895.405	20750
895.526	20621
895.648	20708
895.769	20788
895.891	20743
896.012	20785
896.134	20731
896.255	20743
896.376	20678
896.498	20804
896.619	20750
896.74	20739
896.861	20705
896.982	21074
897.103	21230
897.224	20895
897.345	21043
897.466	20830
897.587	20963
897.708	21043
897.828	21013
897.949	21036
898.07	20857
898.19	20902
898.311	20941
898.431	21013
898.552	20872
898.672	20948
898.792	21024
898.913	20872
899.033	20815
899.153	20758
899.273	20663
899.393	20743
899.513	20674
899.633	20724
899.753	20670
899.873	20705
899.993	20739
900.113	20514
900.232	20686
900.352	20606
900.472	20495
900.591	20434
900.711	20514
900.83	20408
900.95	20545
901.069	20514
901.189	20377
901.308	20027
901.427	20016
901.546	20039
901.665	20050
901.784	20005
901.904	19955
902.023	19921
902.141	19693
902.26	19635
902.379	19616
902.498	19556
902.617	19483
902.735	19655
902.854	19400
902.973	19407
903.091	19129
903.21	19274
903.328	19126
903.446	19133
903.565	19019
903.683	19023
903.801	18890
903.919	18909
904.038	18814
904.156	18867
904.274	18909
904.392	18711
904.51	18620
904.627	18696
904.745	18776
904.863	18764
904.981	18490
905.098	18433
905.216	18483
905.334	18437
905.451	18426
905.569	18380
905.686	18357
905.803	18277
905.921	18220
906.038	18308
906.155	18251
906.272	18121
906.389	18159
906.506	17942
906.623	17954
906.74	17878
906.857	17836
906.974	17832
907.091	18015
907.208	18091
907.324	18026
907.441	17859
907.557	17687
907.674	17585
907.79	17596
907.907	17566
908.023	17638
908.139	17687
908.256	17554
908.372	17649
908.488	17532
908.604	17501
908.72	17395
908.836	17429
908.952	17322
909.068	17368
909.184	17452
909.3	17334
909.415	17364
909.531	17311
909.647	17098
909.762	17071
909.878	17025
909.993	17105
910.108	17159
910.224	17052
910.339	17025
910.454	16949
910.57	16793
910.685	16835
910.8	17048
910.915	16976
911.03	16873
911.145	16698
911.259	16615
911.374	16698
911.489	16656
911.604	16527
911.718	16451
911.833	16428
911.947	16344
912.062	16219
912.176	16405
912.291	16466
912.405	16470
912.519	16554
912.633	16504
912.748	16402
912.862	16371
912.976	16181
913.09	16124
913.204	16215
913.318	16219
913.431	16268
913.545	16223
913.659	16341
913.772	16143
913.886	16086
914	15956
914.113	16097
914.226	16036
914.34	16116
914.453	15991
914.566	16051
914.68	15922
914.793	15842
914.906	15724
915.019	15591
915.132	15614
915.245	15576
915.358	15629
915.47	15637
915.583	15747
915.696	15667
915.809	15736
915.921	15774
916.034	15572
916.146	15572
916.259	15523
916.371	15690
916.483	15572
916.595	15370
916.708	15507
916.82	15428
916.932	15408
917.044	15439
917.156	15313
917.268	15275
917.38	15268
917.491	15222
917.603	15264
917.715	15363
917.826	15424
917.938	15165
918.049	15112
918.161	15207
918.272	15401
918.384	15283
918.495	15226
918.606	15081
918.717	14929
918.828	15043
918.939	15032
919.05	14887
919.161	14998
919.272	14796
919.383	14792
919.494	15119
919.604	15173
919.715	15039
919.826	14929
919.936	14895
920.047	15123
920.157	15024
920.267	15150
920.378	15047
920.488	14933
920.598	15180
920.708	15348
920.818	15131
920.928	15074
921.038	15298
921.148	15264
921.258	14853
921.368	14743
921.477	14686
921.587	14636
921.697	14480
921.806	14735
921.916	14571
922.025	14396
922.134	14305
922.244	14149
922.353	14427
922.462	14199
922.571	14107
922.68	14020
922.789	14062
922.898	14024
923.007	13860
923.116	14035
923.224	13879
923.333	13978
923.442	13890
923.55	13750
923.659	13856
923.767	13864
923.876	13799
923.984	13772
924.092	13700
924.201	13704
924.309	13696
924.417	13708
924.525	13601
924.633	13639
924.741	14488
924.849	13487
924.956	13559
925.064	13392
925.172	13293
925.279	13350
925.387	13441
925.494	13377
925.602	13525
925.709	13400
925.816	13255
925.924	13278
926.031	13369
926.138	13304
926.245	13365
926.352	13301
926.459	13434
926.566	13346
926.673	13175
926.779	13000
926.886	13168
926.993	12970
927.099	12913
927.206	12871
927.312	12837
927.419	12886
927.525	12943
927.631	12875
927.737	12852
927.843	12738
927.95	12639
928.056	12753
928.162	12764
928.267	12852
928.373	13343
928.479	12810
928.585	12540
928.69	12707
928.796	12620
928.901	12551
929.007	12403
929.112	12627
929.218	12555
929.323	12456
929.428	12464
929.533	12601
929.638	12407
929.743	12357
929.848	12437
929.953	12464
930.058	12369
930.163	12159
930.267	12068
930.372	12197
930.477	12034
930.581	12407
930.685	12182
930.79	11996
930.894	12087
930.998	11992
931.103	12087
931.207	11760
931.311	11676
931.415	11657
931.519	11452
931.623	11376
