Data from test_V78500241_3606.txt Node
Date: Fri Mar 25 16:06:46 CST 2022
User: usil
Spectrometer: V785-0024
Trigger mode: 0
Integration Time (sec): 4.000000E-1
Scans to average: 1
Nonlinearity correction enabled: false
Boxcar width: 0
Storing dark spectrum: false
XAxis mode: Wavelengths
Number of Pixels in Spectrum: 1024
>>>>>Begin Spectral Data<<<<<
801.071	28763
801.214	28668
801.356	28481
801.499	28303
801.641	28223
801.783	28253
801.926	28268
802.068	28166
802.211	28219
802.353	28112
802.496	27907
802.638	27956
802.78	27884
802.923	27922
803.065	27724
803.208	27876
803.35	28013
803.492	28055
803.635	28055
803.777	28116
803.919	28105
804.061	28500
804.204	28291
804.346	28128
804.488	28147
804.63	28154
804.773	28265
804.915	28268
805.057	28299
805.199	28230
805.341	28169
805.483	28276
805.626	28428
805.768	28185
805.91	28299
806.052	28348
806.194	28394
806.336	28413
806.478	28375
806.62	28143
806.762	28489
806.904	28630
807.046	28866
807.188	28862
807.33	28862
807.472	28942
807.614	28748
807.756	28847
807.898	28637
808.04	28481
808.182	28698
808.324	28573
808.465	28599
808.607	29006
808.749	29014
808.891	29155
809.033	29223
809.174	29170
809.316	29048
809.458	29067
809.6	29022
809.741	28991
809.883	29170
810.025	29242
810.166	29337
810.308	29307
810.45	29356
810.591	29284
810.733	29022
810.875	28930
811.016	28873
811.158	29079
811.299	29105
811.441	29220
811.582	29315
811.724	29090
811.865	28968
812.007	29140
812.148	29098
812.29	29064
812.431	29273
812.573	29360
812.714	29539
812.855	29596
812.997	29653
813.138	29840
813.279	29733
813.421	29433
813.562	29436
813.703	29410
813.845	29197
813.986	29090
814.127	28805
814.268	28866
814.41	28763
814.551	28660
814.692	28828
814.833	28839
814.974	28721
815.115	28736
815.256	28675
815.397	28588
815.539	28615
815.68	28691
815.821	28535
815.962	28847
816.103	28615
816.244	28447
816.385	28508
816.526	28310
816.666	28322
816.807	27991
816.948	28131
817.089	28162
817.23	28063
817.371	28093
817.512	28135
817.653	28128
817.793	28097
817.934	27975
818.075	28185
818.216	28051
818.356	28086
818.497	27895
818.638	27880
818.778	27861
818.919	27732
819.06	27823
819.2	28139
819.341	28044
819.481	28074
819.622	28363
819.762	28371
819.903	28371
820.043	28246
820.184	28280
820.324	28135
820.465	28268
820.605	28318
820.746	28200
820.886	28013
821.026	28158
821.167	28074
821.307	28207
821.447	28147
821.588	28013
821.728	27941
821.868	27736
822.008	27576
822.149	27652
822.289	27534
822.429	27374
822.569	27214
822.709	27408
822.849	27001
822.99	27218
823.13	27112
823.27	27058
823.41	26929
823.55	26895
823.69	26918
823.83	26842
823.97	26861
824.11	26823
824.25	26651
824.389	26686
824.529	26708
824.669	26678
824.809	26952
824.949	26781
825.089	26853
825.228	26956
825.368	26598
825.508	26716
825.648	26583
825.787	26587
825.927	26629
826.067	26476
826.206	26613
826.346	26602
826.485	26629
826.625	26541
826.765	26621
826.904	26560
827.044	26442
827.183	26423
827.323	26370
827.462	26511
827.601	26229
827.741	26278
827.88	26362
828.02	26161
828.159	26298
828.298	26393
828.437	26381
828.577	26248
828.716	26415
828.855	26248
828.994	25982
829.134	26008
829.273	25917
829.412	26012
829.551	26103
829.69	26008
829.829	25921
829.968	26206
830.107	26008
830.246	26103
830.385	25978
830.524	25951
830.663	25784
830.802	25799
830.941	25658
831.08	25746
831.219	25643
831.357	25746
831.496	25807
831.635	25655
831.774	25537
831.913	25468
832.051	25453
832.19	25400
832.329	25407
832.467	25350
832.606	25289
832.744	25202
832.883	25293
833.022	25217
833.16	25251
833.299	25301
833.437	25346
833.576	25297
833.714	25316
833.852	25331
833.991	25384
834.129	25381
834.267	25449
834.406	25274
834.544	25335
834.682	25438
834.821	25308
834.959	25495
835.097	25365
835.235	25362
835.373	25354
835.511	25316
835.65	25095
835.788	25285
835.926	25031
836.064	24989
836.202	24989
836.34	25015
836.478	25308
836.615	25099
836.753	25137
836.891	25187
837.029	25095
837.167	25110
837.305	25072
837.443	25088
837.58	24894
837.718	25122
837.856	24909
837.993	24962
838.131	25004
838.269	24890
838.406	24951
838.544	24844
838.681	24741
838.819	24700
838.956	24486
839.094	24384
839.231	24502
839.369	24448
839.506	24779
839.643	24722
839.781	24502
839.918	24330
840.055	24399
840.193	24380
840.33	24372
840.467	24281
840.604	24388
840.742	24608
840.879	24281
841.016	24300
841.153	24251
841.29	24426
841.427	24334
841.564	24350
841.701	24342
841.838	24277
841.975	24270
842.112	24273
842.249	24167
842.385	24072
842.522	24357
842.659	24106
842.796	24152
842.933	24064
843.069	24038
843.206	24239
843.343	24262
843.479	24148
843.616	24129
843.752	23916
843.889	23882
844.025	24186
844.162	23889
844.298	23908
844.435	23859
844.571	23889
844.708	23931
844.844	23916
844.98	24015
845.117	23992
845.253	23866
845.389	23714
845.525	23817
845.661	23798
845.798	23592
845.934	23794
846.07	23745
846.206	23703
846.342	23741
846.478	23657
846.614	23497
846.75	23406
846.886	23326
847.022	23360
847.158	23512
847.294	23345
847.429	23429
847.565	23273
847.701	23577
847.837	23162
847.972	23117
848.108	23189
848.244	23086
848.379	23029
848.515	22885
848.65	22889
848.786	22854
848.921	23010
849.057	23094
849.192	23052
849.328	22991
849.463	22987
849.598	22938
849.734	22809
849.869	22805
850.004	22771
850.14	22717
850.275	22740
850.41	22656
850.545	22744
850.68	22672
850.815	22782
850.95	22763
851.085	22862
851.22	22816
851.355	22793
851.49	22653
851.625	22626
851.76	22683
851.895	22672
852.03	22565
852.165	22702
852.299	22828
852.434	22763
852.569	22767
852.703	22733
852.838	22740
852.973	22812
853.107	22759
853.242	22656
853.376	22474
853.511	22390
853.645	22615
853.78	22573
853.914	22470
854.048	22428
854.183	22481
854.317	22588
854.451	22687
854.585	22561
854.72	22447
854.854	22649
854.988	22462
855.122	22611
855.256	22440
855.39	22531
855.524	22500
855.658	22641
855.792	22531
855.926	22519
856.06	22649
856.194	22679
856.327	22550
856.461	22535
856.595	22371
856.729	22599
856.862	22748
856.996	22497
857.13	22710
857.263	22649
857.397	22649
857.53	22599
857.664	22615
857.797	22573
857.931	22569
858.064	22519
858.197	22584
858.331	22577
858.464	22462
858.597	22485
858.731	22535
858.864	22478
858.997	22405
859.13	22561
859.263	22649
859.396	22546
859.529	22523
859.662	22428
859.795	22527
859.928	22497
860.061	22588
860.194	22801
860.327	22630
860.46	22554
860.592	22717
860.725	22748
860.858	22698
860.99	22573
861.123	22443
861.256	22489
861.388	22466
861.521	23246
861.653	22344
861.786	22333
861.918	22299
862.05	22333
862.183	22409
862.315	22516
862.447	22428
862.58	22375
862.712	22253
862.844	22139
862.976	22478
863.108	22360
863.24	22782
863.372	22219
863.504	22242
863.636	22234
863.768	22325
863.9	22147
864.032	22090
864.164	22207
864.296	22226
864.428	22462
864.559	22356
864.691	22291
864.823	22337
864.954	22234
865.086	22177
865.217	22188
865.349	22131
865.48	22040
865.612	22226
865.743	22253
865.875	22215
866.006	22082
866.137	22124
866.269	22158
866.4	22200
866.531	22036
866.662	22010
866.793	21960
866.924	22029
867.055	22051
867.186	22169
867.317	22010
867.448	21911
867.579	21987
867.71	21937
867.841	21934
867.972	22070
868.103	22116
868.233	22051
868.364	22086
868.495	22109
868.625	22253
868.756	22443
868.886	22261
869.017	22242
869.147	22344
869.278	22367
869.408	22249
869.539	22360
869.669	22329
869.799	22375
869.929	22284
870.06	22413
870.19	22706
870.32	22542
870.45	22660
870.58	22736
870.71	22653
870.84	22824
870.97	22588
871.1	22630
871.23	22866
871.36	22953
871.489	22915
871.619	22782
871.749	22862
871.879	22847
872.008	23090
872.138	22980
872.267	22919
872.397	22660
872.526	22733
872.656	22820
872.785	22729
872.915	22877
873.044	22999
873.173	22930
873.303	22946
873.432	22946
873.561	23029
873.69	22892
873.819	22923
873.948	22995
874.077	22740
874.206	22881
874.335	22965
874.464	23086
874.593	23170
874.722	23117
874.851	23071
874.979	23216
875.108	23254
875.237	23102
875.365	22961
875.494	22991
875.623	23235
875.751	23079
875.88	23197
876.008	23220
876.136	23376
876.265	23528
876.393	23554
876.521	23566
876.65	23684
876.778	23562
876.906	23592
877.034	23490
877.162	23383
877.29	23417
877.418	23455
877.546	23471
877.674	23566
877.802	23391
877.93	23474
878.058	23509
878.185	23242
878.313	23455
878.441	23463
878.568	23220
878.696	23345
878.824	23543
878.951	23505
879.079	23684
879.206	23748
879.333	23493
879.461	23463
879.588	23547
879.715	23615
879.842	23745
879.97	23501
880.097	23299
880.224	23197
880.351	23395
880.478	23280
880.605	23288
880.732	23410
880.859	23543
880.986	23265
881.112	23303
881.239	23170
881.366	23033
881.493	22873
881.619	22957
881.746	22755
881.872	22892
881.999	22801
882.125	22820
882.252	22946
882.378	22790
882.505	22892
882.631	22656
882.757	22618
882.883	22637
883.01	22546
883.136	22451
883.262	22352
883.388	22485
883.514	22455
883.64	22481
883.766	22535
883.892	22337
884.018	22265
884.143	22382
884.269	22527
884.395	22185
884.52	22211
884.646	22097
884.772	22166
884.897	22086
885.023	22219
885.148	22215
885.274	22303
885.399	22101
885.524	22002
885.65	22124
885.775	22147
885.9	22120
886.025	22166
886.15	22246
886.275	21998
886.4	22070
886.525	22207
886.65	22017
886.775	22082
886.9	22253
887.025	22265
887.149	22105
887.274	21930
887.399	21918
887.523	21968
887.648	21732
887.773	21827
887.897	21930
888.021	21934
888.146	21835
888.27	21918
888.395	21899
888.519	21949
888.643	21915
888.767	21949
888.891	21751
889.015	21682
889.139	21720
889.263	21637
889.387	21949
889.511	21865
889.635	21793
889.759	21686
889.883	21682
890.006	21743
890.13	21797
890.254	21641
890.377	21580
890.501	21523
890.624	21351
890.748	21561
890.871	21416
890.995	21340
891.118	21142
891.241	21241
891.364	21268
891.488	21268
891.611	21306
891.734	21199
891.857	21275
891.98	21104
892.103	21298
892.226	21287
892.349	21112
892.471	21017
892.594	21119
892.717	21222
892.839	21089
892.962	21154
893.085	21195
893.207	21142
893.33	21032
893.452	21066
893.575	21142
893.697	21233
893.819	21325
893.941	21412
894.064	21260
894.186	21055
894.308	21074
894.43	21230
894.552	21188
894.674	21116
894.796	21036
894.918	21108
895.04	21123
895.161	21195
895.283	21138
895.405	21104
895.526	21058
895.648	21051
895.769	21169
895.891	21195
896.012	21173
896.134	21135
896.255	21207
896.376	21089
896.498	21108
896.619	21085
896.74	21043
896.861	21157
896.982	21431
897.103	21549
897.224	21389
897.345	21374
897.466	21260
897.587	21241
897.708	21450
897.828	21367
897.949	21329
898.07	21169
898.19	21233
898.311	21370
898.431	21405
898.552	21321
898.672	21317
898.792	21260
898.913	21302
899.033	21169
899.153	21089
899.273	20944
899.393	20941
899.513	21096
899.633	21066
899.753	21013
899.873	20982
899.993	21077
900.113	20994
900.232	21047
900.352	21017
900.472	20773
900.591	20845
900.711	20731
900.83	20743
900.95	20857
901.069	20937
901.189	20644
901.308	20454
901.427	20393
901.546	20313
901.665	20320
901.784	20343
901.904	20282
902.023	20077
902.141	20020
902.26	19845
902.379	20058
902.498	19746
902.617	19753
902.735	19864
902.854	19731
902.973	19925
903.091	19502
903.21	19556
903.328	19506
903.446	19403
903.565	19396
903.683	19365
903.801	19187
903.919	19403
904.038	19217
904.156	19050
904.274	19118
904.392	19084
904.51	19031
904.627	19072
904.745	19084
904.863	19107
904.981	18916
905.098	18768
905.216	18760
905.334	18772
905.451	18856
905.569	18791
905.686	18856
905.803	18783
905.921	18563
906.038	18604
906.155	18585
906.272	18342
906.389	18494
906.506	18239
906.623	18308
906.74	18228
906.857	18186
906.974	18235
907.091	18266
907.208	18452
907.324	18315
907.441	18171
907.557	18155
907.674	18049
907.79	17908
907.907	17882
908.023	18019
908.139	18011
908.256	17992
908.372	17851
908.488	17870
908.604	17710
908.72	17596
908.836	17661
908.952	17764
909.068	17680
909.184	17904
909.3	17611
909.415	17676
909.531	17634
909.647	17524
909.762	17429
909.878	17326
909.993	17322
910.108	17372
910.224	17280
910.339	17398
910.454	17299
910.57	17197
910.685	17143
910.8	17376
910.915	17315
911.03	17113
911.145	17071
911.259	16930
911.374	16961
911.489	16904
911.604	16919
911.718	16706
911.833	16759
911.947	16649
912.062	16527
912.176	16656
912.291	16767
912.405	16706
912.519	16862
912.633	16946
912.748	16653
912.862	16782
912.976	16569
913.09	16379
913.204	16440
913.318	16546
913.431	16588
913.545	16565
913.659	16634
913.772	16432
913.886	16333
914	16295
914.113	16310
914.226	16413
914.34	16375
914.453	16192
914.566	16375
914.68	16284
914.793	16169
914.906	15934
915.019	15922
915.132	15755
915.245	15945
915.358	15842
915.47	15937
915.583	15915
915.696	15827
915.809	16010
915.921	16025
916.034	15774
916.146	15747
916.259	15755
916.371	15831
916.483	15899
916.595	15709
916.708	15770
916.82	15800
916.932	15663
917.044	15542
917.156	15606
917.268	15405
917.38	15572
917.491	15492
917.603	15610
917.715	15564
917.826	15671
917.938	15351
918.049	15321
918.161	15462
918.272	15580
918.384	15500
918.495	15416
918.606	15256
918.717	15313
918.828	15211
918.939	15222
919.05	15150
919.161	15188
919.272	15009
919.383	15173
919.494	15230
919.604	15492
919.715	15226
919.826	15127
919.936	15131
920.047	15359
920.157	15287
920.267	15405
920.378	15176
920.488	15180
920.598	15332
920.708	15428
920.818	15298
920.928	15211
921.038	15462
921.148	15416
921.258	15100
921.368	15039
921.477	15062
921.587	14975
921.697	14849
921.806	14933
921.916	14674
922.025	14571
922.134	14499
922.244	14476
922.353	14556
922.462	14389
922.571	14278
922.68	14176
922.789	14259
922.898	14229
923.007	14107
923.116	14214
923.224	14221
923.333	14168
923.442	13959
923.55	14073
923.659	14096
923.767	14084
923.876	13997
923.984	13986
924.092	13871
924.201	13928
924.309	13879
924.417	13917
924.525	13898
924.633	13864
924.741	14765
924.849	13681
924.956	13776
925.064	13643
925.172	13563
925.279	13556
925.387	13544
925.494	13540
925.602	13700
925.709	13613
925.816	13495
925.924	13487
926.031	13655
926.138	13441
926.245	13457
926.352	13403
926.459	13533
926.566	13540
926.673	13396
926.779	13335
926.886	13343
926.993	13213
927.099	13072
927.206	13080
927.312	13065
927.419	13225
927.525	13053
927.631	13137
927.737	12993
927.843	13000
927.95	12894
928.056	12928
928.162	12913
928.267	12977
928.373	13495
928.479	12981
928.585	12779
928.69	12844
928.796	12981
928.901	12760
929.007	12700
929.112	12772
929.218	12791
929.323	12719
929.428	12612
929.533	12829
929.638	12601
929.743	12665
929.848	12658
929.953	12563
930.058	12513
930.163	12338
930.267	12327
930.372	12456
930.477	12152
930.581	12525
930.685	12365
930.79	12155
930.894	12220
930.998	12224
931.103	12277
931.207	11866
931.311	11832
931.415	11817
931.519	11501
931.623	11562
