Data from test_V78500241_3716.txt Node
Date: Fri Mar 25 16:07:32 CST 2022
User: usil
Spectrometer: V785-0024
Trigger mode: 0
Integration Time (sec): 4.000000E-1
Scans to average: 1
Nonlinearity correction enabled: false
Boxcar width: 0
Storing dark spectrum: false
XAxis mode: Wavelengths
Number of Pixels in Spectrum: 1024
>>>>>Begin Spectral Data<<<<<
801.071	28333
801.214	28265
801.356	27907
801.499	27949
801.641	27800
801.783	27854
801.926	27880
802.068	27819
802.211	27789
802.353	27663
802.496	27614
802.638	27405
802.78	27496
802.923	27378
803.065	27416
803.208	27378
803.35	27496
803.492	27682
803.635	27770
803.777	27663
803.919	27785
804.061	27979
804.204	27778
804.346	27603
804.488	27747
804.63	27823
804.773	27549
804.915	27694
805.057	27934
805.199	27869
805.341	27762
805.483	27759
805.626	27747
805.768	27892
805.91	27972
806.052	27953
806.194	27785
806.336	28070
806.478	27926
806.62	27861
806.762	28173
806.904	28181
807.046	28344
807.188	28405
807.33	28344
807.472	28356
807.614	28386
807.756	28295
807.898	28204
808.04	27956
808.182	28105
808.324	28238
808.465	28322
808.607	28428
808.749	28542
808.891	28519
809.033	28649
809.174	28481
809.316	28660
809.458	28508
809.6	28409
809.741	28641
809.883	28577
810.025	28873
810.166	28824
810.308	28710
810.45	28812
810.591	28713
810.733	28569
810.875	28428
811.016	28440
811.158	28497
811.299	28550
811.441	28596
811.582	28607
811.724	28664
811.865	28436
812.007	28508
812.148	28599
812.29	28489
812.431	28702
812.573	28987
812.714	28980
812.855	29044
812.997	29124
813.138	29296
813.279	29189
813.421	29136
813.562	29079
813.703	28900
813.845	28763
813.986	28497
814.127	28375
814.268	28287
814.41	28291
814.551	28139
814.692	28344
814.833	28344
814.974	28306
815.115	28173
815.256	28067
815.397	28109
815.539	28268
815.68	28063
815.821	27835
815.962	28101
816.103	28093
816.244	27983
816.385	27770
816.526	27812
816.666	27698
816.807	27542
816.948	27583
817.089	27633
817.23	27466
817.371	27481
817.512	27469
817.653	27580
817.793	27534
817.934	27583
818.075	27450
818.216	27637
818.356	27393
818.497	27389
818.638	27245
818.778	27275
818.919	27344
819.06	27507
819.2	27519
819.341	27614
819.481	27477
819.622	27622
819.762	27968
819.903	27838
820.043	27743
820.184	27720
820.324	27667
820.465	27572
820.605	27793
820.746	27656
820.886	27481
821.026	27720
821.167	27732
821.307	27625
821.447	27530
821.588	27405
821.728	27427
821.868	27138
822.008	27074
822.149	27043
822.289	27009
822.429	26750
822.569	26651
822.709	26708
822.849	26651
822.99	26560
823.13	26613
823.27	26446
823.41	26419
823.55	26290
823.69	26404
823.83	26370
823.97	26271
824.11	26073
824.25	26088
824.389	26191
824.529	26259
824.669	26103
824.809	26252
824.949	26187
825.089	26244
825.228	26100
825.368	26039
825.508	26130
825.648	26081
825.787	26149
825.927	26065
826.067	26084
826.206	26024
826.346	26058
826.485	26062
826.625	26020
826.765	26168
826.904	26016
827.044	25921
827.183	25875
827.323	25769
827.462	25875
827.601	25803
827.741	25681
827.88	25780
828.02	25575
828.159	25639
828.298	25799
828.437	25791
828.577	25624
828.716	25887
828.855	25616
828.994	25384
829.134	25438
829.273	25499
829.412	25460
829.551	25613
829.69	25445
829.829	25422
829.968	25567
830.107	25567
830.246	25324
830.385	25548
830.524	25304
830.663	25282
830.802	25099
830.941	25103
831.08	25034
831.219	25244
831.357	25080
831.496	25411
831.635	25148
831.774	25000
831.913	24939
832.051	24947
832.19	24802
832.329	24882
832.467	24852
832.606	24578
832.744	24776
832.883	24779
833.022	24711
833.16	24700
833.299	24795
833.437	24791
833.576	24776
833.714	24783
833.852	24924
833.991	24772
834.129	24932
834.267	24924
834.406	24882
834.544	24932
834.682	24779
834.821	24776
834.959	25027
835.097	24684
835.235	24749
835.373	24703
835.511	24741
835.65	24585
835.788	24665
835.926	24585
836.064	24422
836.202	24353
836.34	24757
836.478	24646
836.615	24635
836.753	24722
836.891	24684
837.029	24627
837.167	24525
837.305	24635
837.443	24483
837.58	24494
837.718	24509
837.856	24521
837.993	24517
838.131	24445
838.269	24395
838.406	24338
838.544	24300
838.681	24194
838.819	24011
838.956	23984
839.094	23882
839.231	24053
839.369	24140
839.506	24330
839.643	24171
839.781	24007
839.918	23912
840.055	23851
840.193	23817
840.33	23965
840.467	23794
840.604	23920
840.742	24114
840.879	23748
841.016	23851
841.153	23668
841.29	23859
841.427	23760
841.564	23836
841.701	23973
841.838	23722
841.975	23691
842.112	23779
842.249	23630
842.385	23493
842.522	23752
842.659	23707
842.796	23691
842.933	23649
843.069	23573
843.206	23619
843.343	23836
843.479	23672
843.616	23490
843.752	23337
843.889	23417
844.025	23463
844.162	23311
844.298	23505
844.435	23471
844.571	23463
844.708	23334
844.844	23531
844.98	23436
845.117	23516
845.253	23307
845.389	23254
845.525	23231
845.661	23288
845.798	23056
845.934	23174
846.07	23254
846.206	23041
846.342	23208
846.478	23003
846.614	22873
846.75	22816
846.886	22919
847.022	22953
847.158	22953
847.294	22847
847.429	22896
847.565	22774
847.701	23018
847.837	22573
847.972	22649
848.108	22630
848.244	22660
848.379	22500
848.515	22497
848.65	22500
848.786	22459
848.921	22466
849.057	22516
849.192	22508
849.328	22493
849.463	22295
849.598	22276
849.734	22390
849.869	22276
850.004	22116
850.14	22303
850.275	22181
850.41	22063
850.545	22112
850.68	22162
850.815	22021
850.95	22223
851.085	22428
851.22	22242
851.355	22177
851.49	22048
851.625	22268
851.76	22090
851.895	22162
852.03	22143
852.165	22265
852.299	22223
852.434	22196
852.569	22185
852.703	22166
852.838	22257
852.973	22314
853.107	22211
853.242	22120
853.376	21949
853.511	21949
853.645	21972
853.78	22185
853.914	22051
854.048	22082
854.183	21972
854.317	21987
854.451	22200
854.585	22055
854.72	22044
854.854	22063
854.988	21953
855.122	22044
855.256	21785
855.39	21956
855.524	22143
855.658	22135
855.792	22055
855.926	22090
856.06	22082
856.194	22044
856.327	21903
856.461	21926
856.595	21922
856.729	21907
856.862	22109
856.996	22086
857.13	22158
857.263	22223
857.397	22112
857.53	21964
857.664	22070
857.797	22124
857.931	22124
858.064	21979
858.197	22093
858.331	22048
858.464	21915
858.597	21838
858.731	22010
858.864	21983
858.997	21941
859.13	21899
859.263	22036
859.396	22162
859.529	22040
859.662	21926
859.795	22006
859.928	22017
860.061	21949
860.194	22226
860.327	22097
860.46	22002
860.592	22207
860.725	22143
860.858	22112
860.99	21918
861.123	21907
861.256	21991
861.388	21911
861.521	22767
861.653	21869
861.786	21816
861.918	21743
862.05	21956
862.183	22002
862.315	22059
862.447	21975
862.58	21994
862.712	21717
862.844	21736
862.976	21800
863.108	21812
863.24	22215
863.372	21701
863.504	21762
863.636	21694
863.768	21759
863.9	21739
864.032	21618
864.164	21751
864.296	21785
864.428	21823
864.559	21751
864.691	21888
864.823	21759
864.954	21808
865.086	21686
865.217	21610
865.349	21572
865.48	21720
865.612	21603
865.743	21663
865.875	21591
866.006	21477
866.137	21610
866.269	21724
866.4	21553
866.531	21576
866.662	21576
866.793	21629
866.924	21580
867.055	21561
867.186	21641
867.317	21557
867.448	21469
867.579	21538
867.71	21462
867.841	21504
867.972	21599
868.103	21507
868.233	21447
868.364	21542
868.495	21644
868.625	21732
868.756	21846
868.886	21637
869.017	21747
869.147	21850
869.278	21941
869.408	21800
869.539	21823
869.669	21759
869.799	21869
869.929	21861
870.06	21998
870.19	22124
870.32	22131
870.45	22067
870.58	22063
870.71	22204
870.84	22253
870.97	22261
871.1	22112
871.23	22398
871.36	22352
871.489	22246
871.619	22253
871.749	22287
871.879	22436
872.008	22523
872.138	22459
872.267	22344
872.397	22318
872.526	22223
872.656	22082
872.785	22246
872.915	22402
873.044	22489
873.173	22440
873.303	22344
873.432	22413
873.561	22527
873.69	22440
873.819	22344
873.948	22417
874.077	22459
874.206	22390
874.335	22417
874.464	22474
874.593	22592
874.722	22455
874.851	22790
874.979	22664
875.108	22713
875.237	22588
875.365	22554
875.494	22489
875.623	22778
875.751	22637
875.88	22542
876.008	22759
876.136	22919
876.265	23018
876.393	23193
876.521	23117
876.65	23094
876.778	23102
876.906	22938
877.034	23105
877.162	22961
877.29	22866
877.418	23098
877.546	22972
877.674	22976
877.802	22976
877.93	22942
878.058	22877
878.185	22923
878.313	22972
878.441	22953
878.568	22744
878.696	23014
878.824	23071
878.951	23071
879.079	23178
879.206	23242
879.333	23075
879.461	22987
879.588	23048
879.715	23140
879.842	23216
879.97	23025
880.097	22858
880.224	22862
880.351	22873
880.478	22790
880.605	22729
880.732	22801
880.859	23018
880.986	22812
881.112	22820
881.239	22702
881.366	22740
881.493	22557
881.619	22394
881.746	22459
881.872	22398
881.999	22386
882.125	22299
882.252	22402
882.378	22318
882.505	22432
882.631	22188
882.757	22067
882.883	22139
883.01	22070
883.136	22070
883.262	21835
883.388	21812
883.514	21994
883.64	22017
883.766	21937
883.892	21800
884.018	21831
884.143	21998
884.269	22010
884.395	21838
884.52	21637
884.646	21854
884.772	21523
884.897	21614
885.023	21717
885.148	21705
885.274	21876
885.399	21762
885.524	21736
885.65	21724
885.775	21686
885.9	21701
886.025	21816
886.15	21797
886.275	21606
886.4	21485
886.525	21652
886.65	21679
886.775	21534
886.9	21728
887.025	21911
887.149	21743
887.274	21488
887.399	21447
887.523	21481
887.648	21401
887.773	21359
887.897	21576
888.021	21507
888.146	21447
888.27	21488
888.395	21439
888.519	21370
888.643	21420
888.767	21534
888.891	21428
889.015	21211
889.139	21264
889.263	21123
889.387	21325
889.511	21389
889.635	21378
889.759	21116
889.883	21207
890.006	21313
890.13	21325
890.254	21306
890.377	21173
890.501	20967
890.624	20906
890.748	20941
890.871	20834
890.995	20735
891.118	20659
891.241	20853
891.364	20868
891.488	20792
891.611	20720
891.734	20769
891.857	20925
891.98	20796
892.103	20857
892.226	20785
892.349	20689
892.471	20579
892.594	20689
892.717	20667
892.839	20625
892.962	20785
893.085	20724
893.207	20609
893.33	20568
893.452	20583
893.575	20853
893.697	20606
893.819	20765
893.941	20849
894.064	20921
894.186	20659
894.308	20644
894.43	20693
894.552	20800
894.674	20758
894.796	20583
894.918	20746
895.04	20724
895.161	20754
895.283	20682
895.405	20587
895.526	20609
895.648	20724
895.769	20609
895.891	20686
896.012	20746
896.134	20708
896.255	20590
896.376	20640
896.498	20659
896.619	20861
896.74	20686
896.861	20724
896.982	21062
897.103	21108
897.224	20895
897.345	20891
897.466	20743
897.587	20826
897.708	21116
897.828	20914
897.949	20849
898.07	20830
898.19	20743
898.311	20960
898.431	20891
898.552	20872
898.672	20933
898.792	20933
898.913	20876
899.033	20838
899.153	20697
899.273	20629
899.393	20629
899.513	20674
899.633	20670
899.753	20670
899.873	20629
899.993	20727
900.113	20636
900.232	20667
900.352	20564
900.472	20522
900.591	20324
900.711	20393
900.83	20240
900.95	20492
901.069	20434
901.189	20275
901.308	20161
901.427	20001
901.546	19925
901.665	20092
901.784	20043
901.904	19875
902.023	19708
902.141	19559
902.26	19518
902.379	19491
902.498	19624
902.617	19426
902.735	19483
902.854	19502
902.973	19312
903.091	19293
903.21	19171
903.328	19065
903.446	19069
903.565	19023
903.683	18970
903.801	18939
903.919	18939
904.038	18894
904.156	18768
904.274	18639
904.392	18646
904.51	18719
904.627	18616
904.745	18810
904.863	18783
904.981	18456
905.098	18369
905.216	18380
905.334	18426
905.451	18357
905.569	18319
905.686	18342
905.803	18380
905.921	18155
906.038	18258
906.155	18167
906.272	18083
906.389	18106
906.506	17961
906.623	17942
906.74	17920
906.857	17790
906.974	17771
907.091	17927
907.208	18007
907.324	17824
907.441	17824
907.557	17630
907.674	17714
907.79	17486
907.907	17474
908.023	17581
908.139	17668
908.256	17547
908.372	17532
908.488	17577
908.604	17360
908.72	17258
908.836	17277
908.952	17265
909.068	17326
909.184	17360
909.3	17273
909.415	17288
909.531	17364
909.647	16991
909.762	16953
909.878	17014
909.993	17064
910.108	17037
910.224	16961
910.339	16911
910.454	16854
910.57	16820
910.685	16660
910.8	17098
910.915	16869
911.03	16839
911.145	16691
911.259	16630
911.374	16622
911.489	16622
911.604	16474
911.718	16337
911.833	16405
911.947	16310
912.062	16147
912.176	16337
912.291	16382
912.405	16367
912.519	16588
912.633	16599
912.748	16485
912.862	16318
912.976	16310
913.09	16105
913.204	16124
913.318	16078
913.431	16253
913.545	16390
913.659	16284
913.772	16135
913.886	15964
914	15888
914.113	16044
914.226	16093
914.34	16074
914.453	15907
914.566	15956
914.68	15876
914.793	15774
914.906	15614
915.019	15530
915.132	15492
915.245	15481
915.358	15637
915.47	15603
915.583	15523
915.696	15614
915.809	15641
915.921	15603
916.034	15625
916.146	15435
916.259	15504
916.371	15466
916.483	15469
916.595	15393
916.708	15412
916.82	15367
916.932	15367
917.044	15329
917.156	15272
917.268	15230
917.38	15165
917.491	15176
917.603	15256
917.715	15218
917.826	15211
917.938	15032
918.049	15097
918.161	15100
918.272	15283
918.384	15230
918.495	15157
918.606	14876
918.717	14849
918.828	15024
918.939	15005
919.05	14861
919.161	14925
919.272	14686
919.383	14845
919.494	15001
919.604	15047
919.715	14918
919.826	14853
919.936	14902
920.047	14925
920.157	14948
920.267	15085
920.378	14876
920.488	14864
920.598	15001
920.708	15161
920.818	15028
920.928	14952
921.038	15214
921.148	15131
921.258	14819
921.368	14739
921.477	14636
921.587	14663
921.697	14556
921.806	14636
921.916	14404
922.025	14301
922.134	14282
922.244	14233
922.353	14176
922.462	14180
922.571	14115
922.68	13997
922.789	13986
922.898	13894
923.007	13807
923.116	13890
923.224	13826
923.333	13818
923.442	13753
923.55	13868
923.659	13856
923.767	13841
923.876	13765
923.984	13753
924.092	13620
924.201	13677
924.309	13582
924.417	13590
924.525	13662
924.633	13616
924.741	14301
924.849	13381
924.956	13567
925.064	13480
925.172	13301
925.279	13282
925.387	13316
925.494	13301
925.602	13411
925.709	13365
925.816	13240
925.924	13339
926.031	13381
926.138	13164
926.245	13324
926.352	13118
926.459	13365
926.566	13346
926.673	13183
926.779	13069
926.886	13046
926.993	12920
927.099	12875
927.206	12825
927.312	12856
927.419	12970
927.525	12810
927.631	12901
927.737	12700
927.843	12772
927.95	12601
928.056	12692
928.162	12669
928.267	12715
928.373	13339
928.479	12837
928.585	12460
928.69	12654
928.796	12639
928.901	12585
929.007	12361
929.112	12555
929.218	12414
929.323	12319
929.428	12418
929.533	12471
929.638	12296
929.743	12304
929.848	12376
929.953	12388
930.058	12213
930.163	12079
930.267	12098
930.372	12159
930.477	12026
930.581	12224
930.685	12114
930.79	12060
930.894	11863
930.998	11954
931.103	12152
931.207	11680
931.311	11649
931.415	11604
931.519	11280
931.623	11383
