Data from test_V78500241_219.txt Node
Date: Fri Mar 25 15:43:19 CST 2022
User: usil
Spectrometer: V785-0024
Trigger mode: 0
Integration Time (sec): 4.000000E-1
Scans to average: 1
Nonlinearity correction enabled: false
Boxcar width: 0
Storing dark spectrum: false
XAxis mode: Wavelengths
Number of Pixels in Spectrum: 1024
>>>>>Begin Spectral Data<<<<<
801.071	28828
801.214	28706
801.356	28489
801.499	28497
801.641	28367
801.783	28333
801.926	28329
802.068	28253
802.211	28147
802.353	28261
802.496	27926
802.638	27914
802.78	27968
802.923	27789
803.065	27736
803.208	27713
803.35	27914
803.492	28021
803.635	28048
803.777	27861
803.919	28048
804.061	28352
804.204	27960
804.346	27987
804.488	27876
804.63	28017
804.773	27732
804.915	27835
805.057	28124
805.199	27968
805.341	28093
805.483	27960
805.626	28177
805.768	27914
805.91	27823
806.052	28185
806.194	28021
806.336	28112
806.478	28188
806.62	28010
806.762	28215
806.904	28390
807.046	28588
807.188	28432
807.33	28356
807.472	28493
807.614	28421
807.756	28337
807.898	28207
808.04	28204
808.182	28223
808.324	28204
808.465	28242
808.607	28493
808.749	28664
808.891	28744
809.033	28752
809.174	28767
809.316	28763
809.458	28675
809.6	28561
809.741	28812
809.883	28923
810.025	28888
810.166	28888
810.308	28938
810.45	28854
810.591	28820
810.733	28573
810.875	28504
811.016	28554
811.158	28573
811.299	28607
811.441	28752
811.582	28698
811.724	28622
811.865	28538
812.007	28443
812.148	28531
812.29	28542
812.431	28721
812.573	28862
812.714	28972
812.855	29014
812.997	29162
813.138	29303
813.279	29170
813.421	29083
813.562	29048
813.703	29022
813.845	28778
813.986	28447
814.127	28147
814.268	28306
814.41	28105
814.551	28166
814.692	28238
814.833	28154
814.974	28143
815.115	28169
815.256	27934
815.397	28021
815.539	27865
815.68	27762
815.821	27865
815.962	27960
816.103	27854
816.244	27694
816.385	27778
816.526	27561
816.666	27454
816.807	27237
816.948	27348
817.089	27405
817.23	27462
817.371	27344
817.512	27192
817.653	27291
817.793	27283
817.934	27329
818.075	27412
818.216	27287
818.356	27188
818.497	27116
818.638	27013
818.778	26975
818.919	27081
819.06	27066
819.2	27279
819.341	27165
819.481	27036
819.622	27340
819.762	27637
819.903	27629
820.043	27393
820.184	27401
820.324	27230
820.465	27367
820.605	27306
820.746	27382
820.886	27237
821.026	27252
821.167	27241
821.307	27298
821.447	27287
821.588	27036
821.728	27005
821.868	26845
822.008	26651
822.149	26697
822.289	26609
822.429	26442
822.569	26404
822.709	26309
822.849	26206
822.99	26134
823.13	26145
823.27	26096
823.41	25879
823.55	25837
823.69	25871
823.83	26062
823.97	25883
824.11	25818
824.25	25841
824.389	25635
824.529	25769
824.669	25685
824.809	25696
824.949	25772
825.089	25727
825.228	25628
825.368	25586
825.508	25544
825.648	25552
825.787	25578
825.927	25552
826.067	25426
826.206	25658
826.346	25635
826.485	25597
826.625	25540
826.765	25742
826.904	25594
827.044	25400
827.183	25278
827.323	25225
827.462	25240
827.601	25209
827.741	25019
827.88	25225
828.02	25008
828.159	25194
828.298	25175
828.437	25202
828.577	25160
828.716	25251
828.855	25129
828.994	25034
829.134	25015
829.273	25031
829.412	24787
829.551	24837
829.69	24806
829.829	24935
829.968	24916
830.107	24909
830.246	24894
830.385	24757
830.524	24650
830.663	24517
830.802	24563
830.941	24467
831.08	24448
831.219	24585
831.357	24486
831.496	24597
831.635	24399
831.774	24258
831.913	24277
832.051	24232
832.19	24235
832.329	24266
832.467	24114
832.606	24110
832.744	24057
832.883	23939
833.022	24171
833.16	24117
833.299	24041
833.437	24091
833.576	24155
833.714	24095
833.852	24155
833.991	24095
834.129	24190
834.267	24220
834.406	24110
834.544	24079
834.682	24136
834.821	24091
834.959	24174
835.097	24110
835.235	23980
835.373	24007
835.511	23988
835.65	23969
835.788	23950
835.926	23828
836.064	23828
836.202	23752
836.34	23847
836.478	24045
836.615	23851
836.753	24018
836.891	24152
837.029	23961
837.167	23775
837.305	23767
837.443	23802
837.58	23726
837.718	23798
837.856	23726
837.993	23699
838.131	23733
838.269	23577
838.406	23630
838.544	23600
838.681	23356
838.819	23254
838.956	23239
839.094	23140
839.231	23250
839.369	23277
839.506	23524
839.643	23318
839.781	23181
839.918	23079
840.055	23162
840.193	23094
840.33	23200
840.467	23071
840.604	23025
840.742	23414
840.879	22930
841.016	22957
841.153	22942
841.29	23083
841.427	23003
841.564	23025
841.701	22987
841.838	22976
841.975	22965
842.112	22999
842.249	22900
842.385	22801
842.522	22999
842.659	22946
842.796	22744
842.933	22641
843.069	22729
843.206	22649
843.343	22713
843.479	22763
843.616	22778
843.752	22557
843.889	22618
844.025	22649
844.162	22557
844.298	22508
844.435	22554
844.571	22470
844.708	22603
844.844	22542
844.98	22588
845.117	22596
845.253	22417
845.389	22428
845.525	22318
845.661	22314
845.798	22185
845.934	22303
846.07	22101
846.206	22234
846.342	22253
846.478	22223
846.614	22002
846.75	21968
846.886	21918
847.022	22097
847.158	21983
847.294	21915
847.429	22048
847.565	21838
847.701	22181
847.837	21709
847.972	21606
848.108	21679
848.244	21724
848.379	21466
848.515	21424
848.65	21382
848.786	21485
848.921	21458
849.057	21519
849.192	21633
849.328	21561
849.463	21473
849.598	21393
849.734	21408
849.869	21397
850.004	21233
850.14	21359
850.275	21192
850.41	21142
850.545	21252
850.68	21093
850.815	21188
850.95	21268
851.085	21317
851.22	21317
851.355	21272
851.49	21241
851.625	21287
851.76	21207
851.895	21150
852.03	21214
852.165	21222
852.299	21264
852.434	21230
852.569	21203
852.703	21131
852.838	21233
852.973	21313
853.107	21298
853.242	21192
853.376	21039
853.511	20937
853.645	20929
853.78	21184
853.914	21108
854.048	21036
854.183	21062
854.317	21001
854.451	21237
854.585	21070
854.72	20990
854.854	21047
854.988	20960
855.122	21047
855.256	20823
855.39	21013
855.524	21119
855.658	21074
855.792	20975
855.926	21032
856.06	20982
856.194	21138
856.327	20990
856.461	20899
856.595	20979
856.729	21005
856.862	21112
856.996	21017
857.13	21085
857.263	21142
857.397	21028
857.53	20887
857.664	20998
857.797	21062
857.931	21123
858.064	20937
858.197	21032
858.331	20944
858.464	21013
858.597	20975
858.731	20845
858.864	20868
858.997	20982
859.13	21051
859.263	20952
859.396	20982
859.529	20918
859.662	20956
859.795	20880
859.928	20834
860.061	21081
860.194	21214
860.327	20944
860.46	20933
860.592	21112
860.725	21138
860.858	21062
860.99	21036
861.123	20796
861.256	20842
861.388	20864
861.521	21675
861.653	20830
861.786	20667
861.918	20830
862.05	20998
862.183	21020
862.315	20979
862.447	21074
862.58	20895
862.712	20606
862.844	20648
862.976	20796
863.108	20731
863.24	21032
863.372	20530
863.504	20636
863.636	20659
863.768	20670
863.9	20720
864.032	20511
864.164	20579
864.296	20602
864.428	20762
864.559	20560
864.691	20598
864.823	20769
864.954	20545
865.086	20590
865.217	20636
865.349	20495
865.48	20541
865.612	20594
865.743	20621
865.875	20518
866.006	20545
866.137	20530
866.269	20556
866.4	20492
866.531	20549
866.662	20412
866.793	20465
866.924	20594
867.055	20473
867.186	20495
867.317	20473
867.448	20389
867.579	20446
867.71	20347
867.841	20465
867.972	20476
868.103	20469
868.233	20480
868.364	20454
868.495	20590
868.625	20727
868.756	20792
868.886	20632
869.017	20708
869.147	20598
869.278	20902
869.408	20849
869.539	20606
869.669	20796
869.799	20754
869.929	20899
870.06	20739
870.19	21081
870.32	21032
870.45	20960
870.58	21119
870.71	21233
870.84	21188
870.97	21108
871.1	21096
871.23	21420
871.36	21279
871.489	21252
871.619	21298
871.749	21192
871.879	21268
872.008	21389
872.138	21317
872.267	21317
872.397	21283
872.526	21173
872.656	21169
872.785	21024
872.915	21431
873.044	21397
873.173	21283
873.303	21264
873.432	21294
873.561	21519
873.69	21367
873.819	21458
873.948	21310
874.077	21374
874.206	21272
874.335	21283
874.464	21412
874.593	21542
874.722	21485
874.851	21610
874.979	21603
875.108	21705
875.237	21447
875.365	21405
875.494	21462
875.623	21561
875.751	21587
875.88	21652
876.008	21572
876.136	21861
876.265	21983
876.393	22109
876.521	22040
876.65	22067
876.778	22086
876.906	21922
877.034	21804
877.162	21899
877.29	21907
877.418	21865
877.546	21930
877.674	21937
877.802	21991
877.93	21937
878.058	21903
878.185	21953
878.313	21918
878.441	22010
878.568	21717
878.696	21854
878.824	21899
878.951	21979
879.079	22162
879.206	22185
879.333	22074
879.461	21960
879.588	22044
879.715	22067
879.842	22158
879.97	21850
880.097	21800
880.224	21789
880.351	21804
880.478	21781
880.605	21660
880.732	21743
880.859	22067
880.986	21816
881.112	21717
881.239	21576
881.366	21629
881.493	21424
881.619	21298
881.746	21294
881.872	21325
881.999	21294
882.125	21211
882.252	21355
882.378	21348
882.505	21408
882.631	21131
882.757	21074
882.883	21165
883.01	21024
883.136	20982
883.262	20838
883.388	20941
883.514	21226
883.64	21135
883.766	20971
883.892	20918
884.018	20807
884.143	21043
884.269	21131
884.395	20724
884.52	20762
884.646	20651
884.772	20625
884.897	20549
885.023	20678
885.148	20967
885.274	20895
885.399	20686
885.524	20678
885.65	20701
885.775	20689
885.9	20625
886.025	20849
886.15	20796
886.275	20545
886.4	20636
886.525	20598
886.65	20686
886.775	20473
886.9	20678
887.025	20876
887.149	20602
887.274	20503
887.399	20396
887.523	20438
887.648	20332
887.773	20408
887.897	20552
888.021	20469
888.146	20408
888.27	20613
888.395	20419
888.519	20473
888.643	20507
888.767	20431
888.891	20385
889.015	20244
889.139	20298
889.263	20305
889.387	20324
889.511	20480
889.635	20408
889.759	20275
889.883	20164
890.006	20145
890.13	20271
890.254	20267
890.377	20199
890.501	20069
890.624	20065
890.748	20046
890.871	19944
890.995	19765
891.118	19803
891.241	19852
891.364	19868
891.488	19906
891.611	19845
891.734	19837
891.857	19940
891.98	19913
892.103	19913
892.226	19879
892.349	19693
892.471	19712
892.594	19670
892.717	19799
892.839	19776
892.962	19757
893.085	19909
893.207	19689
893.33	19586
893.452	19689
893.575	19750
893.697	19814
893.819	19868
893.941	19947
894.064	19852
894.186	19757
894.308	19708
894.43	19807
894.552	19902
894.674	19750
894.796	19616
894.918	19772
895.04	19799
895.161	19830
895.283	19830
895.405	19540
895.526	19776
895.648	19761
895.769	19811
895.891	19852
896.012	19871
896.134	19909
896.255	19940
896.376	19788
896.498	19753
896.619	19890
896.74	19871
896.861	19803
896.982	20180
897.103	20187
897.224	20107
897.345	20073
897.466	19890
897.587	20008
897.708	20172
897.828	20050
897.949	19978
898.07	19947
898.19	19940
898.311	20092
898.431	19925
898.552	19917
898.672	19978
898.792	20073
898.913	20100
899.033	19765
899.153	19719
899.273	19674
899.393	19616
899.513	19715
899.633	19750
899.753	19715
899.873	19723
899.993	19658
900.113	19681
900.232	19765
900.352	19704
900.472	19601
900.591	19510
900.711	19480
900.83	19556
900.95	19586
901.069	19582
901.189	19453
901.308	19255
901.427	19080
901.546	19091
901.665	19004
901.784	19129
901.904	18890
902.023	18829
902.141	18677
902.26	18540
902.379	18700
902.498	18544
902.617	18551
902.735	18627
902.854	18585
902.973	18433
903.091	18247
903.21	18201
903.328	18216
903.446	18114
903.565	18022
903.683	18034
903.801	17977
903.919	18019
904.038	18030
904.156	17889
904.274	17828
904.392	17870
904.51	17870
904.627	17843
904.745	17901
904.863	17821
904.981	17585
905.098	17490
905.216	17471
905.334	17581
905.451	17532
905.569	17520
905.686	17577
905.803	17509
905.921	17303
906.038	17376
906.155	17307
906.272	17136
906.389	17204
906.506	17025
906.623	16965
906.74	17006
906.857	16946
906.974	16938
907.091	17025
907.208	17132
907.324	16965
907.441	16915
907.557	16664
907.674	16721
907.79	16698
907.907	16706
908.023	16675
908.139	16679
908.256	16668
908.372	16607
908.488	16634
908.604	16390
908.72	16428
908.836	16299
908.952	16382
909.068	16474
909.184	16485
909.3	16371
909.415	16382
909.531	16417
909.647	16078
909.762	16101
909.878	16120
909.993	16128
910.108	15983
910.224	16078
910.339	16040
910.454	15911
910.57	15903
910.685	15838
910.8	16181
910.915	16025
911.03	15975
911.145	15797
911.259	15709
911.374	15728
911.489	15595
911.604	15500
911.718	15485
911.833	15458
911.947	15367
912.062	15420
912.176	15428
912.291	15492
912.405	15526
912.519	15660
912.633	15675
912.748	15450
912.862	15447
912.976	15226
913.09	15169
913.204	15199
913.318	15298
913.431	15283
913.545	15355
913.659	15359
913.772	15237
913.886	15051
914	14952
914.113	15138
914.226	15195
914.34	15108
914.453	14982
914.566	15112
914.68	15020
914.793	14933
914.906	14788
915.019	14781
915.132	14674
915.245	14674
915.358	14663
915.47	14708
915.583	14587
915.696	14743
915.809	14849
915.921	14891
916.034	14617
916.146	14507
916.259	14549
916.371	14705
916.483	14610
916.595	14568
916.708	14454
916.82	14594
916.932	14533
917.044	14412
917.156	14476
917.268	14294
917.38	14400
917.491	14324
917.603	14343
917.715	14393
917.826	14389
917.938	14290
918.049	14168
918.161	14385
918.272	14446
918.384	14324
918.495	14358
918.606	14134
918.717	14107
918.828	14119
918.939	14142
919.05	14088
919.161	14153
919.272	13879
919.383	13978
919.494	14126
919.604	14210
919.715	14077
919.826	14111
919.936	14043
920.047	14119
920.157	14043
920.267	14282
920.378	13993
920.488	13997
920.598	14225
920.708	14404
920.818	14191
920.928	14221
921.038	14347
921.148	14180
921.258	14039
921.368	13898
921.477	13875
921.587	13788
921.697	13639
921.806	13818
921.916	13643
922.025	13464
922.134	13521
922.244	13384
922.353	13544
922.462	13293
922.571	13160
922.68	13072
922.789	13080
922.898	13091
923.007	13027
923.116	13065
923.224	13088
923.333	13061
923.442	12920
923.55	12867
923.659	12901
923.767	12947
923.876	12894
923.984	13008
924.092	12738
924.201	12806
924.309	12856
924.417	12757
924.525	12768
924.633	12798
924.741	13544
924.849	12631
924.956	12646
925.064	12536
925.172	12475
925.279	12502
925.387	12456
925.494	12517
925.602	12623
925.709	12673
925.816	12498
925.924	12547
926.031	12521
926.138	12479
926.245	12544
926.352	12338
926.459	12490
926.566	12448
926.673	12372
926.779	12319
926.886	12224
926.993	12201
927.099	12140
927.206	11996
927.312	12038
927.419	12136
927.525	12136
927.631	12076
927.737	12057
927.843	12045
927.95	11824
928.056	11988
928.162	12019
928.267	11923
928.373	12563
928.479	12053
928.585	11794
928.69	11866
928.796	11912
928.901	11794
929.007	11714
929.112	11832
929.218	11729
929.323	11676
929.428	11657
929.533	11764
929.638	11600
929.743	11554
929.848	11543
929.953	11543
930.058	11482
930.163	11265
930.267	11417
930.372	11551
930.477	11307
930.581	11482
930.685	11376
930.79	11193
930.894	11212
930.998	11174
931.103	11330
931.207	10972
931.311	10900
931.415	10831
931.519	10626
931.623	10672
