Data from test_V78500241_1446.txt Node
Date: Fri Mar 25 15:51:49 CST 2022
User: usil
Spectrometer: V785-0024
Trigger mode: 0
Integration Time (sec): 4.000000E-1
Scans to average: 1
Nonlinearity correction enabled: false
Boxcar width: 0
Storing dark spectrum: false
XAxis mode: Wavelengths
Number of Pixels in Spectrum: 1024
>>>>>Begin Spectral Data<<<<<
801.071	28318
801.214	28196
801.356	28109
801.499	28067
801.641	27865
801.783	27816
801.926	27850
802.068	27892
802.211	27865
802.353	27641
802.496	27732
802.638	27561
802.78	27652
802.923	27606
803.065	27420
803.208	27462
803.35	27641
803.492	27603
803.635	27880
803.777	27755
803.919	27793
804.061	28295
804.204	27846
804.346	27812
804.488	27789
804.63	27717
804.773	27778
804.915	28025
805.057	27895
805.199	27762
805.341	27861
805.483	27914
805.626	27876
805.768	27800
805.91	27888
806.052	28082
806.194	27930
806.336	28101
806.478	28150
806.62	27934
806.762	28150
806.904	28219
807.046	28474
807.188	28489
807.33	28428
807.472	28519
807.614	28447
807.756	28474
807.898	28204
808.04	28204
808.182	28196
808.324	28322
808.465	28318
808.607	28451
808.749	28694
808.891	28664
809.033	28748
809.174	28664
809.316	28615
809.458	28538
809.6	28618
809.741	28763
809.883	28733
810.025	28835
810.166	28900
810.308	28938
810.45	28927
810.591	28801
810.733	28702
810.875	28664
811.016	28542
811.158	28512
811.299	28881
811.441	28763
811.582	28816
811.724	28725
811.865	28538
812.007	28470
812.148	28717
812.29	28679
812.431	28835
812.573	28888
812.714	29121
812.855	29052
812.997	29155
813.138	29459
813.279	29292
813.421	29121
813.562	29178
813.703	28854
813.845	28824
813.986	28664
814.127	28440
814.268	28424
814.41	28333
814.551	28306
814.692	28405
814.833	28219
814.974	28367
815.115	28405
815.256	28166
815.397	28177
815.539	28230
815.68	28280
815.821	28029
815.962	28173
816.103	28070
816.244	28013
816.385	28101
816.526	27903
816.666	27580
816.807	27667
816.948	27793
817.089	27842
817.23	27614
817.371	27698
817.512	27530
817.653	27682
817.793	27637
817.934	27580
818.075	27595
818.216	27709
818.356	27538
818.497	27511
818.638	27313
818.778	27496
818.919	27268
819.06	27389
819.2	27424
819.341	27583
819.481	27705
819.622	27884
819.762	27865
819.903	27835
820.043	27743
820.184	27869
820.324	27831
820.465	27705
820.605	27987
820.746	27713
820.886	27648
821.026	27762
821.167	27686
821.307	27876
821.447	27660
821.588	27557
821.728	27477
821.868	27256
822.008	27188
822.149	27058
822.289	27028
822.429	26861
822.569	26864
822.709	26701
822.849	26594
822.99	26705
823.13	26541
823.27	26545
823.41	26533
823.55	26301
823.69	26415
823.83	26438
823.97	26389
824.11	26180
824.25	26187
824.389	26324
824.529	26332
824.669	26206
824.809	26339
824.949	26457
825.089	26503
825.228	26305
825.368	26191
825.508	26172
825.648	26168
825.787	26100
825.927	26195
826.067	26134
826.206	26294
826.346	26164
826.485	26298
826.625	26229
826.765	26183
826.904	26180
827.044	25765
827.183	25947
827.323	25940
827.462	25928
827.601	25856
827.741	25837
827.88	25944
828.02	25723
828.159	25807
828.298	25966
828.437	25986
828.577	25925
828.716	25909
828.855	25750
828.994	25521
829.134	25597
829.273	25670
829.412	25537
829.551	25525
829.69	25586
829.829	25521
829.968	25605
830.107	25575
830.246	25449
830.385	25571
830.524	25479
830.663	25384
830.802	25194
830.941	25156
831.08	25145
831.219	25320
831.357	25110
831.496	25324
831.635	25061
831.774	24954
831.913	25164
832.051	24981
832.19	24989
832.329	24973
832.467	24810
832.606	24928
832.744	24730
832.883	24798
833.022	24856
833.16	24795
833.299	24825
833.437	24856
833.576	24837
833.714	24848
833.852	25050
833.991	24852
834.129	25015
834.267	24894
834.406	24806
834.544	24901
834.682	24844
834.821	24749
834.959	25095
835.097	24829
835.235	24909
835.373	24783
835.511	24863
835.65	24692
835.788	24760
835.926	24574
836.064	24639
836.202	24612
836.34	24848
836.478	24719
836.615	24654
836.753	24730
836.891	24669
837.029	24673
837.167	24658
837.305	24582
837.443	24631
837.58	24528
837.718	24555
837.856	24593
837.993	24437
838.131	24544
838.269	24418
838.406	24403
838.544	24292
838.681	24178
838.819	24201
838.956	23870
839.094	23958
839.231	24129
839.369	24159
839.506	24285
839.643	24182
839.781	23920
839.918	23863
840.055	23996
840.193	23950
840.33	23897
840.467	23882
840.604	24034
840.742	24209
840.879	23821
841.016	23908
841.153	23756
841.29	23958
841.427	23760
841.564	23897
841.701	23897
841.838	23748
841.975	23790
842.112	23863
842.249	23798
842.385	23684
842.522	23767
842.659	23710
842.796	23657
842.933	23684
843.069	23486
843.206	23687
843.343	23821
843.479	23657
843.616	23680
843.752	23322
843.889	23539
844.025	23467
844.162	23414
844.298	23570
844.435	23566
844.571	23349
844.708	23463
844.844	23623
844.98	23630
845.117	23429
845.253	23395
845.389	23307
845.525	23261
845.661	23280
845.798	23056
845.934	23292
846.07	23193
846.206	23216
846.342	23239
846.478	23060
846.614	23056
846.75	22839
846.886	22942
847.022	22942
847.158	22873
847.294	22942
847.429	23006
847.565	22839
847.701	23098
847.837	22599
847.972	22649
848.108	22801
848.244	22649
848.379	22580
848.515	22519
848.65	22516
848.786	22478
848.921	22474
849.057	22653
849.192	22508
849.328	22519
849.463	22481
849.598	22527
849.734	22356
849.869	22398
850.004	22181
850.14	22234
850.275	22265
850.41	22025
850.545	22314
850.68	22261
850.815	22284
850.95	22276
851.085	22382
851.22	22466
851.355	22276
851.49	22219
851.625	22200
851.76	22329
851.895	22181
852.03	22166
852.165	22249
852.299	22257
852.434	22268
852.569	22192
852.703	22299
852.838	22371
852.973	22367
853.107	22310
853.242	22166
853.376	22109
853.511	21983
853.645	22044
853.78	22109
853.914	22090
854.048	22051
854.183	22036
854.317	22082
854.451	22219
854.585	22128
854.72	21968
854.854	22120
854.988	22013
855.122	21968
855.256	21964
855.39	22021
855.524	22147
855.658	22181
855.792	22116
855.926	22173
856.06	21987
856.194	22150
856.327	22082
856.461	22044
856.595	21998
856.729	22067
856.862	22135
856.996	22090
857.13	22112
857.263	22093
857.397	22029
857.53	22070
857.664	22074
857.797	22154
857.931	22010
858.064	21983
858.197	22192
858.331	22002
858.464	22010
858.597	21899
858.731	22032
858.864	22032
858.997	21968
859.13	22116
859.263	22055
859.396	22017
859.529	21991
859.662	22090
859.795	21998
859.928	22090
860.061	22204
860.194	22185
860.327	22143
860.46	22082
860.592	22116
860.725	22265
860.858	22166
860.99	22051
861.123	22067
861.256	21991
861.388	21960
861.521	22968
861.653	21975
861.786	21945
861.918	21865
862.05	21903
862.183	21998
862.315	22101
862.447	22006
862.58	21960
862.712	21755
862.844	21766
862.976	21781
863.108	21819
863.24	22162
863.372	21656
863.504	21865
863.636	21762
863.768	21789
863.9	21751
864.032	21739
864.164	21709
864.296	21789
864.428	21823
864.559	21823
864.691	21789
864.823	21781
864.954	21732
865.086	21785
865.217	21705
865.349	21561
865.48	21644
865.612	21610
865.743	21755
865.875	21667
866.006	21759
866.137	21759
866.269	21698
866.4	21682
866.531	21488
866.662	21606
866.793	21587
866.924	21614
867.055	21663
867.186	21587
867.317	21526
867.448	21568
867.579	21583
867.71	21473
867.841	21504
867.972	21572
868.103	21580
868.233	21504
868.364	21515
868.495	21759
868.625	21797
868.756	21903
868.886	21842
869.017	21732
869.147	21884
869.278	21926
869.408	21903
869.539	21869
869.669	21953
869.799	21800
869.929	21949
870.06	21907
870.19	22147
870.32	22112
870.45	22173
870.58	22120
870.71	22284
870.84	22402
870.97	22196
871.1	22188
871.23	22413
871.36	22424
871.489	22390
871.619	22341
871.749	22318
871.879	22424
872.008	22637
872.138	22360
872.267	22371
872.397	22409
872.526	22276
872.656	22299
872.785	22215
872.915	22508
873.044	22413
873.173	22554
873.303	22348
873.432	22481
873.561	22550
873.69	22493
873.819	22371
873.948	22535
874.077	22394
874.206	22386
874.335	22398
874.464	22573
874.593	22618
874.722	22679
874.851	22729
874.979	22771
875.108	22831
875.237	22755
875.365	22599
875.494	22645
875.623	22778
875.751	22607
875.88	22752
876.008	22771
876.136	22949
876.265	23147
876.393	23197
876.521	23269
876.65	23223
876.778	22976
876.906	23079
877.034	23079
877.162	22999
877.29	22972
877.418	23018
877.546	22930
877.674	22953
877.802	23014
877.93	23067
878.058	22965
878.185	22839
878.313	23025
878.441	22942
878.568	22877
878.696	22949
878.824	23094
878.951	23052
879.079	23185
879.206	23235
879.333	23231
879.461	22911
879.588	23155
879.715	23124
879.842	23181
879.97	23113
880.097	22816
880.224	22801
880.351	22892
880.478	22725
880.605	22809
880.732	22774
880.859	23044
880.986	22866
881.112	22778
881.239	22668
881.366	22599
881.493	22382
881.619	22459
881.746	22348
881.872	22341
881.999	22436
882.125	22246
882.252	22234
882.378	22428
882.505	22470
882.631	22226
882.757	22173
882.883	22207
883.01	22150
883.136	22044
883.262	21819
883.388	21960
883.514	22143
883.64	21991
883.766	21987
883.892	21842
884.018	22021
884.143	21994
884.269	22116
884.395	21892
884.52	21804
884.646	21648
884.772	21660
884.897	21625
885.023	21717
885.148	21808
885.274	21724
885.399	21808
885.524	21694
885.65	21766
885.775	21671
885.9	21686
886.025	21743
886.15	21743
886.275	21606
886.4	21641
886.525	21622
886.65	21641
886.775	21576
886.9	21880
887.025	21911
887.149	21652
887.274	21530
887.399	21397
887.523	21359
887.648	21462
887.773	21420
887.897	21485
888.021	21401
888.146	21420
888.27	21542
888.395	21583
888.519	21401
888.643	21553
888.767	21530
888.891	21481
889.015	21211
889.139	21351
889.263	21214
889.387	21370
889.511	21557
889.635	21401
889.759	21195
889.883	21268
890.006	21272
890.13	21389
890.254	21161
890.377	21230
890.501	20914
890.624	20910
890.748	20963
890.871	20967
890.995	20746
891.118	20762
891.241	20754
891.364	20849
891.488	20937
891.611	20804
891.734	20792
891.857	20876
891.98	20720
892.103	20838
892.226	20842
892.349	20750
892.471	20571
892.594	20712
892.717	20701
892.839	20758
892.962	20682
893.085	20754
893.207	20697
893.33	20678
893.452	20686
893.575	20804
893.697	20781
893.819	20960
893.941	20899
894.064	20883
894.186	20682
894.308	20594
894.43	20887
894.552	20819
894.674	20636
894.796	20617
894.918	20773
895.04	20644
895.161	20815
895.283	20720
895.405	20670
895.526	20625
895.648	20659
895.769	20632
895.891	20708
896.012	20960
896.134	20762
896.255	20667
896.376	20564
896.498	20773
896.619	20781
896.74	20758
896.861	20819
896.982	20910
897.103	21119
897.224	20990
897.345	20910
897.466	20929
897.587	20918
897.708	21051
897.828	20998
897.949	20845
898.07	20773
898.19	20845
898.311	20910
898.431	20834
898.552	20975
898.672	20975
898.792	21081
898.913	21024
899.033	20838
899.153	20670
899.273	20651
899.393	20648
899.513	20724
899.633	20659
899.753	20678
899.873	20602
899.993	20682
900.113	20629
900.232	20549
900.352	20526
900.472	20450
900.591	20339
900.711	20484
900.83	20381
900.95	20682
901.069	20484
901.189	20313
901.308	20100
901.427	19849
901.546	19993
901.665	20035
901.784	19936
901.904	19765
902.023	19712
902.141	19521
902.26	19521
902.379	19563
902.498	19571
902.617	19445
902.735	19472
902.854	19411
902.973	19293
903.091	19209
903.21	19285
903.328	19148
903.446	19091
903.565	19050
903.683	18954
903.801	18810
903.919	18859
904.038	18840
904.156	18779
904.274	18825
904.392	18646
904.51	18669
904.627	18798
904.745	18696
904.863	18684
904.981	18464
905.098	18407
905.216	18441
905.334	18346
905.451	18486
905.569	18330
905.686	18399
905.803	18391
905.921	18087
906.038	18228
906.155	18194
906.272	18110
906.389	18167
906.506	17999
906.623	17980
906.74	17908
906.857	17817
906.974	17878
907.091	17901
907.208	18053
907.324	18034
907.441	17798
907.557	17745
907.674	17668
907.79	17573
907.907	17596
908.023	17703
908.139	17687
908.256	17707
908.372	17452
908.488	17448
908.604	17296
908.72	17421
908.836	17368
908.952	17360
909.068	17292
909.184	17436
909.3	17383
909.415	17372
909.531	17315
909.647	17010
909.762	17052
909.878	16976
909.993	17048
910.108	16972
910.224	17037
910.339	16938
910.454	16820
910.57	16812
910.685	16786
910.8	17105
910.915	17003
911.03	16824
911.145	16721
911.259	16607
911.374	16535
911.489	16554
911.604	16478
911.718	16428
911.833	16424
911.947	16322
912.062	16219
912.176	16398
912.291	16329
912.405	16443
912.519	16675
912.633	16611
912.748	16409
912.862	16318
912.976	16322
913.09	15972
913.204	16112
913.318	16200
913.431	16230
913.545	16272
913.659	16219
913.772	16169
913.886	15983
914	15998
914.113	16036
914.226	16093
914.34	15956
914.453	15960
914.566	16013
914.68	15838
914.793	15800
914.906	15682
915.019	15595
915.132	15469
915.245	15675
915.358	15538
915.47	15526
915.583	15599
915.696	15576
915.809	15709
915.921	15675
916.034	15458
916.146	15424
916.259	15447
916.371	15447
916.483	15610
916.595	15378
916.708	15378
916.82	15389
916.932	15340
917.044	15336
917.156	15260
917.268	15211
917.38	15104
917.491	15237
917.603	15252
917.715	15241
917.826	15275
917.938	15116
918.049	15028
918.161	15081
918.272	15283
918.384	15306
918.495	15161
918.606	15074
918.717	14899
918.828	14979
918.939	14956
919.05	14906
919.161	15028
919.272	14777
919.383	14807
919.494	14899
919.604	15119
919.715	14819
919.826	14861
919.936	14941
920.047	14910
920.157	14910
920.267	15097
920.378	14910
920.488	14895
920.598	15077
920.708	15279
920.818	15093
920.928	15074
921.038	15138
921.148	15165
921.258	14975
921.368	14792
921.477	14602
921.587	14583
921.697	14545
921.806	14674
921.916	14530
922.025	14355
922.134	14225
922.244	14240
922.353	14313
922.462	14256
922.571	14077
922.68	13879
922.789	13963
922.898	13917
923.007	13875
923.116	13936
923.224	13925
923.333	13932
923.442	13753
923.55	13704
923.659	13803
923.767	13818
923.876	13639
923.984	13761
924.092	13571
924.201	13662
924.309	13651
924.417	13616
924.525	13552
924.633	13540
924.741	14370
924.849	13335
924.956	13597
925.064	13354
925.172	13255
925.279	13289
925.387	13377
925.494	13339
925.602	13392
925.709	13392
925.816	13209
925.924	13213
926.031	13320
926.138	13259
926.245	13285
926.352	13175
926.459	13343
926.566	13297
926.673	13240
926.779	13004
926.886	13053
926.993	12886
927.099	12928
927.206	12772
927.312	12764
927.419	12951
927.525	12924
927.631	12825
927.737	12753
927.843	12734
927.95	12612
928.056	12768
928.162	12650
928.267	12692
928.373	13362
928.479	12688
928.585	12498
928.69	12597
928.796	12662
928.901	12506
929.007	12334
929.112	12479
929.218	12601
929.323	12494
929.428	12502
929.533	12509
929.638	12216
929.743	12388
929.848	12384
929.953	12315
930.058	12155
930.163	12030
930.267	12091
930.372	12224
930.477	11980
930.581	12262
930.685	12102
930.79	12030
930.894	12041
930.998	11882
931.103	12057
931.207	11585
931.311	11604
931.415	11577
931.519	11326
931.623	11288
