Data from test_V78500241_2738.txt Node
Date: Fri Mar 25 16:00:46 CST 2022
User: usil
Spectrometer: V785-0024
Trigger mode: 0
Integration Time (sec): 4.000000E-1
Scans to average: 1
Nonlinearity correction enabled: false
Boxcar width: 0
Storing dark spectrum: false
XAxis mode: Wavelengths
Number of Pixels in Spectrum: 1024
>>>>>Begin Spectral Data<<<<<
801.071	28622
801.214	28554
801.356	28322
801.499	28131
801.641	28070
801.783	27987
801.926	28223
802.068	28063
802.211	28143
802.353	27968
802.496	27743
802.638	27800
802.78	27652
802.923	27663
803.065	27739
803.208	27660
803.35	27728
803.492	27941
803.635	27888
803.777	27934
803.919	27975
804.061	28421
804.204	28150
804.346	27914
804.488	27918
804.63	28021
804.773	27937
804.915	28025
805.057	28097
805.199	27945
805.341	28147
805.483	28188
805.626	28036
805.768	27930
805.91	28238
806.052	28215
806.194	28112
806.336	28246
806.478	28139
806.62	28169
806.762	28341
806.904	28375
807.046	28653
807.188	28626
807.33	28565
807.472	28641
807.614	28554
807.756	28455
807.898	28451
808.04	28325
808.182	28561
808.324	28542
808.465	28417
808.607	28653
808.749	28930
808.891	28946
809.033	29185
809.174	28980
809.316	28839
809.458	28888
809.6	28702
809.741	28896
809.883	28911
810.025	29071
810.166	29197
810.308	29113
810.45	29022
810.591	28938
810.733	28816
810.875	28946
811.016	28809
811.158	28691
811.299	29022
811.441	29048
811.582	28995
811.724	28866
811.865	28850
812.007	28892
812.148	28896
812.29	28843
812.431	29083
812.573	29159
812.714	29284
812.855	29364
812.997	29471
813.138	29554
813.279	29493
813.421	29471
813.562	29242
813.703	29197
813.845	29174
813.986	28744
814.127	28869
814.268	28542
814.41	28645
814.551	28527
814.692	28710
814.833	28535
814.974	28451
815.115	28577
815.256	28440
815.397	28538
815.539	28394
815.68	28413
815.821	28200
815.962	28451
816.103	28443
816.244	28310
816.385	28219
816.526	28097
816.666	27983
816.807	27903
816.948	27922
817.089	27941
817.23	28002
817.371	27907
817.512	27873
817.653	27945
817.793	27884
817.934	27873
818.075	27819
818.216	27873
818.356	27804
818.497	27827
818.638	27644
818.778	27633
818.919	27576
819.06	27686
819.2	27914
819.341	27743
819.481	27865
819.622	28021
819.762	28207
819.903	28162
820.043	28090
820.184	27964
820.324	27998
820.465	28048
820.605	28044
820.746	28048
820.886	27789
821.026	27854
821.167	27888
821.307	28067
821.447	27812
821.588	27812
821.728	27816
821.868	27511
822.008	27431
822.149	27367
822.289	27329
822.429	27157
822.569	27024
822.709	27005
822.849	26849
822.99	26921
823.13	26853
823.27	26887
823.41	26693
823.55	26594
823.69	26777
823.83	26731
823.97	26408
824.11	26537
824.25	26343
824.389	26419
824.529	26636
824.669	26533
824.809	26651
824.949	26663
825.089	26560
825.228	26541
825.368	26282
825.508	26324
825.648	26317
825.787	26453
825.927	26385
826.067	26301
826.206	26313
826.346	26488
826.485	26320
826.625	26320
826.765	26499
826.904	26362
827.044	26145
827.183	26271
827.323	26001
827.462	26195
827.601	26096
827.741	26103
827.88	26046
828.02	25940
828.159	26054
828.298	25993
828.437	26065
828.577	26062
828.716	26153
828.855	25970
828.994	25742
829.134	25795
829.273	25833
829.412	25913
829.551	25738
829.69	25822
829.829	25830
829.968	25955
830.107	25731
830.246	25734
830.385	25643
830.524	25784
830.663	25578
830.802	25518
830.941	25377
831.08	25358
831.219	25419
831.357	25411
831.496	25575
831.635	25369
831.774	25358
831.913	25301
832.051	25179
832.19	25148
832.329	25209
832.467	25008
832.606	24856
832.744	25046
832.883	25069
833.022	25034
833.16	24992
833.299	25027
833.437	25015
833.576	25122
833.714	25183
833.852	25183
833.991	25069
834.129	25320
834.267	25145
834.406	25107
834.544	25244
834.682	25133
834.821	25069
834.959	25198
835.097	25053
835.235	25050
835.373	25019
835.511	25118
835.65	25061
835.788	24939
835.926	24779
836.064	24772
836.202	24863
836.34	25019
836.478	24992
836.615	24924
836.753	25076
836.891	24863
837.029	25031
837.167	24871
837.305	24806
837.443	24787
837.58	24760
837.718	24741
837.856	24738
837.993	24681
838.131	24753
838.269	24593
838.406	24661
838.544	24582
838.681	24414
838.819	24399
838.956	24136
839.094	24049
839.231	24285
839.369	24407
839.506	24783
839.643	24456
839.781	24174
839.918	24220
840.055	24209
840.193	24125
840.33	24079
840.467	24182
840.604	24224
840.742	24544
840.879	23916
841.016	24079
841.153	24057
841.29	24239
841.427	24007
841.564	24121
841.701	24190
841.838	24095
841.975	23958
842.112	24049
842.249	23908
842.385	24026
842.522	24068
842.659	24045
842.796	23897
842.933	23904
843.069	24011
843.206	23687
843.343	23977
843.479	23805
843.616	23855
843.752	23699
843.889	23535
844.025	23752
844.162	23668
844.298	23733
844.435	23722
844.571	23592
844.708	23589
844.844	23836
844.98	23775
845.117	23722
845.253	23741
845.389	23634
845.525	23630
845.661	23535
845.798	23292
845.934	23402
846.07	23372
846.206	23391
846.342	23611
846.478	23360
846.614	23318
846.75	22965
846.886	23010
847.022	23269
847.158	23216
847.294	23170
847.429	23102
847.565	23121
847.701	23345
847.837	22812
847.972	23025
848.108	22908
848.244	22892
848.379	22824
848.515	22637
848.65	22656
848.786	22611
848.921	22801
849.057	22634
849.192	22801
849.328	22763
849.463	22672
849.598	22733
849.734	22603
849.869	22626
850.004	22405
850.14	22497
850.275	22497
850.41	22261
850.545	22276
850.68	22440
850.815	22634
850.95	22455
851.085	22649
851.22	22630
851.355	22432
851.49	22432
851.625	22352
851.76	22451
851.895	22462
852.03	22363
852.165	22504
852.299	22493
852.434	22622
852.569	22470
852.703	22478
852.838	22485
852.973	22618
853.107	22489
853.242	22542
853.376	22356
853.511	22196
853.645	22261
853.78	22466
853.914	22306
854.048	22211
854.183	22276
854.317	22318
854.451	22516
854.585	22314
854.72	22242
854.854	22413
854.988	22257
855.122	22280
855.256	22147
855.39	22246
855.524	22291
855.658	22417
855.792	22211
855.926	22276
856.06	22276
856.194	22341
856.327	22215
856.461	22131
856.595	22268
856.729	22249
856.862	22303
856.996	22314
857.13	22405
857.263	22306
857.397	22341
857.53	22291
857.664	22272
857.797	22386
857.931	22451
858.064	22276
858.197	22379
858.331	22204
858.464	22405
858.597	22276
858.731	22219
858.864	22185
858.997	22261
859.13	22223
859.263	22291
859.396	22386
859.529	22265
859.662	22223
859.795	22230
859.928	22234
860.061	22299
860.194	22554
860.327	22481
860.46	22432
860.592	22440
860.725	22535
860.858	22344
860.99	22379
861.123	22181
861.256	22200
861.388	22325
861.521	23025
861.653	22185
861.786	21941
861.918	22139
862.05	22139
862.183	22166
862.315	22219
862.447	22200
862.58	22226
862.712	21884
862.844	21975
862.976	22147
863.108	22147
863.24	22557
863.372	21895
863.504	21918
863.636	22013
863.768	22029
863.9	22078
864.032	21895
864.164	21937
864.296	21998
864.428	22078
864.559	21983
864.691	22086
864.823	21972
864.954	22006
865.086	21994
865.217	21911
865.349	21804
865.48	21968
865.612	21842
865.743	22036
865.875	21956
866.006	21831
866.137	21930
866.269	21907
866.4	21949
866.531	21781
866.662	21789
866.793	21793
866.924	21732
867.055	21743
867.186	21911
867.317	21819
867.448	21690
867.579	21812
867.71	21656
867.841	21751
867.972	21994
868.103	21781
868.233	21766
868.364	21759
868.495	22036
868.625	22048
868.756	22143
868.886	21922
869.017	22017
869.147	22101
869.278	22246
869.408	22010
869.539	21998
869.669	22185
869.799	22169
869.929	22238
870.06	22169
870.19	22398
870.32	22424
870.45	22299
870.58	22459
870.71	22580
870.84	22542
870.97	22500
871.1	22557
871.23	22626
871.36	22497
871.489	22565
871.619	22626
871.749	22607
871.879	22687
872.008	22763
872.138	22653
872.267	22710
872.397	22512
872.526	22542
872.656	22474
872.785	22417
872.915	22809
873.044	22733
873.173	22596
873.303	22824
873.432	22706
873.561	22801
873.69	22557
873.819	22767
873.948	22706
874.077	22725
874.206	22523
874.335	22710
874.464	22672
874.593	23033
874.722	22843
874.851	22968
874.979	22927
875.108	22968
875.237	22873
875.365	22774
875.494	22873
875.623	22816
875.751	22812
875.88	22904
876.008	23048
876.136	23037
876.265	23311
876.393	23440
876.521	23341
876.65	23265
876.778	23284
876.906	23136
877.034	23216
877.162	23223
877.29	23216
877.418	23345
877.546	23246
877.674	23277
877.802	23105
877.93	23258
878.058	23010
878.185	23147
878.313	23143
878.441	23235
878.568	22991
878.696	23090
878.824	23193
878.951	23425
879.079	23368
879.206	23611
879.333	23387
879.461	23193
879.588	23261
879.715	23356
879.842	23425
879.97	23258
880.097	23102
880.224	23044
880.351	23090
880.478	22949
880.605	22965
880.732	23067
880.859	23193
880.986	23094
881.112	23014
881.239	22892
881.366	22828
881.493	22725
881.619	22649
881.746	22653
881.872	22660
881.999	22508
882.125	22504
882.252	22637
882.378	22428
882.505	22691
882.631	22424
882.757	22405
882.883	22314
883.01	22306
883.136	22120
883.262	22070
883.388	22169
883.514	22204
883.64	22398
883.766	22181
883.892	22188
884.018	22124
884.143	22276
884.269	22348
884.395	21922
884.52	21808
884.646	22029
884.772	21804
884.897	21873
885.023	21869
885.148	22029
885.274	22029
885.399	21926
885.524	21960
885.65	21945
885.775	21941
885.9	21983
886.025	21930
886.15	22017
886.275	21884
886.4	21762
886.525	22010
886.65	21835
886.775	21911
886.9	22017
887.025	22101
887.149	21888
887.274	21793
887.399	21717
887.523	21652
887.648	21561
887.773	21595
887.897	21698
888.021	21739
888.146	21671
888.27	21766
888.395	21812
888.519	21800
888.643	21663
888.767	21808
888.891	21572
889.015	21462
889.139	21473
889.263	21523
889.387	21507
889.511	21633
889.635	21663
889.759	21435
889.883	21496
890.006	21534
890.13	21542
890.254	21279
890.377	21424
890.501	21378
890.624	21142
890.748	21302
890.871	21165
890.995	21005
891.118	20979
891.241	20982
891.364	21062
891.488	21188
891.611	20971
891.734	21096
891.857	21135
891.98	21017
892.103	21013
892.226	21001
892.349	21043
892.471	20807
892.594	20910
892.717	20880
892.839	21001
892.962	20952
893.085	20864
893.207	20944
893.33	20815
893.452	20746
893.575	20914
893.697	20891
893.819	21051
893.941	21150
894.064	21032
894.186	20842
894.308	20800
894.43	21001
894.552	21100
894.674	20956
894.796	20720
894.918	20937
895.04	20891
895.161	21100
895.283	20925
895.405	20868
895.526	20880
895.648	20834
895.769	20861
895.891	20933
896.012	20979
896.134	20918
896.255	20963
896.376	20838
896.498	20872
896.619	20868
896.74	20948
896.861	20918
896.982	21294
897.103	21401
897.224	21211
897.345	21123
897.466	21089
897.587	21184
897.708	21279
897.828	21226
897.949	21085
898.07	21024
898.19	21039
898.311	21127
898.431	21131
898.552	21062
898.672	21180
898.792	21127
898.913	21131
899.033	21039
899.153	20887
899.273	20705
899.393	20895
899.513	20796
899.633	20800
899.753	20914
899.873	20830
899.993	20842
900.113	20743
900.232	20857
900.352	20739
900.472	20686
900.591	20575
900.711	20651
900.83	20571
900.95	20689
901.069	20716
901.189	20587
901.308	20157
901.427	20301
901.546	20195
901.665	20161
901.784	20259
901.904	20073
902.023	19894
902.141	19696
902.26	19693
902.379	19791
902.498	19609
902.617	19670
902.735	19731
902.854	19609
902.973	19632
903.091	19392
903.21	19400
903.328	19339
903.446	19263
903.565	19225
903.683	19145
903.801	19012
903.919	19164
904.038	19019
904.156	18901
904.274	19061
904.392	18859
904.51	18867
904.627	18806
904.745	18932
904.863	19042
904.981	18646
905.098	18593
905.216	18578
905.334	18540
905.451	18521
905.569	18422
905.686	18551
905.803	18502
905.921	18376
906.038	18391
906.155	18327
906.272	18338
906.389	18277
906.506	18038
906.623	18159
906.74	18034
906.857	17980
906.974	17996
907.091	18159
907.208	18110
907.324	18235
907.441	17973
907.557	17783
907.674	17817
907.79	17741
907.907	17634
908.023	17904
908.139	17786
908.256	17684
908.372	17699
908.488	17726
908.604	17532
908.72	17474
908.836	17444
908.952	17414
909.068	17566
909.184	17566
909.3	17459
909.415	17490
909.531	17497
909.647	17254
909.762	17170
909.878	17212
909.993	17208
910.108	17147
910.224	17235
910.339	17124
910.454	17098
910.57	17003
910.685	16885
910.8	17189
910.915	17147
911.03	17064
911.145	16843
911.259	16816
911.374	16782
911.489	16744
911.604	16698
911.718	16645
911.833	16599
911.947	16432
912.062	16409
912.176	16512
912.291	16603
912.405	16550
912.519	16672
912.633	16687
912.748	16653
912.862	16428
912.976	16314
913.09	16352
913.204	16440
913.318	16333
913.431	16470
913.545	16459
913.659	16462
913.772	16226
913.886	16249
914	16093
914.113	16234
914.226	16139
914.34	16207
914.453	16032
914.566	16226
914.68	15956
914.793	16032
914.906	15827
915.019	15785
915.132	15644
915.245	15644
915.358	15812
915.47	15690
915.583	15781
915.696	15675
915.809	15743
915.921	15846
916.034	15610
916.146	15686
916.259	15732
916.371	15701
916.483	15641
916.595	15561
916.708	15561
916.82	15561
916.932	15561
917.044	15469
917.156	15435
917.268	15374
917.38	15397
917.491	15348
917.603	15412
917.715	15473
917.826	15584
917.938	15279
918.049	15256
918.161	15313
918.272	15313
918.384	15389
918.495	15298
918.606	15249
918.717	14998
918.828	15203
918.939	15192
919.05	15062
919.161	15089
919.272	14967
919.383	15017
919.494	15146
919.604	15325
919.715	15081
919.826	14956
919.936	15032
920.047	15116
920.157	15138
920.267	15260
920.378	15013
920.488	15009
920.598	15218
920.708	15283
920.818	15157
920.928	15127
921.038	15329
921.148	15214
921.258	14906
921.368	14895
921.477	14834
921.587	14785
921.697	14617
921.806	14800
921.916	14549
922.025	14419
922.134	14431
922.244	14488
922.353	14495
922.462	14305
922.571	14153
922.68	14062
922.789	13967
922.898	14084
923.007	14065
923.116	14115
923.224	14020
923.333	14020
923.442	13947
923.55	13845
923.659	13936
923.767	13879
923.876	13833
923.984	13932
924.092	13788
924.201	13746
924.309	13791
924.417	13780
924.525	13738
924.633	13693
924.741	14678
924.849	13453
924.956	13685
925.064	13544
925.172	13343
925.279	13464
925.387	13415
925.494	13415
925.602	13582
925.709	13552
925.816	13419
925.924	13354
926.031	13381
926.138	13350
926.245	13430
926.352	13285
926.459	13422
926.566	13419
926.673	13270
926.779	13160
926.886	13247
926.993	13031
927.099	12932
927.206	12993
927.312	12894
927.419	13088
927.525	13015
927.631	13027
927.737	12886
927.843	12890
927.95	12760
928.056	12802
928.162	12867
928.267	12840
928.373	13324
928.479	12878
928.585	12623
928.69	12730
928.796	12840
928.901	12677
929.007	12563
929.112	12658
929.218	12627
929.323	12528
929.428	12521
929.533	12669
929.638	12452
929.743	12475
929.848	12483
929.953	12460
930.058	12426
930.163	12235
930.267	12277
930.372	12388
930.477	12049
930.581	12346
930.685	12152
930.79	12136
930.894	12194
930.998	12140
931.103	12251
931.207	11824
931.311	11684
931.415	11615
931.519	11551
931.623	11509
