Data from test_V78500241_2910.txt Node
Date: Fri Mar 25 16:01:57 CST 2022
User: usil
Spectrometer: V785-0024
Trigger mode: 0
Integration Time (sec): 4.000000E-1
Scans to average: 1
Nonlinearity correction enabled: false
Boxcar width: 0
Storing dark spectrum: false
XAxis mode: Wavelengths
Number of Pixels in Spectrum: 1024
>>>>>Begin Spectral Data<<<<<
801.071	28687
801.214	28535
801.356	28516
801.499	28356
801.641	28261
801.783	28234
801.926	28230
802.068	28188
802.211	28211
802.353	28139
802.496	28025
802.638	28078
802.78	27869
802.923	27789
803.065	27781
803.208	28013
803.35	27937
803.492	28086
803.635	28097
803.777	28017
803.919	28169
804.061	28455
804.204	28325
804.346	28105
804.488	28105
804.63	28196
804.773	28226
804.915	28310
805.057	28280
805.199	28207
805.341	28295
805.483	28466
805.626	28436
805.768	28306
805.91	28375
806.052	28242
806.194	28223
806.336	28440
806.478	28455
806.62	28230
806.762	28447
806.904	28672
807.046	28759
807.188	28717
807.33	28892
807.472	28835
807.614	28687
807.756	28793
807.898	28649
808.04	28447
808.182	28679
808.324	28767
808.465	28713
808.607	28828
808.749	29018
808.891	29124
809.033	29273
809.174	29018
809.316	28995
809.458	28995
809.6	28908
809.741	29136
809.883	29189
810.025	29307
810.166	29242
810.308	29353
810.45	29193
810.591	29124
810.733	29151
810.875	29159
811.016	28900
811.158	28847
811.299	29041
811.441	29220
811.582	29124
811.724	28999
811.865	29094
812.007	29143
812.148	29037
812.29	29136
812.431	29265
812.573	29261
812.714	29471
812.855	29592
812.997	29866
813.138	29824
813.279	29657
813.421	29619
813.562	29516
813.703	29277
813.845	29356
813.986	28957
814.127	28938
814.268	28710
814.41	28778
814.551	28645
814.692	28972
814.833	28706
814.974	28645
815.115	28725
815.256	28664
815.397	28717
815.539	28653
815.68	28516
815.821	28535
815.962	28557
816.103	28474
816.244	28462
816.385	28371
816.526	28447
816.666	28226
816.807	28040
816.948	28215
817.089	28048
817.23	28055
817.371	27994
817.512	28112
817.653	28006
817.793	27991
817.934	27911
818.075	27956
818.216	27998
818.356	28010
818.497	27907
818.638	27937
818.778	27911
818.919	27888
819.06	27827
819.2	28078
819.341	28029
819.481	28093
819.622	28173
819.762	28440
819.903	28337
820.043	28360
820.184	28390
820.324	28200
820.465	28276
820.605	28211
820.746	28230
820.886	28021
821.026	28169
821.167	28257
821.307	28280
821.447	28112
821.588	27846
821.728	27857
821.868	27819
822.008	27492
822.149	27416
822.289	27595
822.429	27283
822.569	27154
822.709	27207
822.849	26925
822.99	27150
823.13	27146
823.27	27017
823.41	26906
823.55	26693
823.69	26895
823.83	26876
823.97	26861
824.11	26720
824.25	26636
824.389	26720
824.529	26849
824.669	26648
824.809	26868
824.949	26781
825.089	26899
825.228	26819
825.368	26503
825.508	26579
825.648	26640
825.787	26568
825.927	26689
826.067	26518
826.206	26629
826.346	26640
826.485	26720
826.625	26693
826.765	26724
826.904	26686
827.044	26446
827.183	26366
827.323	26214
827.462	26248
827.601	26362
827.741	26381
827.88	26366
828.02	26107
828.159	26191
828.298	26301
828.437	26290
828.577	26142
828.716	26351
828.855	26294
828.994	25986
829.134	26024
829.273	25898
829.412	26084
829.551	26005
829.69	25955
829.829	26069
829.968	26020
830.107	26024
830.246	26130
830.385	25791
830.524	26008
830.663	25879
830.802	25788
830.941	25753
831.08	25666
831.219	25712
831.357	25700
831.496	25864
831.635	25731
831.774	25537
831.913	25510
832.051	25434
832.19	25396
832.329	25559
832.467	25373
832.606	25240
832.744	25350
832.883	25190
833.022	25251
833.16	25339
833.299	25255
833.437	25339
833.576	25247
833.714	25381
833.852	25430
833.991	25274
834.129	25365
834.267	25373
834.406	25479
834.544	25377
834.682	25388
834.821	25362
834.959	25518
835.097	25392
835.235	25400
835.373	25392
835.511	25396
835.65	25247
835.788	25225
835.926	25065
836.064	24989
836.202	24951
836.34	25160
836.478	25091
836.615	25304
836.753	25217
836.891	25148
837.029	25164
837.167	25129
837.305	25126
837.443	25031
837.58	24966
837.718	25110
837.856	25027
837.993	25057
838.131	24951
838.269	24905
838.406	24932
838.544	24768
838.681	24616
838.819	24646
838.956	24589
839.094	24475
839.231	24464
839.369	24749
839.506	24878
839.643	24707
839.781	24467
839.918	24479
840.055	24429
840.193	24498
840.33	24228
840.467	24418
840.604	24403
840.742	24582
840.879	24285
841.016	24380
841.153	24292
841.29	24380
841.427	24441
841.564	24467
841.701	24460
841.838	24346
841.975	24186
842.112	24315
842.249	24079
842.385	24060
842.522	24410
842.659	24190
842.796	24190
842.933	24194
843.069	24136
843.206	24057
843.343	24209
843.479	24228
843.616	24194
843.752	23920
843.889	23939
844.025	24003
844.162	23805
844.298	23897
844.435	23817
844.571	23802
844.708	23901
844.844	24083
844.98	24087
845.117	24121
845.253	24045
845.389	23859
845.525	23859
845.661	23821
845.798	23680
845.934	23794
846.07	23646
846.206	23722
846.342	23695
846.478	23619
846.614	23482
846.75	23345
846.886	23299
847.022	23452
847.158	23398
847.294	23311
847.429	23387
847.565	23417
847.701	23509
847.837	23166
847.972	23121
848.108	23128
848.244	23147
848.379	22999
848.515	22854
848.65	23018
848.786	22949
848.921	22946
849.057	23060
849.192	23121
849.328	23075
849.463	23067
849.598	22976
849.734	22835
849.869	22862
850.004	22717
850.14	22725
850.275	22752
850.41	22694
850.545	22717
850.68	22649
850.815	22828
850.95	22744
851.085	22782
851.22	22953
851.355	22847
851.49	22740
851.625	22713
851.76	22755
851.895	22687
852.03	22615
852.165	22721
852.299	22736
852.434	22831
852.569	22778
852.703	22630
852.838	22896
852.973	22885
853.107	22972
853.242	22656
853.376	22478
853.511	22424
853.645	22500
853.78	22618
853.914	22557
854.048	22443
854.183	22538
854.317	22550
854.451	22816
854.585	22584
854.72	22607
854.854	22653
854.988	22538
855.122	22550
855.256	22421
855.39	22565
855.524	22561
855.658	22565
855.792	22550
855.926	22550
856.06	22596
856.194	22740
856.327	22569
856.461	22428
856.595	22485
856.729	22497
856.862	22717
856.996	22504
857.13	22546
857.263	22672
857.397	22710
857.53	22519
857.664	22512
857.797	22710
857.931	22740
858.064	22565
858.197	22664
858.331	22531
858.464	22466
858.597	22523
858.731	22580
858.864	22561
858.997	22519
859.13	22618
859.263	22447
859.396	22611
859.529	22538
859.662	22485
859.795	22428
859.928	22538
860.061	22771
860.194	22767
860.327	22573
860.46	22516
860.592	22573
860.725	22778
860.858	22675
860.99	22649
861.123	22440
861.256	22512
861.388	22588
861.521	23216
861.653	22360
861.786	22306
861.918	22424
862.05	22440
862.183	22504
862.315	22626
862.447	22470
862.58	22550
862.712	22265
862.844	22219
862.976	22341
863.108	22314
863.24	22805
863.372	22120
863.504	22234
863.636	22242
863.768	22314
863.9	22291
864.032	22044
864.164	22246
864.296	22265
864.428	22325
864.559	22276
864.691	22238
864.823	22318
864.954	22131
865.086	22253
865.217	22158
865.349	22082
865.48	22116
865.612	22093
865.743	22169
865.875	22215
866.006	22139
866.137	22116
866.269	22059
866.4	22120
866.531	22070
866.662	21972
866.793	22101
866.924	22082
867.055	21979
867.186	22067
867.317	22082
867.448	22013
867.579	22048
867.71	22116
867.841	21926
867.972	22021
868.103	21983
868.233	22093
868.364	22055
868.495	22131
868.625	22306
868.756	22367
868.886	22173
869.017	22249
869.147	22474
869.278	22428
869.408	22470
869.539	22344
869.669	22356
869.799	22246
869.929	22508
870.06	22432
870.19	22634
870.32	22588
870.45	22550
870.58	22664
870.71	22847
870.84	22691
870.97	22550
871.1	22653
871.23	22942
871.36	23003
871.489	22824
871.619	22915
871.749	22915
871.879	22919
872.008	22942
872.138	22805
872.267	22896
872.397	22835
872.526	22675
872.656	22755
872.785	22668
872.915	22987
873.044	23029
873.173	22942
873.303	22885
873.432	23090
873.561	23128
873.69	22987
873.819	22953
873.948	23044
874.077	22930
874.206	22820
874.335	23010
874.464	22995
874.593	23170
874.722	23121
874.851	23170
874.979	23143
875.108	23231
875.237	23056
875.365	23029
875.494	23124
875.623	23162
875.751	23193
875.88	23086
876.008	23246
876.136	23311
876.265	23585
876.393	23642
876.521	23501
876.65	23577
876.778	23577
876.906	23535
877.034	23387
877.162	23448
877.29	23493
877.418	23501
877.546	23516
877.674	23467
877.802	23543
877.93	23551
878.058	23387
878.185	23296
878.313	23551
878.441	23414
878.568	23303
878.696	23345
878.824	23509
878.951	23577
879.079	23611
879.206	23638
879.333	23554
879.461	23520
879.588	23661
879.715	23570
879.842	23699
879.97	23589
880.097	23239
880.224	23239
880.351	23372
880.478	23227
880.605	23220
880.732	23250
880.859	23493
880.986	23220
881.112	23303
881.239	23212
881.366	23018
881.493	23018
881.619	22892
881.746	22927
881.872	22900
881.999	22885
882.125	22698
882.252	22976
882.378	22850
882.505	23060
882.631	22736
882.757	22653
882.883	22557
883.01	22493
883.136	22554
883.262	22405
883.388	22314
883.514	22497
883.64	22512
883.766	22356
883.892	22242
884.018	22284
884.143	22398
884.269	22626
884.395	22204
884.52	22223
884.646	22124
884.772	22124
884.897	22040
885.023	22169
885.148	22280
885.274	22314
885.399	22303
885.524	22204
885.65	22135
885.775	22177
885.9	22097
886.025	22261
886.15	22147
886.275	22078
886.4	21930
886.525	22070
886.65	22086
886.775	22044
886.9	22154
887.025	22405
887.149	22112
887.274	22006
887.399	21998
887.523	21876
887.648	21789
887.773	21793
887.897	21956
888.021	21835
888.146	21861
888.27	21949
888.395	22002
888.519	21873
888.643	21903
888.767	21972
888.891	21785
889.015	21739
889.139	21819
889.263	21728
889.387	21892
889.511	21800
889.635	21835
889.759	21686
889.883	21606
890.006	21732
890.13	21804
890.254	21751
890.377	21618
890.501	21511
890.624	21545
890.748	21542
890.871	21260
890.995	21218
891.118	21180
891.241	21260
891.364	21226
891.488	21359
891.611	21279
891.734	21180
891.857	21203
891.98	21317
892.103	21291
892.226	21252
892.349	21279
892.471	21116
892.594	21169
892.717	21245
892.839	21077
892.962	21138
893.085	21340
893.207	21150
893.33	21013
893.452	21047
893.575	21047
893.697	21005
893.819	21287
893.941	21325
894.064	21329
894.186	21089
894.308	21142
894.43	21222
894.552	21226
894.674	21100
894.796	21039
894.918	21032
895.04	21104
895.161	21275
895.283	21150
895.405	21112
895.526	21123
895.648	21074
895.769	21241
895.891	21089
896.012	21157
896.134	21157
896.255	21070
896.376	21085
896.498	21226
896.619	21214
896.74	21070
896.861	21195
896.982	21485
897.103	21595
897.224	21435
897.345	21298
897.466	21268
897.587	21344
897.708	21431
897.828	21374
897.949	21245
898.07	21058
898.19	21135
898.311	21268
898.431	21188
898.552	21264
898.672	21344
898.792	21313
898.913	21405
899.033	21184
899.153	21089
899.273	20998
899.393	21055
899.513	21043
899.633	21066
899.753	21009
899.873	20956
899.993	20952
900.113	20967
900.232	21039
900.352	20963
900.472	20948
900.591	20670
900.711	20895
900.83	20720
900.95	20906
901.069	20937
901.189	20663
901.308	20366
901.427	20298
901.546	20339
901.665	20526
901.784	20377
901.904	20237
902.023	20043
902.141	20081
902.26	19845
902.379	19928
902.498	19776
902.617	19826
902.735	19902
902.854	19936
902.973	19746
903.091	19590
903.21	19483
903.328	19590
903.446	19525
903.565	19339
903.683	19308
903.801	19209
903.919	19327
904.038	19270
904.156	19175
904.274	19168
904.392	19038
904.51	19088
904.627	19008
904.745	19179
904.863	19126
904.981	18814
905.098	18776
905.216	18776
905.334	18757
905.451	18730
905.569	18738
905.686	18772
905.803	18772
905.921	18528
906.038	18650
906.155	18635
906.272	18388
906.389	18483
906.506	18369
906.623	18296
906.74	18273
906.857	18129
906.974	18213
907.091	18273
907.208	18399
907.324	18254
907.441	18186
907.557	18019
907.674	18034
907.79	17809
907.907	17855
908.023	18083
908.139	18041
908.256	17931
908.372	17920
908.488	17859
908.604	17722
908.72	17710
908.836	17729
908.952	17642
909.068	17870
909.184	17805
909.3	17748
909.415	17794
909.531	17687
909.647	17493
909.762	17334
909.878	17337
909.993	17471
910.108	17322
910.224	17277
910.339	17398
910.454	17246
910.57	17250
910.685	17193
910.8	17337
910.915	17349
911.03	17140
911.145	16972
911.259	16961
911.374	17048
911.489	16934
911.604	16786
911.718	16713
911.833	16729
911.947	16713
912.062	16584
912.176	16752
912.291	16634
912.405	16649
912.519	16835
912.633	16889
912.748	16729
912.862	16683
912.976	16569
913.09	16451
913.204	16409
913.318	16436
913.431	16698
913.545	16599
913.659	16645
913.772	16512
913.886	16356
914	16238
914.113	16462
914.226	16451
914.34	16363
914.453	16226
914.566	16333
914.68	16101
914.793	16188
914.906	16059
915.019	15930
915.132	15804
915.245	15838
915.358	15934
915.47	15876
915.583	15918
915.696	15968
915.809	15998
915.921	16078
916.034	15892
916.146	15778
916.259	15755
916.371	15865
916.483	15903
916.595	15751
916.708	15663
916.82	15720
916.932	15618
917.044	15720
917.156	15694
917.268	15443
917.38	15515
917.491	15397
917.603	15526
917.715	15538
917.826	15705
917.938	15488
918.049	15435
918.161	15534
918.272	15606
918.384	15625
918.495	15530
918.606	15195
918.717	15291
918.828	15157
918.939	15237
919.05	15176
919.161	15252
919.272	15074
919.383	15043
919.494	15374
919.604	15344
919.715	15184
919.826	15062
919.936	15104
920.047	15294
920.157	15211
920.267	15386
920.378	15264
920.488	15252
920.598	15336
920.708	15561
920.818	15389
920.928	15302
921.038	15485
921.148	15428
921.258	15291
921.368	15070
921.477	14982
921.587	14944
921.697	14857
921.806	14906
921.916	14792
922.025	14674
922.134	14644
922.244	14636
922.353	14556
922.462	14370
922.571	14336
922.68	14271
922.789	14195
922.898	14298
923.007	14168
923.116	14206
923.224	14176
923.333	14069
923.442	14058
923.55	14054
923.659	14001
923.767	14096
923.876	14050
923.984	14031
924.092	13852
924.201	13879
924.309	13887
924.417	13982
924.525	13845
924.633	13913
924.741	14800
924.849	13624
924.956	13826
925.064	13636
925.172	13514
925.279	13510
925.387	13636
925.494	13563
925.602	13647
925.709	13578
925.816	13472
925.924	13453
926.031	13639
926.138	13468
926.245	13480
926.352	13411
926.459	13556
926.566	13647
926.673	13411
926.779	13339
926.886	13274
926.993	13331
927.099	13152
927.206	13099
927.312	13091
927.419	13240
927.525	13080
927.631	13213
927.737	13008
927.843	12962
927.95	12913
928.056	12897
928.162	12958
928.267	13069
928.373	13620
928.479	13023
928.585	12722
928.69	12814
928.796	12913
928.901	12787
929.007	12730
929.112	12787
929.218	12734
929.323	12722
929.428	12738
929.533	12791
929.638	12517
929.743	12616
929.848	12719
929.953	12563
930.058	12525
930.163	12372
930.267	12323
930.372	12467
930.477	12342
930.581	12467
930.685	12445
930.79	12266
930.894	12330
930.998	12102
931.103	12304
931.207	11950
931.311	11885
931.415	11790
931.519	11638
931.623	11615
