Data from test_V78500241_1398.txt Node
Date: Fri Mar 25 15:51:29 CST 2022
User: usil
Spectrometer: V785-0024
Trigger mode: 0
Integration Time (sec): 4.000000E-1
Scans to average: 1
Nonlinearity correction enabled: false
Boxcar width: 0
Storing dark spectrum: false
XAxis mode: Wavelengths
Number of Pixels in Spectrum: 1024
>>>>>Begin Spectral Data<<<<<
801.071	27781
801.214	27625
801.356	27473
801.499	27268
801.641	27077
801.783	27180
801.926	27359
802.068	27135
802.211	27070
802.353	27180
802.496	27066
802.638	26868
802.78	26937
802.923	26800
803.065	26807
803.208	26823
803.35	26906
803.492	26933
803.635	27119
803.777	26975
803.919	27176
804.061	27397
804.204	27093
804.346	27093
804.488	27058
804.63	27161
804.773	26979
804.915	27150
805.057	27218
805.199	27055
805.341	27180
805.483	27294
805.626	27165
805.768	27154
805.91	27207
806.052	27176
806.194	27104
806.336	27447
806.478	27275
806.62	27283
806.762	27382
806.904	27564
807.046	27770
807.188	27667
807.33	27679
807.472	27709
807.614	27599
807.756	27542
807.898	27473
808.04	27481
808.182	27511
808.324	27450
808.465	27568
808.607	27705
808.749	27835
808.891	27998
809.033	27987
809.174	27930
809.316	27903
809.458	27888
809.6	27819
809.741	28090
809.883	27991
810.025	28173
810.166	28017
810.308	28101
810.45	28082
810.591	28147
810.733	27914
810.875	27842
811.016	27663
811.158	27835
811.299	27975
811.441	28086
811.582	28029
811.724	27873
811.865	27732
812.007	27736
812.148	27751
812.29	27884
812.431	28025
812.573	28109
812.714	28280
812.855	28382
812.997	28413
813.138	28557
813.279	28504
813.421	28329
813.562	28310
813.703	28242
813.845	27914
813.986	27838
814.127	27572
814.268	27606
814.41	27583
814.551	27553
814.692	27599
814.833	27462
814.974	27538
815.115	27618
815.256	27401
815.397	27310
815.539	27431
815.68	27157
815.821	27199
815.962	27340
816.103	27348
816.244	27233
816.385	27256
816.526	27100
816.666	26769
816.807	26883
816.948	26826
817.089	26937
817.23	26838
817.371	26864
817.512	26796
817.653	26899
817.793	26758
817.934	26735
818.075	26880
818.216	26800
818.356	26758
818.497	26644
818.638	26495
818.778	26640
818.919	26514
819.06	26701
819.2	26727
819.341	26895
819.481	26895
819.622	26944
819.762	27119
819.903	27138
820.043	27146
820.184	26891
820.324	26921
820.465	27028
820.605	26990
820.746	26876
820.886	26940
821.026	26929
821.167	26921
821.307	26937
821.447	26781
821.588	26773
821.728	26651
821.868	26434
822.008	26275
822.149	26248
822.289	26229
822.429	26046
822.569	25989
822.709	25986
822.849	25803
822.99	25833
823.13	25727
823.27	25734
823.41	25563
823.55	25548
823.69	25624
823.83	25757
823.97	25563
824.11	25441
824.25	25289
824.389	25396
824.529	25460
824.669	25422
824.809	25552
824.949	25434
825.089	25472
825.228	25476
825.368	25225
825.508	25289
825.648	25297
825.787	25308
825.927	25430
826.067	25259
826.206	25441
826.346	25369
826.485	25278
826.625	25293
826.765	25316
826.904	25289
827.044	24992
827.183	25080
827.323	25038
827.462	24985
827.601	25034
827.741	24958
827.88	25069
828.02	24920
828.159	24943
828.298	24951
828.437	25129
828.577	25107
828.716	25034
828.855	24958
828.994	24688
829.134	24700
829.273	24730
829.412	24642
829.551	24631
829.69	24764
829.829	24684
829.968	24795
830.107	24776
830.246	24700
830.385	24570
830.524	24631
830.663	24494
830.802	24429
830.941	24372
831.08	24365
831.219	24178
831.357	24384
831.496	24399
831.635	24357
831.774	24171
831.913	24205
832.051	24216
832.19	23893
832.329	24087
832.467	23885
832.606	23942
832.744	23954
832.883	24015
833.022	23942
833.16	23923
833.299	23992
833.437	23977
833.576	23992
833.714	24064
833.852	24068
833.991	24079
834.129	24140
834.267	23988
834.406	24022
834.544	23999
834.682	24015
834.821	23859
834.959	24289
835.097	23923
835.235	24060
835.373	23977
835.511	24011
835.65	23863
835.788	23893
835.926	23665
836.064	23665
836.202	23813
836.34	23832
836.478	23855
836.615	23813
836.753	23973
836.891	23885
837.029	23847
837.167	23764
837.305	23691
837.443	23676
837.58	23634
837.718	23832
837.856	23733
837.993	23665
838.131	23623
838.269	23535
838.406	23653
838.544	23520
838.681	23410
838.819	23425
838.956	23185
839.094	23147
839.231	23299
839.369	23402
839.506	23463
839.643	23417
839.781	23147
839.918	22995
840.055	23151
840.193	23147
840.33	23056
840.467	23269
840.604	23147
840.742	23402
840.879	22995
841.016	23003
841.153	23136
841.29	23178
841.427	23075
841.564	23052
841.701	23037
841.838	22991
841.975	23006
842.112	23083
842.249	22987
842.385	22763
842.522	22999
842.659	22957
842.796	22797
842.933	22774
843.069	22835
843.206	22786
843.343	22877
843.479	22862
843.616	22854
843.752	22592
843.889	22538
844.025	22930
844.162	22668
844.298	22710
844.435	22622
844.571	22443
844.708	22603
844.844	22744
844.98	22778
845.117	22801
845.253	22455
845.389	22386
845.525	22455
845.661	22599
845.798	22360
845.934	22455
846.07	22462
846.206	22390
846.342	22550
846.478	22367
846.614	22181
846.75	21983
846.886	22002
847.022	22147
847.158	22166
847.294	22101
847.429	22086
847.565	22059
847.701	22268
847.837	21781
847.972	21930
848.108	21918
848.244	21941
848.379	21686
848.515	21648
848.65	21610
848.786	21739
848.921	21785
849.057	21827
849.192	21660
849.328	21679
849.463	21675
849.598	21572
849.734	21625
849.869	21595
850.004	21538
850.14	21523
850.275	21431
850.41	21374
850.545	21389
850.68	21477
850.815	21420
850.95	21370
851.085	21606
851.22	21534
851.355	21492
851.49	21507
851.625	21329
851.76	21466
851.895	21397
852.03	21325
852.165	21382
852.299	21557
852.434	21439
852.569	21447
852.703	21450
852.838	21542
852.973	21580
853.107	21618
853.242	21363
853.376	21256
853.511	21283
853.645	21233
853.78	21367
853.914	21408
854.048	21207
854.183	21245
854.317	21313
854.451	21492
854.585	21287
854.72	21233
854.854	21302
854.988	21207
855.122	21336
855.256	21142
855.39	21195
855.524	21294
855.658	21386
855.792	21283
855.926	21192
856.06	21355
856.194	21329
856.327	21123
856.461	21226
856.595	21252
856.729	21310
856.862	21367
856.996	21195
857.13	21283
857.263	21351
857.397	21317
857.53	21283
857.664	21298
857.797	21355
857.931	21397
858.064	21336
858.197	21359
858.331	21230
858.464	21176
858.597	21108
858.731	21214
858.864	21306
858.997	21157
859.13	21233
859.263	21249
859.396	21325
859.529	21199
859.662	21203
859.795	21203
859.928	21233
860.061	21458
860.194	21492
860.327	21363
860.46	21355
860.592	21325
860.725	21485
860.858	21420
860.99	21306
861.123	21089
861.256	21150
861.388	21317
861.521	21983
861.653	21150
861.786	21058
861.918	21131
862.05	21039
862.183	21093
862.315	21226
862.447	21283
862.58	21150
862.712	21047
862.844	20998
862.976	21089
863.108	21055
863.24	21447
863.372	20857
863.504	20994
863.636	20910
863.768	21028
863.9	20975
864.032	21005
864.164	20830
864.296	21036
864.428	21085
864.559	21096
864.691	21058
864.823	21039
864.954	20944
865.086	21047
865.217	20887
865.349	20811
865.48	20796
865.612	20788
865.743	21070
865.875	20994
866.006	20754
866.137	20952
866.269	20910
866.4	20811
866.531	20804
866.662	20765
866.793	20880
866.924	20754
867.055	20807
867.186	20826
867.317	20720
867.448	20754
867.579	20667
867.71	20731
867.841	20750
867.972	20914
868.103	20902
868.233	20781
868.364	20830
868.495	20872
868.625	21039
868.756	21154
868.886	21039
869.017	20990
869.147	21302
869.278	21165
869.408	21119
869.539	21058
869.669	21150
869.799	21024
869.929	21169
870.06	21188
870.19	21370
870.32	21302
870.45	21458
870.58	21428
870.71	21443
870.84	21504
870.97	21416
871.1	21504
871.23	21545
871.36	21599
871.489	21618
871.619	21663
871.749	21553
871.879	21831
872.008	21652
872.138	21549
872.267	21553
872.397	21644
872.526	21447
872.656	21637
872.785	21530
872.915	21625
873.044	21778
873.173	21705
873.303	21732
873.432	21766
873.561	21770
873.69	21690
873.819	21747
873.948	21675
874.077	21812
874.206	21603
874.335	21770
874.464	21892
874.593	21911
874.722	21831
874.851	21903
874.979	21937
875.108	21937
875.237	22006
875.365	21770
875.494	22032
875.623	21941
875.751	21934
875.88	22021
876.008	21956
876.136	22120
876.265	22314
876.393	22402
876.521	22261
876.65	22405
876.778	22322
876.906	22322
877.034	22147
877.162	22325
877.29	22230
877.418	22158
877.546	22363
877.674	22219
877.802	22280
877.93	22310
878.058	22242
878.185	22192
878.313	22169
878.441	22207
878.568	22101
878.696	22215
878.824	22314
878.951	22367
879.079	22440
879.206	22519
879.333	22421
879.461	22303
879.588	22390
879.715	22447
879.842	22497
879.97	22272
880.097	21998
880.224	22074
880.351	22204
880.478	22128
880.605	22055
880.732	22131
880.859	22306
880.986	22067
881.112	22067
881.239	22059
881.366	21895
881.493	21713
881.619	21762
881.746	21675
881.872	21686
881.999	21610
882.125	21576
882.252	21724
882.378	21507
882.505	21625
882.631	21435
882.757	21481
882.883	21424
883.01	21348
883.136	21378
883.262	21245
883.388	21211
883.514	21405
883.64	21329
883.766	21302
883.892	21142
884.018	21116
884.143	21249
884.269	21344
884.395	21085
884.52	20963
884.646	20952
884.772	21020
884.897	20887
885.023	20986
885.148	21051
885.274	21150
885.399	21146
885.524	20948
885.65	20998
885.775	20899
885.9	21013
886.025	21077
886.15	21081
886.275	20910
886.4	20746
886.525	20868
886.65	20933
886.775	21009
886.9	21024
887.025	21157
887.149	20963
887.274	20819
887.399	20788
887.523	20659
887.648	20823
887.773	20651
887.897	20785
888.021	20842
888.146	20621
888.27	20868
888.395	20891
888.519	20667
888.643	20762
888.767	20788
888.891	20750
889.015	20564
889.139	20617
889.263	20446
889.387	20579
889.511	20823
889.635	20682
889.759	20541
889.883	20629
890.006	20594
890.13	20495
890.254	20495
890.377	20514
890.501	20362
890.624	20305
890.748	20358
890.871	20244
890.995	20122
891.118	20043
891.241	20084
891.364	20122
891.488	20309
891.611	20088
891.734	20191
891.857	20252
891.98	20191
892.103	20134
892.226	20050
892.349	20092
892.471	19906
892.594	20058
892.717	20084
892.839	19875
892.962	20187
893.085	20221
893.207	20024
893.33	19967
893.452	19936
893.575	20153
893.697	20054
893.819	20301
893.941	20271
894.064	20115
894.186	19989
894.308	19989
894.43	20142
894.552	20244
894.674	20126
894.796	20043
894.918	20088
895.04	20077
895.161	20111
895.283	20214
895.405	20115
895.526	20058
895.648	20065
895.769	19970
895.891	20050
896.012	20145
896.134	20050
896.255	20081
896.376	19921
896.498	20050
896.619	20225
896.74	20221
896.861	20077
896.982	20362
897.103	20568
897.224	20301
897.345	20328
897.466	20161
897.587	20324
897.708	20347
897.828	20256
897.949	20214
898.07	20077
898.19	20138
898.311	20317
898.431	20142
898.552	20271
898.672	20339
898.792	20301
898.913	20324
899.033	20130
899.153	20164
899.273	19959
899.393	20005
899.513	19986
899.633	20012
899.753	19986
899.873	19917
899.993	20092
900.113	19864
900.232	19997
900.352	19993
900.472	19852
900.591	19731
900.711	19875
900.83	19841
900.95	19814
901.069	19913
901.189	19620
901.308	19430
901.427	19377
901.546	19468
901.665	19384
901.784	19472
901.904	19327
902.023	19103
902.141	18935
902.26	19080
902.379	19080
902.498	18859
902.617	18848
902.735	18863
902.854	18875
902.973	18741
903.091	18646
903.21	18551
903.328	18658
903.446	18486
903.565	18429
903.683	18544
903.801	18224
903.919	18292
904.038	18277
904.156	18064
904.274	18216
904.392	18140
904.51	18163
904.627	18076
904.745	18224
904.863	18171
904.981	17916
905.098	17817
905.216	17809
905.334	17874
905.451	17882
905.569	17745
905.686	17855
905.803	17855
905.921	17520
906.038	17687
906.155	17695
906.272	17512
906.389	17471
906.506	17391
906.623	17444
906.74	17406
906.857	17174
906.974	17269
907.091	17425
907.208	17478
907.324	17299
907.441	17231
907.557	17075
907.674	17143
907.79	16908
907.907	17048
908.023	17052
908.139	17060
908.256	17064
908.372	16972
908.488	16972
908.604	16938
908.72	16797
908.836	16839
908.952	16725
909.068	16744
909.184	16987
909.3	16725
909.415	16835
909.531	16778
909.647	16500
909.762	16451
909.878	16489
909.993	16523
910.108	16504
910.224	16367
910.339	16466
910.454	16303
910.57	16322
910.685	16192
910.8	16573
910.915	16375
911.03	16246
911.145	16280
911.259	16082
911.374	16128
911.489	16074
911.604	15934
911.718	15804
911.833	15899
911.947	15736
912.062	15728
912.176	15892
912.291	15808
912.405	15888
912.519	15972
912.633	16082
912.748	15774
912.862	15812
912.976	15625
913.09	15561
913.204	15561
913.318	15660
913.431	15743
913.545	15652
913.659	15755
913.772	15610
913.886	15458
914	15450
914.113	15580
914.226	15469
914.34	15439
914.453	15336
914.566	15485
914.68	15287
914.793	15252
914.906	15085
915.019	14952
915.132	15032
915.245	15017
915.358	15051
915.47	15100
915.583	14994
915.696	15176
915.809	15294
915.921	15176
916.034	14933
916.146	15028
916.259	14902
916.371	15058
916.483	15009
916.595	14876
916.708	14944
916.82	14826
916.932	14815
917.044	14861
917.156	14800
917.268	14712
917.38	14731
917.491	14697
917.603	14750
917.715	14861
917.826	14853
917.938	14731
918.049	14568
918.161	14621
918.272	14819
918.384	14758
918.495	14724
918.606	14552
918.717	14457
918.828	14537
918.939	14434
919.05	14427
919.161	14499
919.272	14248
919.383	14305
919.494	14526
919.604	14693
919.715	14492
919.826	14400
919.936	14358
920.047	14526
920.157	14476
920.267	14560
920.378	14450
920.488	14377
920.598	14590
920.708	14739
920.818	14636
920.928	14556
921.038	14682
921.148	14617
921.258	14457
921.368	14244
921.477	14187
921.587	14065
921.697	14039
921.806	14168
921.916	14031
922.025	13856
922.134	13814
922.244	13837
922.353	13841
922.462	13750
922.571	13647
922.68	13499
922.789	13438
922.898	13510
923.007	13411
923.116	13525
923.224	13502
923.333	13403
923.442	13441
923.55	13297
923.659	13304
923.767	13369
923.876	13171
923.984	13266
924.092	13107
924.201	13217
924.309	13285
924.417	13194
924.525	13145
924.633	13149
924.741	13967
924.849	12894
924.956	13168
925.064	12867
925.172	12806
925.279	12848
925.387	12932
925.494	12943
925.602	13004
925.709	12958
925.816	12730
925.924	12829
926.031	12958
926.138	12806
926.245	12882
926.352	12745
926.459	12920
926.566	12897
926.673	12719
926.779	12654
926.886	12574
926.993	12448
927.099	12513
927.206	12323
927.312	12410
927.419	12490
927.525	12388
927.631	12467
927.737	12323
927.843	12277
927.95	12201
928.056	12239
928.162	12334
928.267	12296
928.373	12939
928.479	12308
928.585	12175
928.69	12266
928.796	12327
928.901	12201
929.007	11992
929.112	12091
929.218	12079
929.323	12106
929.428	12007
929.533	12144
929.638	11908
929.743	12019
929.848	11950
929.953	11931
930.058	11786
930.163	11722
930.267	11813
930.372	11912
930.477	11619
930.581	11771
930.685	11668
930.79	11615
930.894	11665
930.998	11497
931.103	11703
931.207	11376
931.311	11334
931.415	11239
931.519	11045
931.623	10980
