Data from test_V78500241_1930.txt Node
Date: Fri Mar 25 15:55:10 CST 2022
User: usil
Spectrometer: V785-0024
Trigger mode: 0
Integration Time (sec): 4.000000E-1
Scans to average: 1
Nonlinearity correction enabled: false
Boxcar width: 0
Storing dark spectrum: false
XAxis mode: Wavelengths
Number of Pixels in Spectrum: 1024
>>>>>Begin Spectral Data<<<<<
801.071	28596
801.214	28557
801.356	28261
801.499	28162
801.641	28025
801.783	28002
801.926	28257
802.068	28109
802.211	28105
802.353	27964
802.496	27800
802.638	27778
802.78	27675
802.923	27701
803.065	27629
803.208	27690
803.35	27857
803.492	28006
803.635	27975
803.777	28078
803.919	28021
804.061	28303
804.204	28036
804.346	27945
804.488	27934
804.63	28025
804.773	27994
804.915	28128
805.057	28196
805.199	27903
805.341	28078
805.483	28116
805.626	28230
805.768	27991
805.91	28177
806.052	28173
806.194	28055
806.336	28344
806.478	28207
806.62	28162
806.762	28287
806.904	28455
807.046	28683
807.188	28527
807.33	28599
807.472	28725
807.614	28508
807.756	28672
807.898	28519
808.04	28413
808.182	28405
808.324	28360
808.465	28596
808.607	28683
808.749	28949
808.891	29060
809.033	28915
809.174	29041
809.316	28778
809.458	28793
809.6	28835
809.741	29044
809.883	28995
810.025	29113
810.166	29216
810.308	29197
810.45	29044
810.591	29022
810.733	28927
810.875	28854
811.016	28828
811.158	28835
811.299	28877
811.441	29094
811.582	28972
811.724	28900
811.865	28771
812.007	28904
812.148	28888
812.29	28927
812.431	28919
812.573	29060
812.714	29436
812.855	29299
812.997	29547
813.138	29646
813.279	29577
813.421	29372
813.562	29303
813.703	29204
813.845	29037
813.986	28847
814.127	28497
814.268	28630
814.41	28542
814.551	28550
814.692	28580
814.833	28352
814.974	28554
815.115	28580
815.256	28478
815.397	28417
815.539	28367
815.68	28341
815.821	28143
815.962	28325
816.103	28424
816.244	28131
816.385	28242
816.526	28105
816.666	27953
816.807	27778
816.948	27694
817.089	28006
817.23	27956
817.371	27797
817.512	27880
817.653	27793
817.793	27679
817.934	27629
818.075	27854
818.216	27918
818.356	27876
818.497	27713
818.638	27542
818.778	27549
818.919	27641
819.06	27595
819.2	27827
819.341	27785
819.481	27774
819.622	27998
819.762	28169
819.903	28067
820.043	27949
820.184	28048
820.324	28040
820.465	28055
820.605	28093
820.746	27865
820.886	27762
821.026	27857
821.167	28051
821.307	28051
821.447	27854
821.588	27800
821.728	27618
821.868	27420
822.008	27302
822.149	27306
822.289	27294
822.429	27020
822.569	26986
822.709	26982
822.849	26921
822.99	26792
823.13	26880
823.27	26781
823.41	26617
823.55	26499
823.69	26716
823.83	26625
823.97	26724
824.11	26438
824.25	26514
824.389	26450
824.529	26511
824.669	26408
824.809	26556
824.949	26560
825.089	26598
825.228	26613
825.368	26313
825.508	26438
825.648	26252
825.787	26476
825.927	26495
826.067	26301
826.206	26355
826.346	26423
826.485	26324
826.625	26275
826.765	26431
826.904	26431
827.044	26183
827.183	26180
827.323	26001
827.462	26252
827.601	26062
827.741	26115
827.88	26024
828.02	25864
828.159	26058
828.298	26157
828.437	26122
828.577	26065
828.716	26077
828.855	26027
828.994	25845
829.134	25677
829.273	25757
829.412	25727
829.551	25674
829.69	25795
829.829	25887
829.968	25875
830.107	25997
830.246	25750
830.385	25590
830.524	25647
830.663	25647
830.802	25426
830.941	25301
831.08	25335
831.219	25407
831.357	25384
831.496	25693
831.635	25464
831.774	25179
831.913	25190
832.051	25183
832.19	25190
832.329	25171
832.467	25107
832.606	24935
832.744	25031
832.883	25031
833.022	24970
833.16	24985
833.299	25023
833.437	25012
833.576	25072
833.714	25053
833.852	25148
833.991	25069
834.129	25129
834.267	25091
834.406	25053
834.544	25122
834.682	25126
834.821	25084
834.959	25206
835.097	25027
835.235	25168
835.373	25038
835.511	25152
835.65	24859
835.788	25019
835.926	24749
836.064	24734
836.202	24681
836.34	24981
836.478	25053
836.615	24863
836.753	24958
836.891	24878
837.029	24848
837.167	24886
837.305	24935
837.443	24783
837.58	24806
837.718	24878
837.856	24787
837.993	24688
838.131	24719
838.269	24688
838.406	24646
838.544	24536
838.681	24403
838.819	24429
838.956	24201
839.094	24121
839.231	24136
839.369	24418
839.506	24574
839.643	24388
839.781	24216
839.918	24144
840.055	24205
840.193	24190
840.33	23977
840.467	24167
840.604	24171
840.742	24471
840.879	24045
841.016	24133
841.153	24087
841.29	24144
841.427	24121
841.564	24087
841.701	24106
841.838	24136
841.975	23961
842.112	24034
842.249	23950
842.385	23942
842.522	24003
842.659	23977
842.796	23809
842.933	23916
843.069	23904
843.206	23729
843.343	23908
843.479	23889
843.616	23855
843.752	23642
843.889	23615
844.025	23638
844.162	23604
844.298	23676
844.435	23608
844.571	23649
844.708	23562
844.844	23828
844.98	23767
845.117	23748
845.253	23562
845.389	23425
845.525	23452
845.661	23501
845.798	23353
845.934	23398
846.07	23376
846.206	23467
846.342	23649
846.478	23414
846.614	23140
846.75	23060
846.886	23090
847.022	23117
847.158	23178
847.294	23113
847.429	23117
847.565	23086
847.701	23364
847.837	22843
847.972	22900
848.108	22904
848.244	22767
848.379	22672
848.515	22683
848.65	22725
848.786	22637
848.921	22706
849.057	22767
849.192	22725
849.328	22698
849.463	22664
849.598	22531
849.734	22630
849.869	22573
850.004	22451
850.14	22466
850.275	22379
850.41	22386
850.545	22443
850.68	22386
850.815	22432
850.95	22421
851.085	22565
851.22	22580
851.355	22451
851.49	22493
851.625	22462
851.76	22375
851.895	22344
852.03	22424
852.165	22462
852.299	22466
852.434	22580
852.569	22443
852.703	22360
852.838	22485
852.973	22634
853.107	22527
853.242	22421
853.376	22341
853.511	22112
853.645	22318
853.78	22421
853.914	22291
854.048	22101
854.183	22303
854.317	22265
854.451	22428
854.585	22329
854.72	22284
854.854	22356
854.988	22318
855.122	22280
855.256	22162
855.39	22150
855.524	22310
855.658	22272
855.792	22211
855.926	22253
856.06	22246
856.194	22192
856.327	22268
856.461	22177
856.595	22131
856.729	22253
856.862	22257
856.996	22299
857.13	22356
857.263	22280
857.397	22409
857.53	22219
857.664	22261
857.797	22306
857.931	22329
858.064	22268
858.197	22432
858.331	22131
858.464	22128
858.597	22150
858.731	22253
858.864	22093
858.997	22341
859.13	22371
859.263	22128
859.396	22360
859.529	22215
859.662	22223
859.795	22181
859.928	22215
860.061	22363
860.194	22409
860.327	22261
860.46	22303
860.592	22329
860.725	22443
860.858	22382
860.99	22371
861.123	22128
861.256	22234
861.388	22310
861.521	23056
861.653	22150
861.786	22025
861.918	22013
862.05	22280
862.183	22112
862.315	22177
862.447	22310
862.58	22120
862.712	21979
862.844	21861
862.976	22124
863.108	22090
863.24	22428
863.372	21903
863.504	21945
863.636	21949
863.768	21975
863.9	21972
864.032	21857
864.164	21979
864.296	22048
864.428	21884
864.559	22078
864.691	21956
864.823	21956
864.954	21835
865.086	21994
865.217	21873
865.349	21899
865.48	21861
865.612	21953
865.743	21979
865.875	21884
866.006	21827
866.137	21907
866.269	21842
866.4	21778
866.531	21679
866.662	21743
866.793	21850
866.924	21831
867.055	21713
867.186	21838
867.317	21789
867.448	21603
867.579	21694
867.71	21641
867.841	21633
867.972	21793
868.103	21679
868.233	21781
868.364	21808
868.495	21922
868.625	21941
868.756	22207
868.886	21937
869.017	22044
869.147	22017
869.278	22215
869.408	22090
869.539	21922
869.669	22162
869.799	22006
869.929	22082
870.06	22097
870.19	22352
870.32	22413
870.45	22219
870.58	22424
870.71	22554
870.84	22542
870.97	22436
871.1	22459
871.23	22573
871.36	22588
871.489	22493
871.619	22626
871.749	22679
871.879	22694
872.008	22809
872.138	22432
872.267	22542
872.397	22493
872.526	22348
872.656	22512
872.785	22360
872.915	22538
873.044	22767
873.173	22702
873.303	22599
873.432	22771
873.561	22767
873.69	22816
873.819	22645
873.948	22634
874.077	22634
874.206	22588
874.335	22611
874.464	22748
874.593	22908
874.722	22774
874.851	22953
874.979	22877
875.108	22953
875.237	22866
875.365	22771
875.494	22683
875.623	22881
875.751	22820
875.88	22946
876.008	23018
876.136	23033
876.265	23254
876.393	23296
876.521	23429
876.65	23326
876.778	23296
876.906	23041
877.034	23159
877.162	23265
877.29	23136
877.418	23212
877.546	23284
877.674	23159
877.802	23090
877.93	23246
878.058	23128
878.185	22984
878.313	23147
878.441	23189
878.568	22995
878.696	23147
878.824	23208
878.951	23417
879.079	23288
879.206	23520
879.333	23360
879.461	23200
879.588	23239
879.715	23307
879.842	23436
879.97	23105
880.097	23025
880.224	23006
880.351	23048
880.478	23029
880.605	22984
880.732	23079
880.859	23170
880.986	23033
881.112	23025
881.239	22782
881.366	22793
881.493	22637
881.619	22675
881.746	22550
881.872	22653
881.999	22535
882.125	22485
882.252	22679
882.378	22523
882.505	22630
882.631	22455
882.757	22428
882.883	22333
883.01	22219
883.136	22143
883.262	22173
883.388	22029
883.514	22257
883.64	22402
883.766	22246
883.892	22101
884.018	22002
884.143	22185
884.269	22310
884.395	21979
884.52	21903
884.646	22017
884.772	21926
884.897	21850
885.023	21873
885.148	21972
885.274	22120
885.399	22063
885.524	21873
885.65	21918
885.775	21918
885.9	21800
886.025	21918
886.15	21876
886.275	21903
886.4	21838
886.525	21838
886.65	21823
886.775	21941
886.9	21888
887.025	22143
887.149	21956
887.274	21603
887.399	21507
887.523	21648
887.648	21705
887.773	21519
887.897	21686
888.021	21816
888.146	21538
888.27	21698
888.395	21694
888.519	21804
888.643	21728
888.767	21580
888.891	21610
889.015	21485
889.139	21553
889.263	21363
889.387	21606
889.511	21591
889.635	21583
889.759	21420
889.883	21294
890.006	21359
890.13	21481
890.254	21393
890.377	21420
890.501	21127
890.624	21218
890.748	21245
890.871	21085
890.995	21051
891.118	20864
891.241	21001
891.364	21135
891.488	21127
891.611	20963
891.734	21005
891.857	20990
891.98	21009
892.103	21036
892.226	20944
892.349	20979
892.471	20857
892.594	20883
892.717	20883
892.839	21009
892.962	20811
893.085	20921
893.207	21001
893.33	20720
893.452	20773
893.575	20948
893.697	20804
893.819	21070
893.941	21093
894.064	20944
894.186	20727
894.308	20861
894.43	20948
894.552	21066
894.674	20899
894.796	20857
894.918	20895
895.04	20769
895.161	20937
895.283	20906
895.405	20834
895.526	20853
895.648	20967
895.769	20830
895.891	20868
896.012	20990
896.134	20956
896.255	20902
896.376	20826
896.498	20781
896.619	21005
896.74	20792
896.861	21005
896.982	21260
897.103	21249
897.224	21135
897.345	21093
897.466	21081
897.587	21119
897.708	21165
897.828	21089
897.949	21020
898.07	20925
898.19	20853
898.311	21100
898.431	21074
898.552	21070
898.672	21165
898.792	21233
898.913	21085
899.033	20914
899.153	20823
899.273	20724
899.393	20727
899.513	20891
899.633	20758
899.753	20861
899.873	20689
899.993	20986
900.113	20697
900.232	20724
900.352	20636
900.472	20701
900.591	20579
900.711	20480
900.83	20454
900.95	20724
901.069	20621
901.189	20339
901.308	20237
901.427	20214
901.546	20081
901.665	20134
901.784	20206
901.904	19997
902.023	19871
902.141	19704
902.26	19700
902.379	19788
902.498	19624
902.617	19563
902.735	19723
902.854	19674
902.973	19537
903.091	19320
903.21	19327
903.328	19403
903.446	19350
903.565	19156
903.683	19175
903.801	19015
903.919	19065
904.038	19031
904.156	18821
904.274	18993
904.392	18837
904.51	18894
904.627	18810
904.745	18916
904.863	18943
904.981	18684
905.098	18563
905.216	18513
905.334	18665
905.451	18555
905.569	18574
905.686	18642
905.803	18589
905.921	18380
906.038	18372
906.155	18376
906.272	18273
906.389	18209
906.506	18049
906.623	18015
906.74	18091
906.857	18041
906.974	18114
907.091	18133
907.208	18186
907.324	18034
907.441	17935
907.557	17805
907.674	17847
907.79	17649
907.907	17836
908.023	17767
908.139	17748
908.256	17714
908.372	17672
908.488	17573
908.604	17539
908.72	17516
908.836	17482
908.952	17596
909.068	17486
909.184	17642
909.3	17592
909.415	17547
909.531	17433
909.647	17265
909.762	17296
909.878	17113
909.993	17223
910.108	17128
910.224	17109
910.339	17155
910.454	17060
910.57	17010
910.685	16938
910.8	17197
910.915	17075
911.03	17056
911.145	16778
911.259	16828
911.374	16900
911.489	16763
911.604	16611
911.718	16679
911.833	16561
911.947	16459
912.062	16455
912.176	16554
912.291	16451
912.405	16577
912.519	16710
912.633	16687
912.748	16554
912.862	16542
912.976	16333
913.09	16150
913.204	16249
913.318	16382
913.431	16375
913.545	16375
913.659	16405
913.772	16257
913.886	16090
914	16105
914.113	16185
914.226	16207
914.34	16181
914.453	15960
914.566	16204
914.68	15968
914.793	16013
914.906	15823
915.019	15709
915.132	15682
915.245	15698
915.358	15751
915.47	15732
915.583	15732
915.696	15759
915.809	15804
915.921	15911
916.034	15717
916.146	15584
916.259	15481
916.371	15736
916.483	15633
916.595	15515
916.708	15534
916.82	15462
916.932	15424
917.044	15542
917.156	15492
917.268	15336
917.38	15386
917.491	15340
917.603	15374
917.715	15355
917.826	15469
917.938	15332
918.049	15184
918.161	15313
918.272	15443
918.384	15378
918.495	15279
918.606	15070
918.717	15055
918.828	15089
918.939	15074
919.05	15043
919.161	15051
919.272	14918
919.383	14857
919.494	15058
919.604	15272
919.715	15112
919.826	14929
919.936	14937
920.047	15108
920.157	15024
920.267	15135
920.378	15039
920.488	15005
920.598	15222
920.708	15363
920.818	15058
920.928	15150
921.038	15310
921.148	15233
921.258	14994
921.368	14876
921.477	14769
921.587	14758
921.697	14659
921.806	14815
921.916	14549
922.025	14545
922.134	14450
922.244	14332
922.353	14484
922.462	14221
922.571	14229
922.68	14039
922.789	14020
922.898	14111
923.007	14001
923.116	14103
923.224	14035
923.333	13974
923.442	13826
923.55	13887
923.659	13909
923.767	13890
923.876	13719
923.984	13864
924.092	13742
924.201	13765
924.309	13700
924.417	13795
924.525	13723
924.633	13750
924.741	14724
924.849	13533
924.956	13540
925.064	13449
925.172	13346
925.279	13449
925.387	13434
925.494	13422
925.602	13601
925.709	13419
925.816	13331
925.924	13438
926.031	13384
926.138	13362
926.245	13358
926.352	13244
926.459	13388
926.566	13483
926.673	13331
926.779	13198
926.886	13149
926.993	12993
927.099	12989
927.206	13000
927.312	12962
927.419	13034
927.525	12981
927.631	12935
927.737	12878
927.843	12768
927.95	12700
928.056	12795
928.162	12913
928.267	12817
928.373	13491
928.479	12951
928.585	12665
928.69	12677
928.796	12764
928.901	12566
929.007	12566
929.112	12654
929.218	12570
929.323	12528
929.428	12513
929.533	12559
929.638	12464
929.743	12578
929.848	12521
929.953	12365
930.058	12296
930.163	12232
930.267	12190
930.372	12300
930.477	12148
930.581	12391
930.685	12152
930.79	12003
930.894	12060
930.998	12015
931.103	12110
931.207	11726
931.311	11828
931.415	11634
931.519	11410
931.623	11452
