Data from test_V78500241_3351.txt Node
Date: Fri Mar 25 16:05:00 CST 2022
User: usil
Spectrometer: V785-0024
Trigger mode: 0
Integration Time (sec): 4.000000E-1
Scans to average: 1
Nonlinearity correction enabled: false
Boxcar width: 0
Storing dark spectrum: false
XAxis mode: Wavelengths
Number of Pixels in Spectrum: 1024
>>>>>Begin Spectral Data<<<<<
801.071	29010
801.214	28873
801.356	28660
801.499	28584
801.641	28398
801.783	28462
801.926	28470
802.068	28322
802.211	28299
802.353	28436
802.496	28268
802.638	28322
802.78	28116
802.923	28135
803.065	28082
803.208	28093
803.35	28116
803.492	28401
803.635	28299
803.777	28272
803.919	28500
804.061	28733
804.204	28413
804.346	28310
804.488	28276
804.63	28318
804.773	28303
804.915	28516
805.057	28550
805.199	28466
805.341	28596
805.483	28523
805.626	28531
805.768	28538
805.91	28428
806.052	28710
806.194	28535
806.336	28771
806.478	28584
806.62	28573
806.762	28782
806.904	28911
807.046	29117
807.188	28972
807.33	29029
807.472	29060
807.614	29064
807.756	29029
807.898	28911
808.04	28763
808.182	28801
808.324	29064
808.465	28980
808.607	29143
808.749	29189
808.891	29368
809.033	29436
809.174	29299
809.316	29261
809.458	29334
809.6	29265
809.741	29524
809.883	29619
810.025	29623
810.166	29398
810.308	29497
810.45	29547
810.591	29482
810.733	29277
810.875	29159
811.016	29235
811.158	29330
811.299	29414
811.441	29474
811.582	29448
811.724	29292
811.865	29200
812.007	29239
812.148	29231
812.29	29143
812.431	29471
812.573	29653
812.714	29699
812.855	29840
812.997	29965
813.138	30026
813.279	29893
813.421	29847
813.562	29878
813.703	29726
813.845	29516
813.986	29200
814.127	29193
814.268	29044
814.41	28995
814.551	28843
814.692	28965
814.833	28885
814.974	28987
815.115	29041
815.256	28908
815.397	28927
815.539	28965
815.68	28828
815.821	28744
815.962	28984
816.103	28828
816.244	28771
816.385	28630
816.526	28527
816.666	28440
816.807	28367
816.948	28523
817.089	28413
817.23	28500
817.371	28413
817.512	28367
817.653	28261
817.793	28306
817.934	28405
818.075	28306
818.216	28489
818.356	28257
818.497	28181
818.638	27994
818.778	28036
818.919	27979
819.06	28154
819.2	28379
819.341	28413
819.481	28299
819.622	28535
819.762	28653
819.903	28554
820.043	28443
820.184	28504
820.324	28470
820.465	28538
820.605	28523
820.746	28344
820.886	28493
821.026	28500
821.167	28371
821.307	28375
821.447	28325
821.588	28291
821.728	28143
821.868	27884
822.008	27736
822.149	27918
822.289	27854
822.429	27576
822.569	27523
822.709	27564
822.849	27355
822.99	27321
823.13	27222
823.27	27302
823.41	27138
823.55	26910
823.69	27184
823.83	27127
823.97	27116
824.11	26944
824.25	26982
824.389	26925
824.529	26929
824.669	27062
824.809	27093
824.949	27093
825.089	27089
825.228	26944
825.368	26834
825.508	26815
825.648	26899
825.787	26986
825.927	26792
826.067	26960
826.206	26895
826.346	26823
826.485	26777
826.625	26982
826.765	27009
826.904	26967
827.044	26621
827.183	26583
827.323	26492
827.462	26773
827.601	26655
827.741	26579
827.88	26556
828.02	26427
828.159	26537
828.298	26526
828.437	26758
828.577	26484
828.716	26689
828.855	26583
828.994	26240
829.134	26134
829.273	26259
829.412	26225
829.551	26187
829.69	26324
829.829	26404
829.968	26343
830.107	26328
830.246	26240
830.385	26298
830.524	26161
830.663	26183
830.802	26065
830.941	25966
831.08	25936
831.219	26027
831.357	26016
831.496	26202
831.635	25947
831.774	25811
831.913	25776
832.051	25818
832.19	25639
832.329	25537
832.467	25559
832.606	25499
832.744	25415
832.883	25548
833.022	25483
833.16	25712
833.299	25734
833.437	25605
833.576	25757
833.714	25658
833.852	25643
833.991	25594
834.129	25655
834.267	25643
834.406	25635
834.544	25495
834.682	25677
834.821	25616
834.959	25738
835.097	25529
835.235	25731
835.373	25624
835.511	25548
835.65	25518
835.788	25388
835.926	25384
836.064	25346
836.202	25316
836.34	25415
836.478	25529
836.615	25502
836.753	25571
836.891	25457
837.029	25540
837.167	25346
837.305	25263
837.443	25343
837.58	25316
837.718	25400
837.856	25430
837.993	25327
838.131	25194
838.269	25194
838.406	25335
838.544	25088
838.681	24966
838.819	24966
838.956	24745
839.094	24795
839.231	24897
839.369	24897
839.506	25217
839.643	24977
839.781	24741
839.918	24776
840.055	24779
840.193	24620
840.33	24688
840.467	24646
840.604	24604
840.742	24814
840.879	24563
841.016	24525
841.153	24597
841.29	24738
841.427	24616
841.564	24783
841.701	24669
841.838	24669
841.975	24475
842.112	24623
842.249	24418
842.385	24563
842.522	24604
842.659	24490
842.796	24376
842.933	24441
843.069	24308
843.206	24486
843.343	24361
843.479	24285
843.616	24391
843.752	24152
843.889	24178
844.025	24323
844.162	24129
844.298	24277
844.435	24125
844.571	24235
844.708	24235
844.844	24388
844.98	24308
845.117	24213
845.253	24140
845.389	23999
845.525	24155
845.661	24022
845.798	24060
845.934	23885
846.07	23756
846.206	23904
846.342	24057
846.478	23999
846.614	23634
846.75	23615
846.886	23687
847.022	23691
847.158	23764
847.294	23539
847.429	23783
847.565	23672
847.701	23870
847.837	23421
847.972	23402
848.108	23505
848.244	23459
848.379	23197
848.515	23246
848.65	23121
848.786	23147
848.921	23277
849.057	23353
849.192	23318
849.328	23189
849.463	23235
849.598	23220
849.734	23197
849.869	23025
850.004	22904
850.14	23029
850.275	23014
850.41	22729
850.545	22980
850.68	22877
850.815	23060
850.95	22995
851.085	23265
851.22	23117
851.355	23090
851.49	22911
851.625	22862
851.76	23041
851.895	22968
852.03	22915
852.165	23102
852.299	22995
852.434	23041
852.569	22904
852.703	22911
852.838	23029
852.973	23033
853.107	23064
853.242	22900
853.376	22881
853.511	22740
853.645	22713
853.78	22915
853.914	22812
854.048	22824
854.183	22816
854.317	22812
854.451	22991
854.585	22748
854.72	22831
854.854	22900
854.988	22755
855.122	22949
855.256	22580
855.39	22793
855.524	22805
855.658	22816
855.792	22839
855.926	22812
856.06	22831
856.194	22812
856.327	22839
856.461	22767
856.595	22641
856.729	22782
856.862	22927
856.996	22786
857.13	22873
857.263	22839
857.397	22862
857.53	22774
857.664	22873
857.797	22816
857.931	22862
858.064	22824
858.197	22889
858.331	22869
858.464	22782
858.597	22713
858.731	22687
858.864	22866
858.997	22744
859.13	22729
859.263	22763
859.396	22930
859.529	22767
859.662	22596
859.795	22725
859.928	22599
860.061	22805
860.194	22991
860.327	22782
860.46	22809
860.592	22873
860.725	22965
860.858	22949
860.99	22889
861.123	22759
861.256	22702
861.388	22858
861.521	23554
861.653	22717
861.786	22668
861.918	22557
862.05	22710
862.183	22759
862.315	22713
862.447	22736
862.58	22850
862.712	22538
862.844	22523
862.976	22500
863.108	22489
863.24	22957
863.372	22504
863.504	22573
863.636	22466
863.768	22443
863.9	22436
864.032	22485
864.164	22421
864.296	22584
864.428	22557
864.559	22618
864.691	22672
864.823	22554
864.954	22478
865.086	22394
865.217	22508
865.349	22276
865.48	22413
865.612	22379
865.743	22531
865.875	22504
866.006	22329
866.137	22417
866.269	22390
866.4	22333
866.531	22238
866.662	22207
866.793	22295
866.924	22341
867.055	22322
867.186	22322
867.317	22280
867.448	22249
867.579	22249
867.71	22173
867.841	22238
867.972	22299
868.103	22337
868.233	22402
868.364	22329
868.495	22405
868.625	22527
868.756	22569
868.886	22432
869.017	22500
869.147	22645
869.278	22668
869.408	22531
869.539	22531
869.669	22592
869.799	22584
869.929	22691
870.06	22740
870.19	22782
870.32	22835
870.45	22850
870.58	22900
870.71	22957
870.84	22987
870.97	22866
871.1	22942
871.23	23242
871.36	23094
871.489	23037
871.619	23086
871.749	23197
871.879	23140
872.008	23223
872.138	23098
872.267	23181
872.397	23155
872.526	22934
872.656	22953
872.785	23162
872.915	23246
873.044	23220
873.173	23159
873.303	23277
873.432	23258
873.561	23181
873.69	23170
873.819	23086
873.948	23223
874.077	23151
874.206	23117
874.335	23056
874.464	23254
874.593	23372
874.722	23292
874.851	23497
874.979	23364
875.108	23395
875.237	23341
875.365	23280
875.494	23425
875.623	23497
875.751	23360
875.88	23280
876.008	23501
876.136	23699
876.265	23634
876.393	23836
876.521	23779
876.65	23882
876.778	23790
876.906	23634
877.034	23722
877.162	23752
877.29	23646
877.418	23726
877.546	23752
877.674	23783
877.802	23672
877.93	23638
878.058	23600
878.185	23619
878.313	23672
878.441	23752
878.568	23638
878.696	23573
878.824	23775
878.951	23764
879.079	23923
879.206	24095
879.333	23912
879.461	23954
879.588	23786
879.715	23885
879.842	23920
879.97	23752
880.097	23630
880.224	23509
880.351	23627
880.478	23531
880.605	23486
880.732	23657
880.859	23710
880.986	23497
881.112	23535
881.239	23364
881.366	23246
881.493	23280
881.619	23200
881.746	23143
881.872	23044
881.999	23113
882.125	23143
882.252	23136
882.378	23071
882.505	23159
882.631	22892
882.757	22744
882.883	22824
883.01	22774
883.136	22679
883.262	22634
883.388	22565
883.514	22816
883.64	22702
883.766	22577
883.892	22459
884.018	22474
884.143	22725
884.269	22721
884.395	22459
884.52	22295
884.646	22341
884.772	22386
884.897	22276
885.023	22462
885.148	22485
885.274	22622
885.399	22485
885.524	22455
885.65	22303
885.775	22424
885.9	22386
886.025	22500
886.15	22443
886.275	22333
886.4	22348
886.525	22352
886.65	22291
886.775	22356
886.9	22478
887.025	22554
887.149	22375
887.274	22177
887.399	22242
887.523	22105
887.648	21975
887.773	21994
887.897	22109
888.021	22242
888.146	22166
888.27	22181
888.395	22310
888.519	22166
888.643	22124
888.767	22139
888.891	22086
889.015	21915
889.139	22112
889.263	21911
889.387	22067
889.511	22188
889.635	21979
889.759	21907
889.883	22044
890.006	21869
890.13	21838
890.254	21869
890.377	21850
890.501	21526
890.624	21633
890.748	21671
890.871	21458
890.995	21485
891.118	21447
891.241	21481
891.364	21591
891.488	21648
891.611	21435
891.734	21519
891.857	21572
891.98	21496
892.103	21572
892.226	21439
892.349	21500
892.471	21199
892.594	21473
892.717	21466
892.839	21389
892.962	21370
893.085	21367
893.207	21420
893.33	21272
893.452	21374
893.575	21447
893.697	21420
893.819	21515
893.941	21625
894.064	21485
894.186	21363
894.308	21211
894.43	21439
894.552	21542
894.674	21485
894.796	21203
894.918	21332
895.04	21260
895.161	21412
895.283	21393
895.405	21264
895.526	21291
895.648	21336
895.769	21393
895.891	21310
896.012	21416
896.134	21355
896.255	21222
896.376	21294
896.498	21268
896.619	21287
896.74	21264
896.861	21469
896.982	21610
897.103	21918
897.224	21580
897.345	21606
897.466	21397
897.587	21629
897.708	21580
897.828	21523
897.949	21553
898.07	21435
898.19	21469
898.311	21618
898.431	21420
898.552	21519
898.672	21641
898.792	21576
898.913	21496
899.033	21405
899.153	21374
899.273	21283
899.393	21317
899.513	21393
899.633	21306
899.753	21275
899.873	21237
899.993	21199
900.113	21135
900.232	21203
900.352	21150
900.472	21081
900.591	21005
900.711	21100
900.83	21009
900.95	21039
901.069	21089
901.189	20914
901.308	20682
901.427	20663
901.546	20533
901.665	20629
901.784	20625
901.904	20469
902.023	20366
902.141	20157
902.26	20100
902.379	20119
902.498	20088
902.617	20107
902.735	20142
902.854	20058
902.973	19967
903.091	19795
903.21	19780
903.328	19651
903.446	19556
903.565	19430
903.683	19533
903.801	19457
903.919	19453
904.038	19438
904.156	19270
904.274	19369
904.392	19327
904.51	19213
904.627	19282
904.745	19297
904.863	19495
904.981	19038
905.098	18924
905.216	18897
905.334	19031
905.451	19072
905.569	18871
905.686	18916
905.803	18909
905.921	18726
906.038	18764
906.155	18806
906.272	18547
906.389	18604
906.506	18429
906.623	18479
906.74	18509
906.857	18216
906.974	18353
907.091	18475
907.208	18525
907.324	18422
907.441	18426
907.557	18254
907.674	18239
907.79	18079
907.907	18178
908.023	18171
908.139	18167
908.256	18205
908.372	18049
908.488	18041
908.604	17866
908.72	17809
908.836	17859
908.952	17984
909.068	17828
909.184	17923
909.3	17912
909.415	17904
909.531	17859
909.647	17680
909.762	17532
909.878	17543
909.993	17585
910.108	17573
910.224	17630
910.339	17562
910.454	17433
910.57	17436
910.685	17288
910.8	17539
910.915	17558
911.03	17452
911.145	17296
911.259	17204
911.374	17136
911.489	17014
911.604	17025
911.718	16850
911.833	17102
911.947	16831
912.062	16706
912.176	16976
912.291	17014
912.405	16927
912.519	17045
912.633	17060
912.748	16927
912.862	16847
912.976	16744
913.09	16618
913.204	16630
913.318	16710
913.431	16854
913.545	16790
913.659	16698
913.772	16637
913.886	16512
914	16538
914.113	16565
914.226	16565
914.34	16531
914.453	16398
914.566	16455
914.68	16390
914.793	16272
914.906	16299
915.019	16128
915.132	15964
915.245	15979
915.358	16105
915.47	16006
915.583	16013
915.696	16135
915.809	16044
915.921	16291
916.034	16055
916.146	15991
916.259	16002
916.371	15994
916.483	16044
916.595	15953
916.708	15884
916.82	15842
916.932	15850
917.044	15865
917.156	15781
917.268	15690
917.38	15717
917.491	15682
917.603	15622
917.715	15751
917.826	15778
917.938	15686
918.049	15416
918.161	15538
918.272	15755
918.384	15682
918.495	15663
918.606	15545
918.717	15374
918.828	15458
918.939	15496
919.05	15211
919.161	15420
919.272	15207
919.383	15211
919.494	15507
919.604	15587
919.715	15458
919.826	15264
919.936	15283
920.047	15408
920.157	15405
920.267	15564
920.378	15435
920.488	15359
920.598	15507
920.708	15698
920.818	15500
920.928	15443
921.038	15618
921.148	15618
921.258	15351
921.368	15184
921.477	15116
921.587	15039
921.697	14906
921.806	15116
921.916	14952
922.025	14746
922.134	14720
922.244	14765
922.353	14739
922.462	14625
922.571	14514
922.68	14396
922.789	14423
922.898	14393
923.007	14218
923.116	14309
923.224	14278
923.333	14309
923.442	14221
923.55	14195
923.659	14168
923.767	14244
923.876	14119
923.984	14161
924.092	14035
924.201	14168
924.309	14107
924.417	14050
924.525	13963
924.633	14005
924.741	14880
924.849	13864
924.956	13868
925.064	13833
925.172	13693
925.279	13651
925.387	13799
925.494	13651
925.602	13727
925.709	13784
925.816	13662
925.924	13563
926.031	13830
926.138	13681
926.245	13719
926.352	13586
926.459	13693
926.566	13757
926.673	13632
926.779	13422
926.886	13502
926.993	13240
927.099	13232
927.206	13190
927.312	13149
927.419	13324
927.525	13228
927.631	13301
927.737	13247
927.843	13156
927.95	12924
928.056	12947
928.162	13183
928.267	13160
928.373	13620
928.479	13141
928.585	12848
928.69	13046
928.796	13095
928.901	12939
929.007	12764
929.112	12829
929.218	12916
929.323	12806
929.428	12829
929.533	12878
929.638	12741
929.743	12806
929.848	12749
929.953	12616
930.058	12490
930.163	12471
930.267	12441
930.372	12658
930.477	12426
930.581	12601
930.685	12559
930.79	12266
930.894	12357
930.998	12197
931.103	12414
931.207	12087
931.311	12076
931.415	11885
931.519	11737
931.623	11691
