Data from test_V78500241_1032.txt Node
Date: Fri Mar 25 15:48:57 CST 2022
User: usil
Spectrometer: V785-0024
Trigger mode: 0
Integration Time (sec): 4.000000E-1
Scans to average: 1
Nonlinearity correction enabled: false
Boxcar width: 0
Storing dark spectrum: false
XAxis mode: Wavelengths
Number of Pixels in Spectrum: 1024
>>>>>Begin Spectral Data<<<<<
801.071	28021
801.214	27972
801.356	27827
801.499	27675
801.641	27618
801.783	27466
801.926	27591
802.068	27641
802.211	27534
802.353	27454
802.496	27268
802.638	27283
802.78	27135
802.923	27104
803.065	27157
803.208	27176
803.35	27241
803.492	27264
803.635	27454
803.777	27249
803.919	27500
804.061	27804
804.204	27454
804.346	27222
804.488	27302
804.63	27313
804.773	27287
804.915	27367
805.057	27435
805.199	27431
805.341	27424
805.483	27717
805.626	27523
805.768	27389
805.91	27473
806.052	27625
806.194	27576
806.336	27739
806.478	27652
806.62	27534
806.762	27751
806.904	27838
807.046	28143
807.188	27903
807.33	28036
807.472	27987
807.614	27926
807.756	27823
807.898	27884
808.04	27835
808.182	27838
808.324	27854
808.465	27850
808.607	27991
808.749	28029
808.891	28390
809.033	28405
809.174	28276
809.316	28192
809.458	28246
809.6	28048
809.741	28314
809.883	28413
810.025	28531
810.166	28523
810.308	28485
810.45	28405
810.591	28470
810.733	28207
810.875	28299
811.016	28162
811.158	28093
811.299	28337
811.441	28310
811.582	28325
811.724	28261
811.865	28116
812.007	28276
812.148	28101
812.29	28226
812.431	28306
812.573	28432
812.714	28687
812.855	28752
812.997	28752
813.138	29048
813.279	28946
813.421	28771
813.562	28717
813.703	28546
813.845	28493
813.986	28261
814.127	27873
814.268	27979
814.41	27956
814.551	27991
814.692	28139
814.833	27934
814.974	27656
815.115	27945
815.256	27846
815.397	27800
815.539	27884
815.68	27762
815.821	27671
815.962	27751
816.103	27720
816.244	27553
816.385	27557
816.526	27542
816.666	27268
816.807	27230
816.948	27321
817.089	27317
817.23	27142
817.371	27211
817.512	27074
817.653	27112
817.793	27237
817.934	27146
818.075	27272
818.216	27135
818.356	27123
818.497	27138
818.638	26864
818.778	26899
818.919	26899
819.06	26872
819.2	27146
819.341	27180
819.481	27264
819.622	27249
819.762	27488
819.903	27424
820.043	27393
820.184	27146
820.324	27199
820.465	27439
820.605	27306
820.746	27287
820.886	27306
821.026	27313
821.167	27279
821.307	27272
821.447	27169
821.588	27207
821.728	26948
821.868	26792
822.008	26781
822.149	26785
822.289	26701
822.429	26438
822.569	26355
822.709	26309
822.849	26180
822.99	26050
823.13	26168
823.27	26065
823.41	25883
823.55	25986
823.69	25913
823.83	26020
823.97	25944
824.11	25860
824.25	25727
824.389	25799
824.529	25917
824.669	25841
824.809	25940
824.949	25959
825.089	25951
825.228	25814
825.368	25780
825.508	25643
825.648	25769
825.787	25803
825.927	25818
826.067	25609
826.206	25723
826.346	25666
826.485	25852
826.625	25723
826.765	25879
826.904	25750
827.044	25567
827.183	25472
827.323	25426
827.462	25460
827.601	25419
827.741	25327
827.88	25453
828.02	25293
828.159	25441
828.298	25335
828.437	25472
828.577	25282
828.716	25472
828.855	25331
828.994	25175
829.134	25122
829.273	25069
829.412	25080
829.551	24977
829.69	25080
829.829	25141
829.968	25126
830.107	25091
830.246	25099
830.385	25088
830.524	25122
830.663	24939
830.802	24798
830.941	24757
831.08	24642
831.219	24779
831.357	24745
831.496	24760
831.635	24768
831.774	24635
831.913	24620
832.051	24559
832.19	24540
832.329	24494
832.467	24380
832.606	24319
832.744	24338
832.883	24361
833.022	24266
833.16	24395
833.299	24429
833.437	24544
833.576	24479
833.714	24475
833.852	24483
833.991	24570
834.129	24544
834.267	24551
834.406	24429
834.544	24407
834.682	24498
834.821	24391
834.959	24525
835.097	24517
835.235	24441
835.373	24505
835.511	24445
835.65	24350
835.788	24300
835.926	24167
836.064	24091
836.202	24091
836.34	24190
836.478	24346
836.615	24327
836.753	24216
836.891	24361
837.029	24361
837.167	24167
837.305	24060
837.443	24228
837.58	24121
837.718	24155
837.856	24117
837.993	23950
838.131	24068
838.269	23942
838.406	23954
838.544	23737
838.681	23798
838.819	23756
838.956	23577
839.094	23611
839.231	23668
839.369	23653
839.506	23996
839.643	23722
839.781	23668
839.918	23520
840.055	23615
840.193	23474
840.33	23474
840.467	23478
840.604	23512
840.742	23855
840.879	23387
841.016	23547
841.153	23356
841.29	23516
841.427	23551
841.564	23410
841.701	23509
841.838	23433
841.975	23349
842.112	23364
842.249	23258
842.385	23258
842.522	23421
842.659	23307
842.796	23208
842.933	23216
843.069	23254
843.206	23204
843.343	23296
843.479	23197
843.616	23193
843.752	23018
843.889	23033
844.025	23094
844.162	22972
844.298	23048
844.435	23029
844.571	22923
844.708	23071
844.844	23151
844.98	23212
845.117	23121
845.253	22915
845.389	22828
845.525	22866
845.661	22847
845.798	22759
845.934	22771
846.07	22664
846.206	22713
846.342	22809
846.478	22778
846.614	22493
846.75	22352
846.886	22417
847.022	22493
847.158	22512
847.294	22508
847.429	22432
847.565	22394
847.701	22717
847.837	22181
847.972	22128
848.108	22253
848.244	22295
848.379	22188
848.515	22082
848.65	22090
848.786	21979
848.921	22078
849.057	22196
849.192	22181
849.328	22265
849.463	22082
849.598	21994
849.734	21934
849.869	21899
850.004	21808
850.14	21823
850.275	21949
850.41	21804
850.545	21743
850.68	21819
850.815	21831
850.95	21751
851.085	22029
851.22	21911
851.355	21911
851.49	21842
851.625	21819
851.76	21800
851.895	21842
852.03	21595
852.165	21732
852.299	21842
852.434	21994
852.569	21827
852.703	21808
852.838	21759
852.973	21949
853.107	21987
853.242	21835
853.376	21644
853.511	21652
853.645	21587
853.78	21762
853.914	21701
854.048	21591
854.183	21587
854.317	21652
854.451	21838
854.585	21629
854.72	21618
854.854	21675
854.988	21606
855.122	21603
855.256	21663
855.39	21625
855.524	21762
855.658	21682
855.792	21679
855.926	21679
856.06	21827
856.194	21633
856.327	21755
856.461	21561
856.595	21622
856.729	21679
856.862	21747
856.996	21724
857.13	21705
857.263	21785
857.397	21732
857.53	21614
857.664	21701
857.797	21728
857.931	21698
858.064	21660
858.197	21789
858.331	21564
858.464	21519
858.597	21405
858.731	21610
858.864	21682
858.997	21656
859.13	21625
859.263	21686
859.396	21690
859.529	21720
859.662	21561
859.795	21644
859.928	21618
860.061	21732
860.194	21850
860.327	21610
860.46	21675
860.592	21762
860.725	21838
860.858	21747
860.99	21591
861.123	21595
861.256	21568
861.388	21606
861.521	22489
861.653	21523
861.786	21416
861.918	21492
862.05	21526
862.183	21511
862.315	21553
862.447	21644
862.58	21507
862.712	21382
862.844	21294
862.976	21416
863.108	21389
863.24	21800
863.372	21260
863.504	21359
863.636	21359
863.768	21386
863.9	21378
864.032	21355
864.164	21230
864.296	21488
864.428	21526
864.559	21302
864.691	21287
864.823	21370
864.954	21260
865.086	21386
865.217	21344
865.349	21165
865.48	21325
865.612	21245
865.743	21336
865.875	21154
866.006	21218
866.137	21249
866.269	21268
866.4	21279
866.531	21116
866.662	21237
866.793	21150
866.924	21138
867.055	21207
867.186	21188
867.317	21119
867.448	21017
867.579	21184
867.71	21131
867.841	21146
867.972	21214
868.103	21119
868.233	21127
868.364	21017
868.495	21332
868.625	21424
868.756	21458
868.886	21306
869.017	21389
869.147	21526
869.278	21549
869.408	21485
869.539	21374
869.669	21614
869.799	21462
869.929	21485
870.06	21500
870.19	21694
870.32	21759
870.45	21797
870.58	21861
870.71	21949
870.84	21922
870.97	21926
871.1	21812
871.23	21983
871.36	22029
871.489	21823
871.619	21880
871.749	22131
871.879	22044
872.008	22116
872.138	21994
872.267	22078
872.397	21827
872.526	21816
872.656	21800
872.785	21842
872.915	22109
873.044	22051
873.173	22025
873.303	22109
873.432	22173
873.561	22082
873.69	22036
873.819	22124
873.948	22105
874.077	22082
874.206	22025
874.335	22048
874.464	22150
874.593	22299
874.722	22162
874.851	22257
874.979	22344
875.108	22363
875.237	22185
875.365	22059
875.494	22204
875.623	22333
875.751	22139
875.88	22363
876.008	22318
876.136	22428
876.265	22565
876.393	22790
876.521	22668
876.65	22774
876.778	22653
876.906	22592
877.034	22565
877.162	22596
877.29	22569
877.418	22523
877.546	22561
877.674	22675
877.802	22550
877.93	22573
878.058	22554
878.185	22443
878.313	22588
878.441	22523
878.568	22413
878.696	22485
878.824	22634
878.951	22736
879.079	22869
879.206	22968
879.333	22691
879.461	22702
879.588	22771
879.715	22702
879.842	22839
879.97	22713
880.097	22497
880.224	22527
880.351	22344
880.478	22459
880.605	22394
880.732	22352
880.859	22698
880.986	22500
881.112	22421
881.239	22181
881.366	22181
881.493	22105
881.619	22078
881.746	22112
881.872	21941
881.999	21953
882.125	21880
882.252	21899
882.378	21865
882.505	22090
882.631	21941
882.757	21698
882.883	21728
883.01	21679
883.136	21637
883.262	21557
883.388	21557
883.514	21720
883.64	21819
883.766	21477
883.892	21473
884.018	21477
884.143	21648
884.269	21637
884.395	21367
884.52	21294
884.646	21329
884.772	21348
884.897	21355
885.023	21367
885.148	21416
885.274	21416
885.399	21431
885.524	21393
885.65	21336
885.775	21310
885.9	21272
886.025	21439
886.15	21355
886.275	21310
886.4	21180
886.525	21283
886.65	21291
886.775	21184
886.9	21389
887.025	21667
887.149	21154
887.274	21184
887.399	21024
887.523	21055
887.648	21161
887.773	20929
887.897	21058
888.021	21218
888.146	20956
888.27	21180
888.395	21169
888.519	21032
888.643	21062
888.767	21154
888.891	20975
889.015	20929
889.139	20880
889.263	20910
889.387	20925
889.511	21211
889.635	20956
889.759	20830
889.883	20800
890.006	21009
890.13	20952
890.254	20868
890.377	20727
890.501	20724
890.624	20571
890.748	20720
890.871	20522
890.995	20488
891.118	20492
891.241	20461
891.364	20465
891.488	20412
891.611	20499
891.734	20495
891.857	20537
891.98	20560
892.103	20396
892.226	20499
892.349	20374
892.471	20199
892.594	20385
892.717	20374
892.839	20434
892.962	20377
893.085	20351
893.207	20434
893.33	20225
893.452	20290
893.575	20457
893.697	20218
893.819	20541
893.941	20617
894.064	20518
894.186	20351
894.308	20275
894.43	20530
894.552	20568
894.674	20457
894.796	20396
894.918	20301
895.04	20423
895.161	20366
895.283	20450
895.405	20233
895.526	20370
895.648	20324
895.769	20469
895.891	20370
896.012	20450
896.134	20537
896.255	20290
896.376	20332
896.498	20347
896.619	20461
896.74	20423
896.861	20450
896.982	20625
897.103	20891
897.224	20686
897.345	20667
897.466	20545
897.587	20583
897.708	20724
897.828	20632
897.949	20556
898.07	20366
898.19	20541
898.311	20705
898.431	20511
898.552	20549
898.672	20693
898.792	20689
898.913	20602
899.033	20556
899.153	20396
899.273	20267
899.393	20324
899.513	20480
899.633	20317
899.753	20374
899.873	20358
899.993	20358
900.113	20115
900.232	20336
900.352	20214
900.472	20122
900.591	20054
900.711	20134
900.83	20069
900.95	20126
901.069	20145
901.189	20035
901.308	19765
901.427	19571
901.546	19635
901.665	19791
901.784	19776
901.904	19552
902.023	19480
902.141	19320
902.26	19285
902.379	19369
902.498	19244
902.617	19141
902.735	19289
902.854	19209
902.973	19175
903.091	19042
903.21	18810
903.328	18920
903.446	18825
903.565	18700
903.683	18642
903.801	18566
903.919	18601
904.038	18582
904.156	18414
904.274	18498
904.392	18490
904.51	18388
904.627	18460
904.745	18414
904.863	18521
904.981	18182
905.098	18110
905.216	18190
905.334	18136
905.451	18216
905.569	18163
905.686	18114
905.803	18178
905.921	17897
906.038	17954
906.155	17954
906.272	17817
906.389	17748
906.506	17809
906.623	17680
906.74	17699
906.857	17585
906.974	17520
907.091	17733
907.208	17813
907.324	17687
907.441	17532
907.557	17429
907.674	17387
907.79	17265
907.907	17379
908.023	17315
908.139	17277
908.256	17330
908.372	17223
908.488	17288
908.604	17162
908.72	17022
908.836	17041
908.952	17136
909.068	17117
909.184	17143
909.3	17067
909.415	17083
909.531	17121
909.647	16805
909.762	16805
909.878	16812
909.993	16828
910.108	16778
910.224	16774
910.339	16694
910.454	16660
910.57	16580
910.685	16451
910.8	16782
910.915	16767
911.03	16611
911.145	16451
911.259	16329
911.374	16447
911.489	16352
911.604	16303
911.718	16082
911.833	16166
911.947	16006
912.062	16032
912.176	16128
912.291	16086
912.405	16131
912.519	16382
912.633	16314
912.748	16196
912.862	16158
912.976	15922
913.09	15793
913.204	15964
913.318	15880
913.431	16082
913.545	16013
913.659	15975
913.772	15854
913.886	15819
914	15785
914.113	15778
914.226	15800
914.34	15835
914.453	15591
914.566	15789
914.68	15622
914.793	15629
914.906	15302
915.019	15310
915.132	15291
915.245	15329
915.358	15325
915.47	15310
915.583	15264
915.696	15340
915.809	15500
915.921	15454
916.034	15279
916.146	15199
916.259	15169
916.371	15306
916.483	15222
916.595	15081
916.708	15093
916.82	15131
916.932	15116
917.044	15036
917.156	15123
917.268	15039
917.38	15047
917.491	15032
917.603	15005
917.715	14994
917.826	15055
917.938	14902
918.049	14845
918.161	14838
918.272	15104
918.384	15020
918.495	14952
918.606	14746
918.717	14697
918.828	14727
918.939	14826
919.05	14598
919.161	14697
919.272	14552
919.383	14625
919.494	14693
919.604	14937
919.715	14800
919.826	14564
919.936	14651
920.047	14773
920.157	14716
920.267	14895
920.378	14659
920.488	14587
920.598	14872
920.708	15047
920.818	14724
920.928	14902
921.038	15039
921.148	14967
921.258	14674
921.368	14667
921.477	14339
921.587	14347
921.697	14294
921.806	14465
921.916	14259
922.025	14069
922.134	13986
922.244	13986
922.353	14138
922.462	13944
922.571	13906
922.68	13719
922.789	13681
922.898	13803
923.007	13681
923.116	13712
923.224	13662
923.333	13605
923.442	13552
923.55	13438
923.659	13571
923.767	13594
923.876	13559
923.984	13533
924.092	13430
924.201	13491
924.309	13499
924.417	13388
924.525	13422
924.633	13327
924.741	14180
924.849	13206
924.956	13339
925.064	13209
925.172	13008
925.279	13114
925.387	13175
925.494	13133
925.602	13164
925.709	13156
925.816	12973
925.924	13133
926.031	13103
926.138	13069
926.245	13061
926.352	12989
926.459	13194
926.566	13110
926.673	13046
926.779	12905
926.886	12814
926.993	12684
927.099	12612
927.206	12669
927.312	12597
927.419	12623
927.525	12715
927.631	12631
927.737	12448
927.843	12563
927.95	12456
928.056	12513
928.162	12566
928.267	12616
928.373	13133
928.479	12498
928.585	12365
928.69	12429
928.796	12437
928.901	12330
929.007	12213
929.112	12308
929.218	12235
929.323	12175
929.428	12167
929.533	12334
929.638	12129
929.743	12243
929.848	12178
929.953	12209
930.058	12060
930.163	11927
930.267	11904
930.372	12060
930.477	11832
930.581	12167
930.685	11992
930.79	11707
930.894	11779
930.998	11718
931.103	11878
931.207	11482
931.311	11509
931.415	11444
931.519	11258
931.623	11178
