Data from test_V78500241_182.txt Node
Date: Fri Mar 25 15:43:03 CST 2022
User: usil
Spectrometer: V785-0024
Trigger mode: 0
Integration Time (sec): 4.000000E-1
Scans to average: 1
Nonlinearity correction enabled: false
Boxcar width: 0
Storing dark spectrum: false
XAxis mode: Wavelengths
Number of Pixels in Spectrum: 1024
>>>>>Begin Spectral Data<<<<<
801.071	29676
801.214	29680
801.356	29368
801.499	29368
801.641	29246
801.783	29356
801.926	29079
802.068	29303
802.211	29109
802.353	29079
802.496	29052
802.638	28995
802.78	28858
802.923	28816
803.065	28721
803.208	28733
803.35	28847
803.492	28885
803.635	28961
803.777	28919
803.919	28873
804.061	29318
804.204	29041
804.346	28873
804.488	28984
804.63	28961
804.773	28809
804.915	28995
805.057	29041
805.199	29025
805.341	29014
805.483	29037
805.626	29033
805.768	29041
805.91	28976
806.052	29204
806.194	29083
806.336	29284
806.478	29174
806.62	29022
806.762	29113
806.904	29429
807.046	29547
807.188	29570
807.33	29520
807.472	29668
807.614	29353
807.756	29353
807.898	29216
808.04	29220
808.182	29220
808.324	29258
808.465	29280
808.607	29410
808.749	29615
808.891	29699
809.033	29832
809.174	29623
809.316	29714
809.458	29649
809.6	29665
809.741	29573
809.883	29760
810.025	29885
810.166	29805
810.308	29984
810.45	29699
810.591	29767
810.733	29710
810.875	29646
811.016	29615
811.158	29672
811.299	29630
811.441	29836
811.582	29874
811.724	29646
811.865	29566
812.007	29585
812.148	29630
812.29	29608
812.431	29752
812.573	29897
812.714	29942
812.855	30121
812.997	30129
813.138	30369
813.279	30266
813.421	30087
813.562	29996
813.703	29988
813.845	29703
813.986	29474
814.127	29349
814.268	29254
814.41	29162
814.551	29204
814.692	29353
814.833	29079
814.974	29098
815.115	29254
815.256	29079
815.397	29143
815.539	28869
815.68	28995
815.821	28896
815.962	28915
816.103	28862
816.244	28733
816.385	28729
816.526	28733
816.666	28611
816.807	28375
816.948	28523
817.089	28481
817.23	28523
817.371	28306
817.512	28386
817.653	28325
817.793	28291
817.934	28440
818.075	28497
818.216	28329
818.356	28375
818.497	28291
818.638	28169
818.778	28207
818.919	28051
819.06	28112
819.2	28097
819.341	28360
819.481	28230
819.622	28481
819.762	28679
819.903	28565
820.043	28451
820.184	28485
820.324	28257
820.465	28443
820.605	28318
820.746	28318
820.886	28082
821.026	28455
821.167	28363
821.307	28409
821.447	28322
821.588	28128
821.728	27994
821.868	28006
822.008	27701
822.149	27705
822.289	27865
822.429	27564
822.569	27504
822.709	27363
822.849	27176
822.99	27214
823.13	27184
823.27	27085
823.41	26998
823.55	26910
823.69	26998
823.83	26918
823.97	26952
824.11	26853
824.25	26644
824.389	26830
824.529	26914
824.669	26712
824.809	26872
824.949	26899
825.089	26944
825.228	26769
825.368	26731
825.508	26739
825.648	26659
825.787	26606
825.927	26621
826.067	26446
826.206	26549
826.346	26617
826.485	26708
826.625	26530
826.765	26613
826.904	26754
827.044	26229
827.183	26381
827.323	26183
827.462	26431
827.601	26271
827.741	26259
827.88	26328
828.02	26210
828.159	26248
828.298	26259
828.437	26259
828.577	26225
828.716	26290
828.855	26145
828.994	25932
829.134	26039
829.273	25986
829.412	25826
829.551	25921
829.69	25959
829.829	26001
829.968	26012
830.107	26024
830.246	25875
830.385	25788
830.524	25875
830.663	25750
830.802	25559
830.941	25502
831.08	25605
831.219	25620
831.357	25483
831.496	25826
831.635	25499
831.774	25327
831.913	25396
832.051	25407
832.19	25228
832.329	25247
832.467	25278
832.606	25175
832.744	25099
832.883	25072
833.022	25103
833.16	25118
833.299	25084
833.437	25133
833.576	25175
833.714	25088
833.852	25282
833.991	25213
834.129	25266
834.267	25232
834.406	25152
834.544	25114
834.682	25053
834.821	25084
834.959	25232
835.097	24886
835.235	25027
835.373	25129
835.511	25122
835.65	25171
835.788	24951
835.926	24882
836.064	24741
836.202	24707
836.34	25031
836.478	25004
836.615	24920
836.753	24916
836.891	25046
837.029	25061
837.167	24821
837.305	24776
837.443	24913
837.58	24764
837.718	24890
837.856	24856
837.993	24658
838.131	24772
838.269	24661
838.406	24604
838.544	24502
838.681	24422
838.819	24357
838.956	24285
839.094	24171
839.231	24167
839.369	24334
839.506	24505
839.643	24414
839.781	24133
839.918	23969
840.055	24106
840.193	24022
840.33	24076
840.467	24026
840.604	24026
840.742	24228
840.879	24045
841.016	24030
841.153	23859
841.29	24235
841.427	24053
841.564	24102
841.701	24003
841.838	23980
841.975	23927
842.112	23923
842.249	23798
842.385	23855
842.522	23999
842.659	23779
842.796	23794
842.933	23722
843.069	23638
843.206	23615
843.343	23748
843.479	23897
843.616	23756
843.752	23512
843.889	23467
844.025	23596
844.162	23524
844.298	23539
844.435	23459
844.571	23459
844.708	23391
844.844	23722
844.98	23722
845.117	23528
845.253	23414
845.389	23277
845.525	23463
845.661	23315
845.798	23265
845.934	23170
846.07	23083
846.206	23280
846.342	23303
846.478	23155
846.614	22991
846.75	22831
846.886	22942
847.022	22980
847.158	22866
847.294	22949
847.429	23018
847.565	22892
847.701	23124
847.837	22641
847.972	22668
848.108	22592
848.244	22736
848.379	22535
848.515	22470
848.65	22523
848.786	22424
848.921	22531
849.057	22637
849.192	22478
849.328	22519
849.463	22424
849.598	22409
849.734	22424
849.869	22272
850.004	22124
850.14	22265
850.275	22147
850.41	22036
850.545	22074
850.68	22067
850.815	22101
850.95	22234
851.085	22299
851.22	22207
851.355	22112
851.49	22105
851.625	22067
851.76	22204
851.895	22086
852.03	22276
852.165	22158
852.299	22147
852.434	22314
852.569	22242
852.703	22055
852.838	22188
852.973	22337
853.107	22272
853.242	22040
853.376	21827
853.511	21850
853.645	21968
853.78	22025
853.914	22051
854.048	21941
854.183	21987
854.317	22044
854.451	22166
854.585	21945
854.72	21918
854.854	22013
854.988	21899
855.122	21968
855.256	21816
855.39	22044
855.524	21983
855.658	21972
855.792	21899
855.926	22025
856.06	21968
856.194	22055
856.327	21918
856.461	21816
856.595	21846
856.729	21953
856.862	22063
856.996	21907
857.13	21907
857.263	22006
857.397	22032
857.53	21903
857.664	21876
857.797	21865
857.931	21956
858.064	22017
858.197	21899
858.331	21956
858.464	21873
858.597	21804
858.731	21949
858.864	21949
858.997	21800
859.13	21895
859.263	21903
859.396	21854
859.529	21876
859.662	21709
859.795	21857
859.928	21854
860.061	21911
860.194	22044
860.327	21968
860.46	21857
860.592	21979
860.725	21998
860.858	21857
860.99	21880
861.123	21831
861.256	21812
861.388	21804
861.521	22569
861.653	21842
861.786	21690
861.918	21743
862.05	21812
862.183	21907
862.315	21846
862.447	22044
862.58	21869
862.712	21633
862.844	21591
862.976	21690
863.108	21648
863.24	21888
863.372	21450
863.504	21633
863.636	21583
863.768	21641
863.9	21625
864.032	21511
864.164	21504
864.296	21656
864.428	21701
864.559	21576
864.691	21625
864.823	21545
864.954	21614
865.086	21564
865.217	21538
865.349	21435
865.48	21496
865.612	21428
865.743	21610
865.875	21389
866.006	21580
866.137	21454
866.269	21363
866.4	21382
866.531	21557
866.662	21348
866.793	21313
866.924	21397
867.055	21435
867.186	21443
867.317	21428
867.448	21252
867.579	21222
867.71	21332
867.841	21249
867.972	21325
868.103	21340
868.233	21344
868.364	21420
868.495	21500
868.625	21660
868.756	21701
868.886	21614
869.017	21450
869.147	21637
869.278	21713
869.408	21519
869.539	21553
869.669	21713
869.799	21690
869.929	21781
870.06	21789
870.19	21895
870.32	21850
870.45	21945
870.58	22093
870.71	22078
870.84	22051
870.97	22029
871.1	21956
871.23	22166
871.36	22185
871.489	22036
871.619	22257
871.749	22158
871.879	22200
872.008	22417
872.138	22207
872.267	22238
872.397	21937
872.526	22048
872.656	22097
872.785	22029
872.915	22215
873.044	22272
873.173	22272
873.303	22337
873.432	22120
873.561	22196
873.69	22280
873.819	22226
873.948	22333
874.077	22253
874.206	22207
874.335	22196
874.464	22447
874.593	22535
874.722	22424
874.851	22451
874.979	22531
875.108	22504
875.237	22390
875.365	22341
875.494	22409
875.623	22497
875.751	22485
875.88	22478
876.008	22565
876.136	22698
876.265	22828
876.393	22961
876.521	22854
876.65	22866
876.778	22820
876.906	22786
877.034	22771
877.162	22866
877.29	22778
877.418	22938
877.546	22752
877.674	22771
877.802	22828
877.93	22740
878.058	22801
878.185	22702
878.313	22831
878.441	22820
878.568	22679
878.696	22752
878.824	22752
878.951	23022
879.079	22957
879.206	23117
879.333	22953
879.461	22911
879.588	22930
879.715	22854
879.842	23010
879.97	22839
880.097	22554
880.224	22577
880.351	22580
880.478	22577
880.605	22523
880.732	22603
880.859	22805
880.986	22679
881.112	22615
881.239	22462
881.366	22363
881.493	22303
881.619	22230
881.746	22242
881.872	22105
881.999	22185
882.125	22112
882.252	22150
882.378	22147
882.505	22303
882.631	22090
882.757	22021
882.883	21991
883.01	22006
883.136	21956
883.262	21819
883.388	21808
883.514	21861
883.64	21945
883.766	21808
883.892	21800
884.018	21842
884.143	21812
884.269	21941
884.395	21679
884.52	21500
884.646	21545
884.772	21344
884.897	21336
885.023	21561
885.148	21557
885.274	21629
885.399	21595
885.524	21462
885.65	21629
885.775	21370
885.9	21424
886.025	21553
886.15	21614
886.275	21515
886.4	21424
886.525	21481
886.65	21534
886.775	21416
886.9	21523
887.025	21751
887.149	21488
887.274	21351
887.399	21317
887.523	21363
887.648	21146
887.773	21218
887.897	21321
888.021	21279
888.146	21211
888.27	21348
888.395	21378
888.519	21218
888.643	21252
888.767	21310
888.891	21272
889.015	20982
889.139	21268
889.263	21020
889.387	20990
889.511	21340
889.635	21039
889.759	21001
889.883	21077
890.006	21066
890.13	21154
890.254	20975
890.377	20815
890.501	20823
890.624	20796
890.748	20899
890.871	20670
890.995	20541
891.118	20640
891.241	20541
891.364	20583
891.488	20686
891.611	20648
891.734	20617
891.857	20594
891.98	20492
892.103	20545
892.226	20598
892.349	20484
892.471	20355
892.594	20461
892.717	20648
892.839	20427
892.962	20549
893.085	20518
893.207	20438
893.33	20419
893.452	20377
893.575	20640
893.697	20495
893.819	20598
893.941	20785
894.064	20655
894.186	20423
894.308	20408
894.43	20621
894.552	20701
894.674	20549
894.796	20408
894.918	20286
895.04	20492
895.161	20545
895.283	20552
895.405	20385
895.526	20457
895.648	20545
895.769	20454
895.891	20549
896.012	20564
896.134	20556
896.255	20514
896.376	20545
896.498	20446
896.619	20693
896.74	20473
896.861	20602
896.982	20880
897.103	20948
897.224	20705
897.345	20731
897.466	20667
897.587	20804
897.708	20853
897.828	20777
897.949	20609
898.07	20488
898.19	20571
898.311	20807
898.431	20587
898.552	20773
898.672	20788
898.792	20777
898.913	20693
899.033	20602
899.153	20473
899.273	20389
899.393	20294
899.513	20514
899.633	20412
899.753	20495
899.873	20389
899.993	20431
900.113	20347
900.232	20419
900.352	20358
900.472	20206
900.591	20161
900.711	20259
900.83	20176
900.95	20324
901.069	20263
901.189	20077
901.308	19883
901.427	19780
901.546	19845
901.665	19784
901.784	19826
901.904	19563
902.023	19624
902.141	19381
902.26	19335
902.379	19324
902.498	19247
902.617	19206
902.735	19278
902.854	19263
902.973	19198
903.091	19008
903.21	18973
903.328	18935
903.446	18844
903.565	18764
903.683	18802
903.801	18601
903.919	18810
904.038	18661
904.156	18521
904.274	18578
904.392	18525
904.51	18509
904.627	18486
904.745	18509
904.863	18547
904.981	18300
905.098	18155
905.216	18220
905.334	18186
905.451	18171
905.569	18133
905.686	18171
905.803	18091
905.921	18049
906.038	18053
906.155	17920
906.272	17893
906.389	17901
906.506	17707
906.623	17733
906.74	17707
906.857	17501
906.974	17573
907.091	17794
907.208	17923
907.324	17707
907.441	17433
907.557	17337
907.674	17353
907.79	17364
907.907	17315
908.023	17356
908.139	17379
908.256	17280
908.372	17376
908.488	17162
908.604	17117
908.72	17014
908.836	17075
908.952	16946
909.068	17083
909.184	17322
909.3	17029
909.415	17102
909.531	17010
909.647	16843
909.762	16748
909.878	16812
909.993	16767
910.108	16717
910.224	16729
910.339	16736
910.454	16626
910.57	16538
910.685	16546
910.8	16831
910.915	16558
911.03	16577
911.145	16390
911.259	16363
911.374	16352
911.489	16253
911.604	16196
911.718	16154
911.833	16150
911.947	16051
912.062	15975
912.176	16147
912.291	16116
912.405	16090
912.519	16287
912.633	16230
912.748	16124
912.862	15991
912.976	15827
913.09	15720
913.204	15835
913.318	15876
913.431	16040
913.545	15876
913.659	15964
913.772	15857
913.886	15732
914	15530
914.113	15633
914.226	15724
914.34	15751
914.453	15568
914.566	15720
914.68	15599
914.793	15511
914.906	15401
915.019	15264
915.132	15161
915.245	15226
915.358	15279
915.47	15241
915.583	15317
915.696	15252
915.809	15310
915.921	15359
916.034	15207
916.146	15157
916.259	15074
916.371	15207
916.483	15169
916.595	15070
916.708	15131
916.82	15077
916.932	15100
917.044	15081
917.156	15123
917.268	14975
917.38	14971
917.491	14952
917.603	14887
917.715	14990
917.826	15036
917.938	14849
918.049	14788
918.161	14891
918.272	14979
918.384	14971
918.495	14861
918.606	14708
918.717	14606
918.828	14693
918.939	14750
919.05	14526
919.161	14655
919.272	14552
919.383	14480
919.494	14686
919.604	14807
919.715	14621
919.826	14541
919.936	14526
920.047	14610
920.157	14625
920.267	14735
920.378	14606
920.488	14644
920.598	14739
920.708	14868
920.818	14648
920.928	14674
921.038	14804
921.148	14864
921.258	14575
921.368	14431
921.477	14286
921.587	14275
921.697	14183
921.806	14309
921.916	14145
922.025	13932
922.134	14008
922.244	14012
922.353	14005
922.462	13868
922.571	13841
922.68	13658
922.789	13609
922.898	13609
923.007	13521
923.116	13708
923.224	13457
923.333	13544
923.442	13468
923.55	13381
923.659	13392
923.767	13441
923.876	13419
923.984	13331
924.092	13320
924.201	13308
924.309	13312
924.417	13285
924.525	13240
924.633	13289
924.741	13974
924.849	13072
924.956	13187
925.064	13099
925.172	12962
925.279	12970
925.387	13008
925.494	13008
925.602	13103
925.709	13057
925.816	12905
925.924	12943
926.031	13046
926.138	12958
926.245	12954
926.352	12863
926.459	13038
926.566	13129
926.673	12863
926.779	12711
926.886	12787
926.993	12662
927.099	12623
927.206	12540
927.312	12502
927.419	12589
927.525	12521
927.631	12623
927.737	12483
927.843	12407
927.95	12270
928.056	12311
928.162	12395
928.267	12346
928.373	13004
928.479	12350
928.585	12144
928.69	12350
928.796	12308
928.901	12254
929.007	12121
929.112	12220
929.218	12224
929.323	12079
929.428	12076
929.533	12213
929.638	12026
929.743	12049
929.848	12121
929.953	12076
930.058	11893
930.163	11775
930.267	11779
930.372	11965
930.477	11680
930.581	11977
930.685	11726
930.79	11676
930.894	11695
930.998	11630
931.103	11707
931.207	11372
931.311	11204
931.415	11204
931.519	11025
931.623	10980
