Data from test_V78500241_2068.txt Node
Date: Fri Mar 25 15:56:07 CST 2022
User: usil
Spectrometer: V785-0024
Trigger mode: 0
Integration Time (sec): 4.000000E-1
Scans to average: 1
Nonlinearity correction enabled: false
Boxcar width: 0
Storing dark spectrum: false
XAxis mode: Wavelengths
Number of Pixels in Spectrum: 1024
>>>>>Begin Spectral Data<<<<<
801.071	28984
801.214	28854
801.356	28508
801.499	28497
801.641	28508
801.783	28401
801.926	28413
802.068	28462
802.211	28470
802.353	28352
802.496	28139
802.638	28223
802.78	28055
802.923	28082
803.065	28006
803.208	28139
803.35	28173
803.492	28295
803.635	28413
803.777	28139
803.919	28295
804.061	28771
804.204	28470
804.346	28318
804.488	28139
804.63	28493
804.773	28276
804.915	28409
805.057	28550
805.199	28333
805.341	28462
805.483	28664
805.626	28554
805.768	28371
805.91	28424
806.052	28538
806.194	28557
806.336	28805
806.478	28649
806.62	28470
806.762	28763
806.904	28771
807.046	29052
807.188	29071
807.33	29060
807.472	29003
807.614	29006
807.756	28908
807.898	28786
808.04	28733
808.182	28816
808.324	28744
808.465	28888
808.607	29117
808.749	29277
808.891	29216
809.033	29395
809.174	29360
809.316	29212
809.458	29242
809.6	29379
809.741	29448
809.883	29345
810.025	29543
810.166	29474
810.308	29535
810.45	29577
810.591	29474
810.733	29356
810.875	29162
811.016	29242
811.158	29261
811.299	29326
811.441	29440
811.582	29414
811.724	29387
811.865	29334
812.007	29265
812.148	29197
812.29	29258
812.431	29558
812.573	29649
812.714	29653
812.855	29760
812.997	29843
813.138	29942
813.279	29950
813.421	29760
813.562	29653
813.703	29600
813.845	29490
813.986	29223
814.127	29086
814.268	28896
814.41	29010
814.551	28987
814.692	29033
814.833	28968
814.974	28984
815.115	29037
815.256	28831
815.397	28828
815.539	28831
815.68	28736
815.821	28801
815.962	28755
816.103	28869
816.244	28599
816.385	28550
816.526	28531
816.666	28424
816.807	28219
816.948	28348
817.089	28382
817.23	28409
817.371	28360
817.512	28246
817.653	28211
817.793	28200
817.934	28360
818.075	28363
818.216	28238
818.356	28204
818.497	28131
818.638	28017
818.778	27975
818.919	27964
819.06	28128
819.2	28109
819.341	28261
819.481	28215
819.622	28527
819.762	28679
819.903	28550
820.043	28459
820.184	28379
820.324	28375
820.465	28493
820.605	28451
820.746	28508
820.886	28242
821.026	28390
821.167	28451
821.307	28485
821.447	28375
821.588	28177
821.728	28181
821.868	27945
822.008	27739
822.149	27774
822.289	27747
822.429	27515
822.569	27462
822.709	27378
822.849	27298
822.99	27279
823.13	27252
823.27	27066
823.41	26986
823.55	27005
823.69	27165
823.83	27180
823.97	26963
824.11	27001
824.25	26796
824.389	27024
824.529	27127
824.669	27047
824.809	26979
824.949	26975
825.089	27039
825.228	27062
825.368	26861
825.508	26823
825.648	26838
825.787	26693
825.927	26899
826.067	26758
826.206	26697
826.346	26788
826.485	26845
826.625	26773
826.765	26921
826.904	26762
827.044	26594
827.183	26644
827.323	26408
827.462	26655
827.601	26583
827.741	26568
827.88	26629
828.02	26404
828.159	26408
828.298	26587
828.437	26727
828.577	26522
828.716	26533
828.855	26389
828.994	26237
829.134	26240
829.273	26339
829.412	26176
829.551	26107
829.69	26202
829.829	26149
829.968	26313
830.107	26259
830.246	26256
830.385	26065
830.524	26107
830.663	26111
830.802	25978
830.941	25818
831.08	25871
831.219	25856
831.357	25890
831.496	26024
831.635	25803
831.774	25746
831.913	25658
832.051	25571
832.19	25586
832.329	25643
832.467	25548
832.606	25540
832.744	25510
832.883	25438
833.022	25476
833.16	25563
833.299	25601
833.437	25506
833.576	25575
833.714	25582
833.852	25590
833.991	25586
834.129	25502
834.267	25487
834.406	25586
834.544	25563
834.682	25548
834.821	25582
834.959	25578
835.097	25388
835.235	25628
835.373	25495
835.511	25567
835.65	25445
835.788	25502
835.926	25331
836.064	25019
836.202	25244
836.34	25369
836.478	25491
836.615	25384
836.753	25293
836.891	25381
837.029	25339
837.167	25335
837.305	25251
837.443	25206
837.58	25160
837.718	25164
837.856	25293
837.993	25137
838.131	25194
838.269	25008
838.406	25133
838.544	24992
838.681	24806
838.819	24810
838.956	24639
839.094	24528
839.231	24646
839.369	24848
839.506	25034
839.643	24768
839.781	24620
839.918	24536
840.055	24642
840.193	24673
840.33	24528
840.467	24696
840.604	24738
840.742	24905
840.879	24498
841.016	24346
841.153	24490
841.29	24646
841.427	24384
841.564	24578
841.701	24540
841.838	24517
841.975	24407
842.112	24422
842.249	24346
842.385	24235
842.522	24551
842.659	24410
842.796	24224
842.933	24399
843.069	24323
843.206	24163
843.343	24346
843.479	24213
843.616	24197
843.752	24087
843.889	24095
844.025	24178
844.162	24182
844.298	24262
844.435	24114
844.571	24095
844.708	24079
844.844	24273
844.98	24243
845.117	24190
845.253	24007
845.389	23935
845.525	24049
845.661	23878
845.798	23764
845.934	23866
846.07	23726
846.206	23798
846.342	23927
846.478	23863
846.614	23535
846.75	23349
846.886	23623
847.022	23638
847.158	23619
847.294	23714
847.429	23627
847.565	23482
847.701	23733
847.837	23193
847.972	23246
848.108	23349
848.244	23478
848.379	23090
848.515	23098
848.65	23181
848.786	23181
848.921	23056
849.057	23208
849.192	23159
849.328	23109
849.463	23200
849.598	23014
849.734	23033
849.869	23075
850.004	22729
850.14	22885
850.275	22854
850.41	22767
850.545	22721
850.68	22809
850.815	22999
850.95	22812
851.085	22968
851.22	23029
851.355	22877
851.49	22911
851.625	22854
851.76	22820
851.895	22729
852.03	22820
852.165	22824
852.299	22953
852.434	22946
852.569	22911
852.703	22915
852.838	22923
852.973	23067
853.107	23044
853.242	22869
853.376	22828
853.511	22736
853.645	22664
853.78	22828
853.914	22713
854.048	22611
854.183	22702
854.317	22683
854.451	22885
854.585	22653
854.72	22694
854.854	22748
854.988	22584
855.122	22641
855.256	22538
855.39	22744
855.524	22812
855.658	22809
855.792	22668
855.926	22706
856.06	22771
856.194	22672
856.327	22698
856.461	22573
856.595	22736
856.729	22569
856.862	22934
856.996	22889
857.13	22744
857.263	22793
857.397	22778
857.53	22736
857.664	22702
857.797	22683
857.931	22828
858.064	22782
858.197	22717
858.331	22554
858.464	22668
858.597	22637
858.731	22622
858.864	22679
858.997	22782
859.13	22637
859.263	22733
859.396	22801
859.529	22683
859.662	22782
859.795	22755
859.928	22729
860.061	22892
860.194	23018
860.327	22725
860.46	22831
860.592	22873
860.725	22869
860.858	22771
860.99	22763
861.123	22710
861.256	22721
861.388	22687
861.521	23334
861.653	22470
861.786	22523
861.918	22577
862.05	22584
862.183	22691
862.315	22584
862.447	22656
862.58	22527
862.712	22481
862.844	22424
862.976	22481
863.108	22413
863.24	22953
863.372	22322
863.504	22322
863.636	22318
863.768	22436
863.9	22417
864.032	22287
864.164	22485
864.296	22440
864.428	22615
864.559	22538
864.691	22428
864.823	22398
864.954	22516
865.086	22398
865.217	22306
865.349	22291
865.48	22314
865.612	22348
865.743	22371
865.875	22299
866.006	22215
866.137	22314
866.269	22196
866.4	22306
866.531	22329
866.662	22173
866.793	22246
866.924	22265
867.055	22363
867.186	22310
867.317	22196
867.448	22154
867.579	22166
867.71	22070
867.841	22185
867.972	22207
868.103	22181
868.233	22074
868.364	22306
868.495	22344
868.625	22382
868.756	22588
868.886	22379
869.017	22622
869.147	22569
869.278	22588
869.408	22455
869.539	22428
869.669	22538
869.799	22462
869.929	22725
870.06	22493
870.19	22759
870.32	22713
870.45	22801
870.58	22908
870.71	22961
870.84	22923
870.97	22733
871.1	22892
871.23	22980
871.36	23113
871.489	22885
871.619	23044
871.749	23064
871.879	23003
872.008	23117
872.138	23067
872.267	23086
872.397	22839
872.526	22873
872.656	22976
872.785	22839
872.915	23033
873.044	23364
873.173	23052
873.303	23098
873.432	23117
873.561	23132
873.69	23098
873.819	23140
873.948	23136
874.077	23022
874.206	22976
874.335	23083
874.464	23117
874.593	23193
874.722	23288
874.851	23250
874.979	23353
875.108	23239
875.237	23242
875.365	23071
875.494	23197
875.623	23307
875.751	23254
875.88	23288
876.008	23421
876.136	23535
876.265	23581
876.393	23752
876.521	23646
876.65	23874
876.778	23649
876.906	23722
877.034	23585
877.162	23695
877.29	23558
877.418	23585
877.546	23623
877.674	23585
877.802	23623
877.93	23680
878.058	23585
878.185	23551
878.313	23547
878.441	23710
878.568	23402
878.696	23539
878.824	23604
878.951	23687
879.079	23813
879.206	23813
879.333	23737
879.461	23764
879.588	23729
879.715	23767
879.842	23828
879.97	23722
880.097	23531
880.224	23383
880.351	23551
880.478	23414
880.605	23318
880.732	23425
880.859	23505
880.986	23425
881.112	23414
881.239	23288
881.366	23220
881.493	23083
881.619	22957
881.746	23098
881.872	23006
881.999	22934
882.125	22866
882.252	22961
882.378	22949
882.505	23121
882.631	22816
882.757	22706
882.883	22824
883.01	22698
883.136	22622
883.262	22500
883.388	22478
883.514	22596
883.64	22641
883.766	22596
883.892	22459
884.018	22390
884.143	22493
884.269	22809
884.395	22417
884.52	22154
884.646	22310
884.772	22306
884.897	22158
885.023	22325
885.148	22360
885.274	22371
885.399	22459
885.524	22303
885.65	22322
885.775	22299
885.9	22200
886.025	22318
886.15	22348
886.275	22242
886.4	22169
886.525	22234
886.65	22284
886.775	22246
886.9	22230
887.025	22405
887.149	22158
887.274	22029
887.399	22021
887.523	22158
887.648	22017
887.773	21968
887.897	22173
888.021	22109
888.146	22051
888.27	22097
888.395	22177
888.519	22067
888.643	22158
888.767	22105
888.891	21941
889.015	21778
889.139	21850
889.263	21827
889.387	21831
889.511	22006
889.635	22051
889.759	21717
889.883	21857
890.006	21789
890.13	21991
890.254	21838
890.377	21819
890.501	21576
890.624	21454
890.748	21656
890.871	21412
890.995	21283
891.118	21359
891.241	21393
891.364	21469
891.488	21485
891.611	21412
891.734	21454
891.857	21454
891.98	21469
892.103	21439
892.226	21367
892.349	21389
892.471	21287
892.594	21207
892.717	21344
892.839	21226
892.962	21454
893.085	21321
893.207	21291
893.33	21112
893.452	21169
893.575	21382
893.697	21195
893.819	21477
893.941	21386
894.064	21416
894.186	21142
894.308	21184
894.43	21408
894.552	21412
894.674	21298
894.796	21043
894.918	21245
895.04	21123
895.161	21431
895.283	21241
895.405	21287
895.526	21306
895.648	21180
895.769	21184
895.891	21146
896.012	21344
896.134	21302
896.255	21237
896.376	21207
896.498	21272
896.619	21211
896.74	21195
896.861	21233
896.982	21583
897.103	21622
897.224	21504
897.345	21469
897.466	21370
897.587	21511
897.708	21435
897.828	21481
897.949	21412
898.07	21268
898.19	21416
898.311	21599
898.431	21443
898.552	21412
898.672	21450
898.792	21435
898.913	21340
899.033	21325
899.153	21195
899.273	21119
899.393	21218
899.513	21146
899.633	21218
899.753	21256
899.873	21081
899.993	21237
900.113	21112
900.232	21184
900.352	21104
900.472	21001
900.591	20902
900.711	21058
900.83	20826
900.95	21009
901.069	21024
901.189	20792
901.308	20594
901.427	20564
901.546	20438
901.665	20499
901.784	20484
901.904	20206
902.023	20256
902.141	20073
902.26	20126
902.379	20073
902.498	20065
902.617	19967
902.735	20115
902.854	19963
902.973	19887
903.091	19662
903.21	19670
903.328	19639
903.446	19597
903.565	19472
903.683	19464
903.801	19415
903.919	19392
904.038	19434
904.156	19289
904.274	19343
904.392	19175
904.51	19198
904.627	19156
904.745	19293
904.863	19202
904.981	19031
905.098	18749
905.216	18954
905.334	18867
905.451	18901
905.569	18840
905.686	18909
905.803	18897
905.921	18654
906.038	18749
906.155	18673
906.272	18570
906.389	18623
906.506	18426
906.623	18388
906.74	18346
906.857	18239
906.974	18182
907.091	18551
907.208	18608
907.324	18585
907.441	18266
907.557	18220
907.674	18159
907.79	18117
907.907	18148
908.023	18060
908.139	18049
908.256	18034
908.372	17923
908.488	17946
908.604	17931
908.72	17741
908.836	17851
908.952	17718
909.068	17783
909.184	17965
909.3	17752
909.415	17874
909.531	17783
909.647	17524
909.762	17562
909.878	17486
909.993	17501
910.108	17516
910.224	17516
910.339	17467
910.454	17383
910.57	17360
910.685	17197
910.8	17448
910.915	17406
911.03	17292
911.145	17147
911.259	17067
911.374	17006
911.489	17025
911.604	16987
911.718	16812
911.833	16812
911.947	16736
912.062	16733
912.176	16820
912.291	16858
912.405	16908
912.519	17033
912.633	16968
912.748	16908
912.862	16805
912.976	16653
913.09	16668
913.204	16523
913.318	16546
913.431	16675
913.545	16816
913.659	16717
913.772	16558
913.886	16451
914	16367
914.113	16504
914.226	16531
914.34	16512
914.453	16306
914.566	16455
914.68	16219
914.793	16310
914.906	16029
915.019	16051
915.132	15911
915.245	16036
915.358	15892
915.47	16032
915.583	15941
915.696	16051
915.809	16093
915.921	16086
916.034	15941
916.146	15975
916.259	15892
916.371	16006
916.483	15937
916.595	15747
916.708	15861
916.82	15804
916.932	15732
917.044	15747
917.156	15747
917.268	15606
917.38	15618
917.491	15625
917.603	15625
917.715	15694
917.826	15625
917.938	15507
918.049	15511
918.161	15530
918.272	15724
918.384	15603
918.495	15599
918.606	15401
918.717	15264
918.828	15283
918.939	15397
919.05	15195
919.161	15336
919.272	15203
919.383	15176
919.494	15329
919.604	15568
919.715	15370
919.826	15287
919.936	15218
920.047	15351
920.157	15344
920.267	15469
920.378	15351
920.488	15268
920.598	15507
920.708	15618
920.818	15306
920.928	15393
921.038	15488
921.148	15538
921.258	15222
921.368	15150
921.477	15089
921.587	14986
921.697	14914
921.806	15074
921.916	14823
922.025	14697
922.134	14651
922.244	14594
922.353	14644
922.462	14590
922.571	14442
922.68	14324
922.789	14301
922.898	14358
923.007	14267
923.116	14370
923.224	14339
923.333	14267
923.442	14252
923.55	14119
923.659	14100
923.767	14199
923.876	14084
923.984	14016
924.092	14005
924.201	14065
924.309	14035
924.417	14031
924.525	14005
924.633	13928
924.741	14914
924.849	13662
924.956	13940
925.064	13803
925.172	13590
925.279	13700
925.387	13780
925.494	13537
925.602	13807
925.709	13719
925.816	13487
925.924	13597
926.031	13746
926.138	13666
926.245	13670
926.352	13464
926.459	13582
926.566	13708
926.673	13540
926.779	13411
926.886	13400
926.993	13285
927.099	13324
927.206	13202
927.312	13118
927.419	13228
927.525	13183
927.631	13232
927.737	13076
927.843	13019
927.95	12996
928.056	13034
928.162	13080
928.267	13080
928.373	13662
928.479	13057
928.585	12852
928.69	12882
928.796	13004
928.901	12852
929.007	12677
929.112	12852
929.218	12837
929.323	12700
929.428	12760
929.533	12844
929.638	12604
929.743	12597
929.848	12722
929.953	12677
930.058	12578
930.163	12403
930.267	12391
930.372	12475
930.477	12357
930.581	12467
930.685	12403
930.79	12251
930.894	12251
930.998	12178
931.103	12414
931.207	12007
931.311	11939
931.415	11874
931.519	11642
931.623	11611
