Data from test_V78500241_78.txt Node
Date: Fri Mar 25 15:42:20 CST 2022
User: usil
Spectrometer: V785-0024
Trigger mode: 0
Integration Time (sec): 4.000000E-1
Scans to average: 1
Nonlinearity correction enabled: false
Boxcar width: 0
Storing dark spectrum: false
XAxis mode: Wavelengths
Number of Pixels in Spectrum: 1024
>>>>>Begin Spectral Data<<<<<
801.071	30178
801.214	30072
801.356	29771
801.499	29699
801.641	29573
801.783	29501
801.926	29630
802.068	29520
802.211	29490
802.353	29421
802.496	29258
802.638	29178
802.78	29003
802.923	29151
803.065	29162
803.208	29155
803.35	29208
803.492	29353
803.635	29406
803.777	29242
803.919	29197
804.061	29684
804.204	29421
804.346	29212
804.488	29075
804.63	29208
804.773	29064
804.915	29288
805.057	29299
805.199	29136
805.341	29299
805.483	29341
805.626	29322
805.768	29379
805.91	29440
806.052	29425
806.194	29349
806.336	29562
806.478	29368
806.62	29326
806.762	29604
806.904	29562
807.046	29733
807.188	29862
807.33	29912
807.472	29726
807.614	29634
807.756	29737
807.898	29745
808.04	29600
808.182	29452
808.324	29619
808.465	29478
808.607	29684
808.749	29901
808.891	30015
809.033	30083
809.174	29992
809.316	30018
809.458	30022
809.6	29851
809.741	29988
809.883	30049
810.025	30102
810.166	30163
810.308	30148
810.45	30205
810.591	30136
810.733	29859
810.875	30018
811.016	29817
811.158	29737
811.299	30007
811.441	30167
811.582	30098
811.724	29836
811.865	30018
812.007	29813
812.148	29878
812.29	29916
812.431	30030
812.573	30228
812.714	30232
812.855	30429
812.997	30418
813.138	30654
813.279	30551
813.421	30426
813.562	30323
813.703	30213
813.845	30030
813.986	29817
814.127	29539
814.268	29482
814.41	29337
814.551	29379
814.692	29486
814.833	29417
814.974	29467
815.115	29482
815.256	29303
815.397	29220
815.539	29341
815.68	29284
815.821	29197
815.962	29200
816.103	29250
816.244	29067
816.385	28915
816.526	28888
816.666	28782
816.807	28698
816.948	28679
817.089	28809
817.23	28687
817.371	28630
817.512	28588
817.653	28535
817.793	28497
817.934	28603
818.075	28542
818.216	28660
818.356	28557
818.497	28295
818.638	28284
818.778	28356
818.919	28276
819.06	28230
819.2	28485
819.341	28580
819.481	28382
819.622	28554
819.762	28858
819.903	28691
820.043	28694
820.184	28565
820.324	28611
820.465	28706
820.605	28672
820.746	28630
820.886	28375
821.026	28455
821.167	28493
821.307	28694
821.447	28531
821.588	28242
821.728	28284
821.868	28101
822.008	27895
822.149	27892
822.289	27972
822.429	27599
822.569	27530
822.709	27545
822.849	27454
822.99	27348
823.13	27370
823.27	27146
823.41	27173
823.55	27154
823.69	27176
823.83	27214
823.97	27074
824.11	26940
824.25	26762
824.389	26967
824.529	27070
824.669	26952
824.809	26910
824.949	27100
825.089	27085
825.228	27039
825.368	26842
825.508	26792
825.648	26792
825.787	26648
825.927	26853
826.067	26762
826.206	26724
826.346	26823
826.485	26743
826.625	26861
826.765	26853
826.904	26655
827.044	26511
827.183	26370
827.323	26377
827.462	26427
827.601	26412
827.741	26324
827.88	26507
828.02	26248
828.159	26427
828.298	26351
828.437	26480
828.577	26309
828.716	26461
828.855	26370
828.994	26100
829.134	26103
829.273	26069
829.412	26092
829.551	25959
829.69	26088
829.829	26069
829.968	26050
830.107	26103
830.246	26005
830.385	26092
830.524	25917
830.663	25830
830.802	25601
830.941	25712
831.08	25552
831.219	25723
831.357	25753
831.496	25818
831.635	25563
831.774	25411
831.913	25384
832.051	25362
832.19	25346
832.329	25438
832.467	25278
832.606	25069
832.744	25103
832.883	25266
833.022	25198
833.16	25145
833.299	25122
833.437	25274
833.576	25240
833.714	25251
833.852	25388
833.991	25209
834.129	25324
834.267	25236
834.406	25282
834.544	25312
834.682	25217
834.821	25042
834.959	25331
835.097	25110
835.235	25152
835.373	25308
835.511	25179
835.65	25027
835.788	24989
835.926	24928
836.064	24840
836.202	24916
836.34	24943
836.478	24939
836.615	24973
836.753	25091
836.891	25027
837.029	25042
837.167	24901
837.305	24981
837.443	24977
837.58	24749
837.718	24916
837.856	25012
837.993	24798
838.131	24810
838.269	24642
838.406	24734
838.544	24604
838.681	24433
838.819	24471
838.956	24182
839.094	24129
839.231	24391
839.369	24296
839.506	24681
839.643	24460
839.781	24224
839.918	24232
840.055	24323
840.193	24254
840.33	24136
840.467	23992
840.604	24144
840.742	24517
840.879	23984
841.016	23992
841.153	23973
841.29	24148
841.427	24049
841.564	24133
841.701	24125
841.838	23935
841.975	23954
842.112	23999
842.249	23874
842.385	23707
842.522	23927
842.659	23813
842.796	23707
842.933	23813
843.069	23733
843.206	23630
843.343	23798
843.479	23775
843.616	23756
843.752	23566
843.889	23520
844.025	23653
844.162	23463
844.298	23638
844.435	23372
844.571	23440
844.708	23421
844.844	23646
844.98	23714
845.117	23573
845.253	23364
845.389	23406
845.525	23292
845.661	23433
845.798	23311
845.934	23189
846.07	23029
846.206	23193
846.342	23220
846.478	23124
846.614	22915
846.75	22904
846.886	22801
847.022	23086
847.158	22927
847.294	22942
847.429	22946
847.565	22763
847.701	23113
847.837	22561
847.972	22561
848.108	22725
848.244	22649
848.379	22508
848.515	22618
848.65	22382
848.786	22535
848.921	22421
849.057	22489
849.192	22557
849.328	22462
849.463	22481
849.598	22318
849.734	22284
849.869	22348
850.004	22226
850.14	22207
850.275	22124
850.41	22032
850.545	22143
850.68	22139
850.815	22181
850.95	22158
851.085	22348
851.22	22314
851.355	22299
851.49	22029
851.625	22192
851.76	22124
851.895	22025
852.03	21926
852.165	22154
852.299	22272
852.434	22230
852.569	22124
852.703	22166
852.838	22230
852.973	22344
853.107	22268
853.242	22207
853.376	22055
853.511	21922
853.645	22002
853.78	22059
853.914	21846
854.048	21861
854.183	22013
854.317	21926
854.451	22093
854.585	21953
854.72	21873
854.854	22017
854.988	21857
855.122	21899
855.256	21793
855.39	21994
855.524	22044
855.658	22048
855.792	21930
855.926	21930
856.06	22029
856.194	22116
856.327	21915
856.461	21842
856.595	21922
856.729	21888
856.862	22025
856.996	21876
857.13	22109
857.263	21964
857.397	21854
857.53	21949
857.664	21930
857.797	22082
857.931	22032
858.064	21960
858.197	22032
858.331	21812
858.464	21861
858.597	21770
858.731	21899
858.864	21781
858.997	21873
859.13	21907
859.263	21972
859.396	21842
859.529	21861
859.662	21812
859.795	21865
859.928	21766
860.061	21991
860.194	22010
860.327	21823
860.46	21789
860.592	21956
860.725	21930
860.858	21926
860.99	21778
861.123	21667
861.256	21728
861.388	21762
861.521	22447
861.653	21808
861.786	21739
861.918	21652
862.05	21899
862.183	22017
862.315	21949
862.447	21979
862.58	21865
862.712	21610
862.844	21682
862.976	21656
863.108	21660
863.24	21861
863.372	21424
863.504	21526
863.636	21481
863.768	21530
863.9	21538
864.032	21408
864.164	21466
864.296	21477
864.428	21644
864.559	21652
864.691	21553
864.823	21466
864.954	21576
865.086	21397
865.217	21443
865.349	21363
865.48	21386
865.612	21454
865.743	21568
865.875	21382
866.006	21382
866.137	21466
866.269	21424
866.4	21473
866.531	21378
866.662	21374
866.793	21249
866.924	21348
867.055	21329
867.186	21344
867.317	21283
867.448	21214
867.579	21424
867.71	21233
867.841	21222
867.972	21378
868.103	21294
868.233	21389
868.364	21279
868.495	21458
868.625	21526
868.756	21656
868.886	21549
869.017	21466
869.147	21644
869.278	21587
869.408	21690
869.539	21568
869.669	21587
869.799	21564
869.929	21614
870.06	21648
870.19	21831
870.32	21823
870.45	21865
870.58	22002
870.71	22055
870.84	21854
870.97	22048
871.1	21876
871.23	22097
871.36	22147
871.489	22120
871.619	22150
871.749	22063
871.879	22169
872.008	22261
872.138	22147
872.267	22074
872.397	22078
872.526	22013
872.656	22112
872.785	21987
872.915	22051
873.044	22215
873.173	22063
873.303	22185
873.432	22238
873.561	22238
873.69	22177
873.819	22120
873.948	22261
874.077	22253
874.206	22131
874.335	22207
874.464	22341
874.593	22371
874.722	22295
874.851	22394
874.979	22519
875.108	22470
875.237	22413
875.365	22341
875.494	22390
875.623	22440
875.751	22405
875.88	22382
876.008	22580
876.136	22557
876.265	22805
876.393	22904
876.521	22790
876.65	22877
876.778	22752
876.906	22660
877.034	22603
877.162	22934
877.29	22786
877.418	22858
877.546	22812
877.674	22809
877.802	22729
877.93	22805
878.058	22668
878.185	22557
878.313	22668
878.441	22748
878.568	22592
878.696	22755
878.824	22713
878.951	22839
879.079	22923
879.206	23044
879.333	23041
879.461	22801
879.588	22809
879.715	22881
879.842	22995
879.97	22763
880.097	22516
880.224	22500
880.351	22618
880.478	22550
880.605	22421
880.732	22592
880.859	22736
880.986	22554
881.112	22645
881.239	22554
881.366	22291
881.493	22337
881.619	22143
881.746	22200
881.872	22181
881.999	22158
882.125	22109
882.252	22131
882.378	22063
882.505	22219
882.631	22120
882.757	21934
882.883	21895
883.01	21797
883.136	21835
883.262	21778
883.388	21720
883.514	21800
883.64	21934
883.766	21804
883.892	21660
884.018	21739
884.143	21793
884.269	21793
884.395	21515
884.52	21443
884.646	21515
884.772	21450
884.897	21405
885.023	21561
885.148	21572
885.274	21682
885.399	21614
885.524	21469
885.65	21469
885.775	21420
885.9	21275
886.025	21622
886.15	21549
886.275	21344
886.4	21458
886.525	21332
886.65	21420
886.775	21359
886.9	21599
887.025	21656
887.149	21393
887.274	21298
887.399	21237
887.523	21241
887.648	21188
887.773	21096
887.897	21226
888.021	21302
888.146	21154
888.27	21237
888.395	21211
888.519	21203
888.643	21142
888.767	21203
888.891	21047
889.015	20929
889.139	21074
889.263	21005
889.387	21119
889.511	21047
889.635	20933
889.759	20921
889.883	20918
890.006	21043
890.13	21005
890.254	20948
890.377	20963
890.501	20796
890.624	20735
890.748	20735
890.871	20568
890.995	20488
891.118	20530
891.241	20552
891.364	20499
891.488	20655
891.611	20484
891.734	20537
891.857	20492
891.98	20579
892.103	20579
892.226	20495
892.349	20575
892.471	20404
892.594	20518
892.717	20457
892.839	20514
892.962	20488
893.085	20533
893.207	20530
893.33	20476
893.452	20423
893.575	20530
893.697	20351
893.819	20499
893.941	20716
894.064	20549
894.186	20442
894.308	20412
894.43	20530
894.552	20606
894.674	20625
894.796	20476
894.918	20408
895.04	20366
895.161	20514
895.283	20541
895.405	20381
895.526	20488
895.648	20419
895.769	20522
895.891	20434
896.012	20492
896.134	20549
896.255	20522
896.376	20446
896.498	20492
896.619	20549
896.74	20434
896.861	20560
896.982	20952
897.103	21055
897.224	20845
897.345	20594
897.466	20560
897.587	20686
897.708	20834
897.828	20705
897.949	20609
898.07	20571
898.19	20667
898.311	20712
898.431	20629
898.552	20575
898.672	20769
898.792	20667
898.913	20648
899.033	20393
899.153	20442
899.273	20358
899.393	20305
899.513	20396
899.633	20404
899.753	20438
899.873	20248
899.993	20446
900.113	20298
900.232	20301
900.352	20145
900.472	20130
900.591	19959
900.711	20168
900.83	20111
900.95	20240
901.069	20225
901.189	19986
901.308	19845
901.427	19738
901.546	19708
901.665	19601
901.784	19715
901.904	19685
902.023	19346
902.141	19308
902.26	19156
902.379	19324
902.498	19145
902.617	19171
902.735	19278
902.854	19156
902.973	19126
903.091	18939
903.21	18795
903.328	18863
903.446	18768
903.565	18601
903.683	18650
903.801	18426
903.919	18688
904.038	18483
904.156	18471
904.274	18460
904.392	18506
904.51	18372
904.627	18315
904.745	18437
904.863	18479
904.981	18163
905.098	18155
905.216	18026
905.334	18125
905.451	18110
905.569	18148
905.686	18079
905.803	18079
905.921	17859
906.038	18007
906.155	17904
906.272	17794
906.389	17771
906.506	17680
906.623	17520
906.74	17493
906.857	17520
906.974	17425
907.091	17551
907.208	17756
907.324	17573
907.441	17387
907.557	17356
907.674	17322
907.79	17181
907.907	17239
908.023	17299
908.139	17212
908.256	17265
908.372	17121
908.488	17071
908.604	17029
908.72	16892
908.836	17018
908.952	16930
909.068	16877
909.184	17045
909.3	16968
909.415	17037
909.531	16949
909.647	16637
909.762	16641
909.878	16542
909.993	16774
910.108	16512
910.224	16542
910.339	16706
910.454	16504
910.57	16386
910.685	16386
910.8	16649
910.915	16592
911.03	16421
911.145	16204
911.259	16295
911.374	16181
911.489	16112
911.604	16124
911.718	16048
911.833	15941
911.947	15922
912.062	15770
912.176	15998
912.291	15987
912.405	16040
912.519	16150
912.633	16097
912.748	15983
912.862	15945
912.976	15690
913.09	15599
913.204	15751
913.318	15770
913.431	15861
913.545	15838
913.659	15819
913.772	15732
913.886	15606
914	15481
914.113	15724
914.226	15690
914.34	15545
914.453	15477
914.566	15530
914.68	15439
914.793	15458
914.906	15298
915.019	15173
915.132	15199
915.245	15211
915.358	15237
915.47	15165
915.583	15176
915.696	15127
915.809	15291
915.921	15340
916.034	15154
916.146	15013
916.259	15032
916.371	15112
916.483	15165
916.595	14933
916.708	15058
916.82	14982
916.932	14979
917.044	14872
917.156	14921
917.268	14891
917.38	14921
917.491	14746
917.603	14834
917.715	14872
917.826	14838
917.938	14746
918.049	14590
918.161	14712
918.272	14857
918.384	14933
918.495	14644
918.606	14602
918.717	14450
918.828	14518
918.939	14541
919.05	14476
919.161	14461
919.272	14313
919.383	14377
919.494	14469
919.604	14629
919.715	14400
919.826	14415
919.936	14434
920.047	14552
920.157	14507
920.267	14617
920.378	14431
920.488	14377
920.598	14610
920.708	14781
920.818	14579
920.928	14613
921.038	14792
921.148	14724
921.258	14377
921.368	14408
921.477	14191
921.587	14218
921.697	14100
921.806	14183
921.916	14073
922.025	13837
922.134	13830
922.244	13944
922.353	13951
922.462	13776
922.571	13605
922.68	13518
922.789	13445
922.898	13407
923.007	13411
923.116	13445
923.224	13487
923.333	13422
923.442	13400
923.55	13247
923.659	13266
923.767	13411
923.876	13297
923.984	13255
924.092	13202
924.201	13270
924.309	13255
924.417	13133
924.525	13164
924.633	13171
924.741	14012
924.849	12863
924.956	13000
925.064	12943
925.172	12829
925.279	12939
925.387	12871
925.494	12867
925.602	13046
925.709	12924
925.816	12856
925.924	12806
926.031	12970
926.138	12798
926.245	12871
926.352	12711
926.459	12852
926.566	12928
926.673	12719
926.779	12589
926.886	12662
926.993	12483
927.099	12517
927.206	12448
927.312	12296
927.419	12494
927.525	12452
927.631	12532
927.737	12342
927.843	12353
927.95	12152
928.056	12251
928.162	12270
928.267	12304
928.373	12935
928.479	12311
928.585	12121
928.69	12266
928.796	12251
928.901	12106
929.007	11851
929.112	12133
929.218	11980
929.323	12064
929.428	11977
929.533	12117
929.638	11973
929.743	11935
929.848	12019
929.953	11980
930.058	11870
930.163	11752
930.267	11649
930.372	11771
930.477	11592
930.581	11866
930.685	11688
930.79	11512
930.894	11558
930.998	11452
931.103	11668
931.207	11273
931.311	11208
931.415	11045
931.519	10862
931.623	10843
