Data from test_V78500241_3312.txt Node
Date: Fri Mar 25 16:04:44 CST 2022
User: usil
Spectrometer: V785-0024
Trigger mode: 0
Integration Time (sec): 4.000000E-1
Scans to average: 1
Nonlinearity correction enabled: false
Boxcar width: 0
Storing dark spectrum: false
XAxis mode: Wavelengths
Number of Pixels in Spectrum: 1024
>>>>>Begin Spectral Data<<<<<
801.071	28664
801.214	28824
801.356	28500
801.499	28489
801.641	28310
801.783	28363
801.926	28413
802.068	28276
802.211	28265
802.353	28253
802.496	27918
802.638	28044
802.78	27987
802.923	27892
803.065	27903
803.208	28120
803.35	28017
803.492	28143
803.635	28120
803.777	28135
803.919	28280
804.061	28455
804.204	28360
804.346	28268
804.488	28112
804.63	28246
804.773	28109
804.915	28333
805.057	28341
805.199	28261
805.341	28382
805.483	28478
805.626	28303
805.768	28341
805.91	28409
806.052	28440
806.194	28455
806.336	28599
806.478	28447
806.62	28569
806.762	28550
806.904	28725
807.046	29143
807.188	28759
807.33	28908
807.472	28908
807.614	28934
807.756	28866
807.898	28668
808.04	28706
808.182	28729
808.324	28664
808.465	28729
808.607	28968
808.749	29208
808.891	29223
809.033	29303
809.174	29265
809.316	29132
809.458	28927
809.6	29117
809.741	29075
809.883	29296
810.025	29387
810.166	29467
810.308	29322
810.45	29223
810.591	29227
810.733	29277
810.875	29090
811.016	29136
811.158	28938
811.299	29105
811.441	29246
811.582	29372
811.724	29235
811.865	29147
812.007	29269
812.148	29193
812.29	29372
812.431	29330
812.573	29303
812.714	29505
812.855	29760
812.997	29657
813.138	29824
813.279	29764
813.421	29741
813.562	29592
813.703	29330
813.845	29307
813.986	29025
814.127	28904
814.268	28862
814.41	29018
814.551	28835
814.692	28930
814.833	28820
814.974	28809
815.115	29003
815.256	28706
815.397	28801
815.539	28782
815.68	28683
815.821	28596
815.962	28660
816.103	28672
816.244	28504
816.385	28436
816.526	28497
816.666	28211
816.807	28200
816.948	28257
817.089	28325
817.23	28181
817.371	28120
817.512	28055
817.653	28150
817.793	28109
817.934	28109
818.075	28181
818.216	28112
818.356	28090
818.497	28055
818.638	27934
818.778	27979
818.919	27956
819.06	27953
819.2	28070
819.341	28078
819.481	28169
819.622	28428
819.762	28607
819.903	28413
820.043	28295
820.184	28382
820.324	28276
820.465	28276
820.605	28234
820.746	28344
820.886	28150
821.026	28303
821.167	28242
821.307	28348
821.447	28249
821.588	28082
821.728	28044
821.868	27937
822.008	27591
822.149	27793
822.289	27717
822.429	27389
822.569	27264
822.709	27230
822.849	27218
822.99	27192
823.13	27085
823.27	27138
823.41	26967
823.55	26834
823.69	26868
823.83	26906
823.97	26994
824.11	26800
824.25	26880
824.389	26651
824.529	26979
824.669	26781
824.809	27096
824.949	26952
825.089	26921
825.228	26807
825.368	26716
825.508	26609
825.648	26697
825.787	26667
825.927	26750
826.067	26648
826.206	26503
826.346	26712
826.485	26682
826.625	26651
826.765	26921
826.904	26724
827.044	26393
827.183	26446
827.323	26336
827.462	26511
827.601	26469
827.741	26328
827.88	26514
828.02	26358
828.159	26370
828.298	26404
828.437	26427
828.577	26336
828.716	26415
828.855	26252
828.994	26020
829.134	26062
829.273	26084
829.412	26008
829.551	26100
829.69	25982
829.829	26168
829.968	26275
830.107	26142
830.246	26149
830.385	26046
830.524	25909
830.663	25917
830.802	25704
830.941	25719
831.08	25651
831.219	25788
831.357	25643
831.496	25982
831.635	25681
831.774	25632
831.913	25521
832.051	25464
832.19	25464
832.329	25624
832.467	25350
832.606	25411
832.744	25400
832.883	25335
833.022	25384
833.16	25430
833.299	25350
833.437	25438
833.576	25457
833.714	25510
833.852	25529
833.991	25575
834.129	25506
834.267	25647
834.406	25441
834.544	25426
834.682	25628
834.821	25373
834.959	25666
835.097	25392
835.235	25373
835.373	25415
835.511	25373
835.65	25240
835.788	25479
835.926	25183
836.064	24992
836.202	25183
836.34	25263
836.478	25422
836.615	25206
836.753	25183
836.891	25312
837.029	25156
837.167	25183
837.305	25289
837.443	25103
837.58	25023
837.718	25156
837.856	25209
837.993	24947
838.131	25129
838.269	24992
838.406	24981
838.544	24977
838.681	24791
838.819	24791
838.956	24631
839.094	24673
839.231	24646
839.369	24787
839.506	24875
839.643	24802
839.781	24467
839.918	24460
840.055	24574
840.193	24448
840.33	24441
840.467	24517
840.604	24559
840.742	24772
840.879	24346
841.016	24308
841.153	24311
841.29	24642
841.427	24300
841.564	24414
841.701	24426
841.838	24311
841.975	24422
842.112	24266
842.249	24289
842.385	24201
842.522	24486
842.659	24311
842.796	24045
842.933	24361
843.069	24220
843.206	24262
843.343	24254
843.479	24148
843.616	24110
843.752	24030
843.889	23988
844.025	24041
844.162	23889
844.298	24102
844.435	23908
844.571	23878
844.708	24049
844.844	24034
844.98	24110
845.117	24072
845.253	23939
845.389	23821
845.525	23927
845.661	23813
845.798	23722
845.934	23684
846.07	23722
846.206	23733
846.342	23847
846.478	23752
846.614	23474
846.75	23433
846.886	23528
847.022	23391
847.158	23471
847.294	23478
847.429	23417
847.565	23421
847.701	23657
847.837	23227
847.972	23151
848.108	23269
848.244	23204
848.379	22980
848.515	23044
848.65	22911
848.786	23025
848.921	23029
849.057	23166
849.192	23102
849.328	23010
849.463	23143
849.598	22869
849.734	22995
849.869	22991
850.004	22835
850.14	22854
850.275	22805
850.41	22744
850.545	22771
850.68	22843
850.815	22820
850.95	22694
851.085	22896
851.22	22976
851.355	22793
851.49	22828
851.625	22687
851.76	22679
851.895	22694
852.03	22611
852.165	22793
852.299	22858
852.434	22828
852.569	22793
852.703	22790
852.838	22858
852.973	22984
853.107	22965
853.242	22713
853.376	22634
853.511	22440
853.645	22599
853.78	22774
853.914	22584
854.048	22500
854.183	22664
854.317	22672
854.451	22744
854.585	22599
854.72	22645
854.854	22664
854.988	22607
855.122	22557
855.256	22569
855.39	22580
855.524	22675
855.658	22733
855.792	22538
855.926	22618
856.06	22615
856.194	22774
856.327	22546
856.461	22504
856.595	22436
856.729	22542
856.862	22637
856.996	22717
857.13	22626
857.263	22831
857.397	22706
857.53	22580
857.664	22599
857.797	22668
857.931	22797
858.064	22641
858.197	22698
858.331	22592
858.464	22504
858.597	22550
858.731	22694
858.864	22542
858.997	22512
859.13	22603
859.263	22550
859.396	22687
859.529	22538
859.662	22592
859.795	22660
859.928	22538
860.061	22721
860.194	22812
860.327	22778
860.46	22607
860.592	22691
860.725	22797
860.858	22706
860.99	22527
861.123	22599
861.256	22535
861.388	22630
861.521	23364
861.653	22424
861.786	22303
861.918	22443
862.05	22538
862.183	22516
862.315	22447
862.447	22550
862.58	22554
862.712	22287
862.844	22249
862.976	22398
863.108	22367
863.24	22736
863.372	22333
863.504	22417
863.636	22314
863.768	22310
863.9	22375
864.032	22386
864.164	22211
864.296	22333
864.428	22413
864.559	22352
864.691	22268
864.823	22375
864.954	22272
865.086	22261
865.217	22169
865.349	22116
865.48	22192
865.612	22070
865.743	22226
865.875	22188
866.006	22162
866.137	22154
866.269	22173
866.4	22246
866.531	22105
866.662	22128
866.793	22082
866.924	22086
867.055	22192
867.186	22135
867.317	22166
867.448	21979
867.579	22067
867.71	22029
867.841	22002
867.972	22192
868.103	22101
868.233	22185
868.364	22112
868.495	22318
868.625	22390
868.756	22451
868.886	22344
869.017	22234
869.147	22413
869.278	22557
869.408	22371
869.539	22405
869.669	22451
869.799	22443
869.929	22428
870.06	22542
870.19	22615
870.32	22660
870.45	22675
870.58	22733
870.71	22968
870.84	22892
870.97	22862
871.1	22744
871.23	22980
871.36	23014
871.489	22881
871.619	22831
871.749	23010
871.879	23025
872.008	23197
872.138	23029
872.267	22976
872.397	22938
872.526	22831
872.656	22748
872.785	22858
872.915	23029
873.044	23010
873.173	22957
873.303	23159
873.432	23113
873.561	23140
873.69	23041
873.819	23025
873.948	23060
874.077	23109
874.206	22927
874.335	23094
874.464	23075
874.593	23185
874.722	23330
874.851	23105
874.979	23212
875.108	23334
875.237	23181
875.365	23155
875.494	23185
875.623	23242
875.751	23242
875.88	23284
876.008	23398
876.136	23360
876.265	23668
876.393	23718
876.521	23703
876.65	23737
876.778	23573
876.906	23680
877.034	23486
877.162	23589
877.29	23482
877.418	23623
877.546	23528
877.674	23600
877.802	23509
877.93	23623
878.058	23535
878.185	23478
878.313	23535
878.441	23646
878.568	23410
878.696	23414
878.824	23615
878.951	23554
879.079	23767
879.206	23847
879.333	23783
879.461	23566
879.588	23657
879.715	23897
879.842	23843
879.97	23608
880.097	23482
880.224	23425
880.351	23391
880.478	23315
880.605	23334
880.732	23463
880.859	23687
880.986	23216
881.112	23372
881.239	23368
881.366	23056
881.493	23090
881.619	22908
881.746	22908
881.872	22938
881.999	22885
882.125	22885
882.252	22995
882.378	22752
882.505	22911
882.631	22816
882.757	22603
882.883	22805
883.01	22687
883.136	22516
883.262	22542
883.388	22409
883.514	22561
883.64	22630
883.766	22603
883.892	22284
884.018	22470
884.143	22542
884.269	22615
884.395	22333
884.52	22242
884.646	22356
884.772	22158
884.897	22154
885.023	22375
885.148	22341
885.274	22341
885.399	22371
885.524	22238
885.65	22268
885.775	22310
885.9	22139
886.025	22344
886.15	22371
886.275	22192
886.4	22120
886.525	22196
886.65	22200
886.775	22063
886.9	22367
887.025	22329
887.149	22169
887.274	22063
887.399	22006
887.523	22006
887.648	21911
887.773	21888
887.897	22029
888.021	21930
888.146	22078
888.27	22097
888.395	22002
888.519	22051
888.643	22002
888.767	22105
888.891	21915
889.015	21819
889.139	21835
889.263	21732
889.387	21835
889.511	22021
889.635	21930
889.759	21785
889.883	21701
890.006	21831
890.13	21930
890.254	21717
890.377	21774
890.501	21504
890.624	21405
890.748	21545
890.871	21420
890.995	21298
891.118	21325
891.241	21340
891.364	21351
891.488	21553
891.611	21355
891.734	21386
891.857	21386
891.98	21386
892.103	21416
892.226	21405
892.349	21279
892.471	21214
892.594	21214
892.717	21245
892.839	21112
892.962	21169
893.085	21294
893.207	21252
893.33	21096
893.452	21100
893.575	21188
893.697	21291
893.819	21447
893.941	21348
894.064	21325
894.186	21317
894.308	21180
894.43	21332
894.552	21275
894.674	21275
894.796	21165
894.918	21249
895.04	21222
895.161	21268
895.283	21294
895.405	21127
895.526	21233
895.648	21169
895.769	21298
895.891	21279
896.012	21272
896.134	21454
896.255	21272
896.376	21195
896.498	21291
896.619	21340
896.74	21195
896.861	21313
896.982	21492
897.103	21648
897.224	21488
897.345	21393
897.466	21329
897.587	21485
897.708	21477
897.828	21321
897.949	21313
898.07	21233
898.19	21401
898.311	21382
898.431	21310
898.552	21359
898.672	21488
898.792	21481
898.913	21329
899.033	21298
899.153	21188
899.273	21024
899.393	21138
899.513	21222
899.633	21192
899.753	21085
899.873	21093
899.993	21249
900.113	21036
900.232	21119
900.352	21055
900.472	20982
900.591	20952
900.711	20921
900.83	20811
900.95	20956
901.069	20944
901.189	20716
901.308	20556
901.427	20313
901.546	20336
901.665	20507
901.784	20446
901.904	20339
902.023	20195
902.141	19986
902.26	19986
902.379	20142
902.498	20024
902.617	19947
902.735	20096
902.854	19993
902.973	19925
903.091	19647
903.21	19567
903.328	19643
903.446	19415
903.565	19426
903.683	19460
903.801	19228
903.919	19335
904.038	19316
904.156	19259
904.274	19244
904.392	19202
904.51	19194
904.627	19114
904.745	19133
904.863	19164
904.981	19065
905.098	18916
905.216	18958
905.334	18924
905.451	18932
905.569	18745
905.686	18837
905.803	18837
905.921	18620
906.038	18566
906.155	18612
906.272	18460
906.389	18441
906.506	18391
906.623	18445
906.74	18346
906.857	18247
906.974	18342
907.091	18437
907.208	18475
907.324	18479
907.441	18216
907.557	18129
907.674	18133
907.79	18053
907.907	18064
908.023	18007
908.139	18155
908.256	17946
908.372	17965
908.488	17942
908.604	17741
908.72	17805
908.836	17821
908.952	17634
909.068	17771
909.184	17973
909.3	17824
909.415	17760
909.531	17752
909.647	17516
909.762	17452
909.878	17425
909.993	17455
910.108	17429
910.224	17379
910.339	17402
910.454	17379
910.57	17356
910.685	17140
910.8	17570
910.915	17391
911.03	17227
911.145	17022
911.259	17143
911.374	17102
911.489	17010
911.604	17003
911.718	16771
911.833	16812
911.947	16694
912.062	16710
912.176	16831
912.291	16896
912.405	16759
912.519	16957
912.633	16999
912.748	16908
912.862	16721
912.976	16569
913.09	16421
913.204	16706
913.318	16615
913.431	16717
913.545	16740
913.659	16679
913.772	16550
913.886	16485
914	16325
914.113	16519
914.226	16489
914.34	16402
914.453	16318
914.566	16398
914.68	16246
914.793	16188
914.906	16086
915.019	15926
915.132	16010
915.245	15972
915.358	16025
915.47	15945
915.583	15956
915.696	15949
915.809	16036
915.921	16200
916.034	15953
916.146	15911
916.259	15884
916.371	15960
916.483	15873
916.595	15831
916.708	15766
916.82	15713
916.932	15743
917.044	15755
917.156	15732
917.268	15572
917.38	15644
917.491	15549
917.603	15557
917.715	15618
917.826	15656
917.938	15538
918.049	15412
918.161	15515
918.272	15698
918.384	15644
918.495	15584
918.606	15382
918.717	15249
918.828	15389
918.939	15431
919.05	15359
919.161	15302
919.272	15119
919.383	15112
919.494	15233
919.604	15553
919.715	15393
919.826	15218
919.936	15306
920.047	15279
920.157	15287
920.267	15447
920.378	15325
920.488	15245
920.598	15359
920.708	15534
920.818	15473
920.928	15382
921.038	15625
921.148	15504
921.258	15252
921.368	15070
921.477	15032
921.587	14982
921.697	14792
921.806	15097
921.916	14830
922.025	14621
922.134	14697
922.244	14613
922.353	14674
922.462	14480
922.571	14541
922.68	14385
922.789	14298
922.898	14263
923.007	14271
923.116	14317
923.224	14161
923.333	14218
923.442	14096
923.55	14096
923.659	14126
923.767	14168
923.876	13967
923.984	14130
924.092	13932
924.201	14035
924.309	13978
924.417	13944
924.525	13921
924.633	13944
924.741	14853
924.849	13750
924.956	13875
925.064	13715
925.172	13636
925.279	13605
925.387	13674
925.494	13613
925.602	13746
925.709	13769
925.816	13567
925.924	13556
926.031	13719
926.138	13571
926.245	13685
926.352	13556
926.459	13578
926.566	13533
926.673	13468
926.779	13354
926.886	13327
926.993	13304
927.099	13270
927.206	13190
927.312	13088
927.419	13168
927.525	13164
927.631	13156
927.737	13103
927.843	12951
927.95	12928
928.056	13000
928.162	13015
928.267	13061
928.373	13575
928.479	13065
928.585	12875
928.69	12897
928.796	12935
928.901	12905
929.007	12707
929.112	12859
929.218	12798
929.323	12802
929.428	12646
929.533	12802
929.638	12616
929.743	12730
929.848	12608
929.953	12601
930.058	12540
930.163	12342
930.267	12308
930.372	12551
930.477	12338
930.581	12570
930.685	12395
930.79	12258
930.894	12247
930.998	12262
931.103	12399
931.207	12041
931.311	11912
931.415	11851
931.519	11665
931.623	11577
