Data from test_V78500241_2990.txt Node
Date: Fri Mar 25 16:02:30 CST 2022
User: usil
Spectrometer: V785-0024
Trigger mode: 0
Integration Time (sec): 4.000000E-1
Scans to average: 1
Nonlinearity correction enabled: false
Boxcar width: 0
Storing dark spectrum: false
XAxis mode: Wavelengths
Number of Pixels in Spectrum: 1024
>>>>>Begin Spectral Data<<<<<
801.071	28683
801.214	28538
801.356	28451
801.499	28382
801.641	28253
801.783	28257
801.926	28360
802.068	28314
802.211	28238
802.353	28010
802.496	28082
802.638	27884
802.78	27937
802.923	27888
803.065	27926
803.208	27953
803.35	28090
803.492	28242
803.635	28173
803.777	28032
803.919	28234
804.061	28538
804.204	28287
804.346	28162
804.488	28261
804.63	28147
804.773	28120
804.915	28348
805.057	28360
805.199	28120
805.341	28272
805.483	28318
805.626	28390
805.768	28226
805.91	28363
806.052	28531
806.194	28303
806.336	28561
806.478	28394
806.62	28360
806.762	28474
806.904	28683
807.046	28881
807.188	28774
807.33	28843
807.472	28949
807.614	28805
807.756	28759
807.898	28607
808.04	28523
808.182	28653
808.324	28637
808.465	28717
808.607	28934
808.749	29098
808.891	29178
809.033	29117
809.174	29029
809.316	28999
809.458	29090
809.6	29025
809.741	29140
809.883	29181
810.025	29406
810.166	29334
810.308	29318
810.45	29258
810.591	29292
810.733	29117
810.875	28991
811.016	29079
811.158	29083
811.299	29197
811.441	29239
811.582	29151
811.724	29048
811.865	28976
812.007	29140
812.148	29044
812.29	29132
812.431	29296
812.573	29406
812.714	29478
812.855	29623
812.997	29775
813.138	29649
813.279	29764
813.421	29638
813.562	29528
813.703	29520
813.845	29292
813.986	29018
814.127	28793
814.268	28793
814.41	28759
814.551	28831
814.692	28748
814.833	28702
814.974	28733
815.115	28710
815.256	28698
815.397	28630
815.539	28634
815.68	28569
815.821	28512
815.962	28588
816.103	28584
816.244	28538
816.385	28371
816.526	28409
816.666	28207
816.807	28029
816.948	28017
817.089	28303
817.23	28169
817.371	28093
817.512	27979
817.653	28086
817.793	28067
817.934	28017
818.075	28131
818.216	28124
818.356	28116
818.497	28131
818.638	27850
818.778	27747
818.919	27812
819.06	27880
819.2	28006
819.341	28112
819.481	28002
819.622	28299
819.762	28508
819.903	28253
820.043	28268
820.184	28238
820.324	28226
820.465	28177
820.605	28242
820.746	28226
820.886	28135
821.026	28162
821.167	28059
821.307	28219
821.447	28139
821.588	28090
821.728	27888
821.868	27854
822.008	27507
822.149	27724
822.289	27561
822.429	27370
822.569	27481
822.709	27264
822.849	27123
822.99	27184
823.13	27070
823.27	27070
823.41	26864
823.55	27001
823.69	26876
823.83	26910
823.97	27009
824.11	26640
824.25	26667
824.389	26705
824.529	26868
824.669	26750
824.809	26944
824.949	26880
825.089	26910
825.228	26937
825.368	26625
825.508	26648
825.648	26579
825.787	26754
825.927	26693
826.067	26629
826.206	26613
826.346	26667
826.485	26762
826.625	26686
826.765	26811
826.904	26811
827.044	26480
827.183	26549
827.323	26324
827.462	26495
827.601	26442
827.741	26377
827.88	26457
828.02	26313
828.159	26469
828.298	26438
828.437	26351
828.577	26324
828.716	26374
828.855	26332
828.994	26134
829.134	26062
829.273	26168
829.412	26020
829.551	25913
829.69	25989
829.829	26119
829.968	26187
830.107	26187
830.246	26054
830.385	26043
830.524	26012
830.663	25875
830.802	25780
830.941	25681
831.08	25643
831.219	25826
831.357	25860
831.496	25932
831.635	25681
831.774	25575
831.913	25643
832.051	25499
832.19	25441
832.329	25464
832.467	25415
832.606	25350
832.744	25259
832.883	25324
833.022	25327
833.16	25384
833.299	25369
833.437	25266
833.576	25426
833.714	25453
833.852	25586
833.991	25445
834.129	25460
834.267	25537
834.406	25453
834.544	25533
834.682	25460
834.821	25301
834.959	25639
835.097	25365
835.235	25411
835.373	25339
835.511	25415
835.65	25259
835.788	25297
835.926	25198
836.064	25027
836.202	25251
836.34	25228
836.478	25343
836.615	25183
836.753	25308
836.891	25209
837.029	25297
837.167	25209
837.305	25084
837.443	25107
837.58	25069
837.718	25194
837.856	25107
837.993	24966
838.131	25099
838.269	25004
838.406	24970
838.544	24913
838.681	24859
838.819	24715
838.956	24532
839.094	24566
839.231	24502
839.369	24661
839.506	24882
839.643	24768
839.781	24384
839.918	24433
840.055	24460
840.193	24479
840.33	24483
840.467	24475
840.604	24536
840.742	24722
840.879	24327
841.016	24300
841.153	24228
841.29	24555
841.427	24486
841.564	24407
841.701	24384
841.838	24452
841.975	24388
842.112	24346
842.249	24186
842.385	24136
842.522	24445
842.659	24270
842.796	24114
842.933	24194
843.069	24087
843.206	24102
843.343	24178
843.479	24155
843.616	24140
843.752	23927
843.889	24018
844.025	24098
844.162	23973
844.298	23920
844.435	23904
844.571	23897
844.708	24015
844.844	24144
844.98	24007
845.117	24129
845.253	23984
845.389	23741
845.525	23813
845.661	23771
845.798	23703
845.934	23703
846.07	23634
846.206	23638
846.342	23882
846.478	23714
846.614	23509
846.75	23269
846.886	23493
847.022	23512
847.158	23467
847.294	23448
847.429	23421
847.565	23398
847.701	23630
847.837	23064
847.972	23185
848.108	23227
848.244	23181
848.379	22972
848.515	23041
848.65	23044
848.786	22987
848.921	23094
849.057	23147
849.192	23075
849.328	22957
849.463	22968
849.598	22961
849.734	23025
849.869	22850
850.004	22706
850.14	22698
850.275	22782
850.41	22755
850.545	22736
850.68	22752
850.815	22896
850.95	22854
851.085	22949
851.22	22904
851.355	22873
851.49	22744
851.625	22725
851.76	22744
851.895	22744
852.03	22771
852.165	22702
852.299	22752
852.434	22797
852.569	22889
852.703	22717
852.838	22805
852.973	22915
853.107	22869
853.242	22805
853.376	22622
853.511	22584
853.645	22592
853.78	22721
853.914	22626
854.048	22546
854.183	22565
854.317	22664
854.451	22767
854.585	22569
854.72	22668
854.854	22733
854.988	22577
855.122	22577
855.256	22519
855.39	22561
855.524	22713
855.658	22634
855.792	22698
855.926	22649
856.06	22485
856.194	22622
856.327	22626
856.461	22538
856.595	22493
856.729	22744
856.862	22702
856.996	22713
857.13	22656
857.263	22691
857.397	22721
857.53	22519
857.664	22668
857.797	22748
857.931	22706
858.064	22634
858.197	22752
858.331	22641
858.464	22535
858.597	22546
858.731	22577
858.864	22508
858.997	22554
859.13	22672
859.263	22573
859.396	22622
859.529	22618
859.662	22683
859.795	22577
859.928	22710
860.061	22790
860.194	22759
860.327	22679
860.46	22698
860.592	22698
860.725	22725
860.858	22664
860.99	22565
861.123	22504
861.256	22630
861.388	22557
861.521	23341
861.653	22394
861.786	22382
861.918	22424
862.05	22607
862.183	22584
862.315	22440
862.447	22584
862.58	22550
862.712	22272
862.844	22291
862.976	22428
863.108	22382
863.24	22733
863.372	22223
863.504	22348
863.636	22284
863.768	22329
863.9	22246
864.032	22211
864.164	22226
864.296	22402
864.428	22440
864.559	22443
864.691	22329
864.823	22246
864.954	22253
865.086	22261
865.217	22173
865.349	22204
865.48	22105
865.612	22070
865.743	22226
865.875	22204
866.006	22158
866.137	22253
866.269	22036
866.4	22112
866.531	22067
866.662	21998
866.793	22044
866.924	22120
867.055	22124
867.186	22150
867.317	22131
867.448	22021
867.579	22109
867.71	21922
867.841	22101
867.972	22093
868.103	22070
868.233	22253
868.364	22124
868.495	22234
868.625	22272
868.756	22440
868.886	22367
869.017	22367
869.147	22432
869.278	22382
869.408	22329
869.539	22348
869.669	22310
869.799	22352
869.929	22478
870.06	22443
870.19	22618
870.32	22691
870.45	22683
870.58	22786
870.71	22930
870.84	22793
870.97	22771
871.1	22717
871.23	22942
871.36	23048
871.489	22911
871.619	22850
871.749	23029
871.879	22957
872.008	23083
872.138	22847
872.267	22953
872.397	22881
872.526	22805
872.656	22786
872.785	22748
872.915	22987
873.044	23189
873.173	23018
873.303	22957
873.432	22949
873.561	23124
873.69	23113
873.819	22862
873.948	23094
874.077	23041
874.206	23014
874.335	22919
874.464	23041
874.593	23208
874.722	23170
874.851	23273
874.979	23269
875.108	23178
875.237	23086
875.365	22995
875.494	23098
875.623	23220
875.751	23189
875.88	23269
876.008	23292
876.136	23459
876.265	23570
876.393	23653
876.521	23672
876.65	23608
876.778	23531
876.906	23463
877.034	23455
877.162	23589
877.29	23535
877.418	23535
877.546	23585
877.674	23516
877.802	23520
877.93	23520
878.058	23501
878.185	23467
878.313	23459
878.441	23326
878.568	23330
878.696	23455
878.824	23551
878.951	23554
879.079	23707
879.206	23767
879.333	23566
879.461	23444
879.588	23630
879.715	23707
879.842	23805
879.97	23646
880.097	23345
880.224	23296
880.351	23406
880.478	23337
880.605	23246
880.732	23273
880.859	23657
880.986	23212
881.112	23410
881.239	23143
881.366	23048
881.493	22965
881.619	22972
881.746	22904
881.872	22946
881.999	22809
882.125	22828
882.252	22961
882.378	22828
882.505	23079
882.631	22733
882.757	22565
882.883	22645
883.01	22603
883.136	22645
883.262	22322
883.388	22436
883.514	22508
883.64	22752
883.766	22516
883.892	22306
884.018	22310
884.143	22653
884.269	22584
884.395	22268
884.52	22105
884.646	22375
884.772	22173
884.897	22158
885.023	22196
885.148	22367
885.274	22295
885.399	22280
885.524	22188
885.65	22116
885.775	22325
885.9	22143
886.025	22371
886.15	22287
886.275	22166
886.4	22051
886.525	22147
886.65	22112
886.775	22086
886.9	22196
887.025	22409
887.149	22150
887.274	21968
887.399	21922
887.523	21949
887.648	21842
887.773	21907
887.897	22082
888.021	22025
888.146	21956
888.27	22051
888.395	22063
888.519	21911
888.643	21949
888.767	21922
888.891	21899
889.015	21941
889.139	21781
889.263	21747
889.387	21823
889.511	22025
889.635	21850
889.759	21663
889.883	21736
890.006	21774
890.13	21747
890.254	21583
890.377	21713
890.501	21488
890.624	21473
890.748	21545
890.871	21408
890.995	21222
891.118	21336
891.241	21302
891.364	21264
891.488	21481
891.611	21176
891.734	21329
891.857	21370
891.98	21329
892.103	21401
892.226	21207
892.349	21226
892.471	21001
892.594	21203
892.717	21195
892.839	21272
892.962	21169
893.085	21157
893.207	21085
893.33	21123
893.452	21089
893.575	21207
893.697	21154
893.819	21310
893.941	21374
894.064	21306
894.186	21093
894.308	20986
894.43	21188
894.552	21313
894.674	21256
894.796	21039
894.918	21077
895.04	21199
895.161	21222
895.283	21138
895.405	21112
895.526	21043
895.648	21218
895.769	21119
895.891	21256
896.012	21291
896.134	21218
896.255	21207
896.376	21055
896.498	21157
896.619	21176
896.74	21066
896.861	21207
896.982	21363
897.103	21591
897.224	21374
897.345	21454
897.466	21386
897.587	21439
897.708	21477
897.828	21378
897.949	21310
898.07	21169
898.19	21401
898.311	21458
898.431	21344
898.552	21321
898.672	21405
898.792	21336
898.913	21237
899.033	21344
899.153	21173
899.273	21032
899.393	21096
899.513	21081
899.633	21070
899.753	21062
899.873	21100
899.993	21093
900.113	20990
900.232	20982
900.352	21032
900.472	20941
900.591	20769
900.711	20990
900.83	20739
900.95	20960
901.069	20883
901.189	20735
901.308	20564
901.427	20317
901.546	20374
901.665	20309
901.784	20575
901.904	20347
902.023	20176
902.141	19947
902.26	19982
902.379	19986
902.498	19978
902.617	19818
902.735	20001
902.854	19852
902.973	19761
903.091	19647
903.21	19628
903.328	19597
903.446	19635
903.565	19426
903.683	19320
903.801	19293
903.919	19362
904.038	19308
904.156	19198
904.274	19285
904.392	19110
904.51	19072
904.627	19061
904.745	19244
904.863	19114
904.981	18977
905.098	18738
905.216	18772
905.334	18882
905.451	18901
905.569	18833
905.686	18840
905.803	18814
905.921	18661
906.038	18681
906.155	18654
906.272	18601
906.389	18494
906.506	18281
906.623	18369
906.74	18228
906.857	18327
906.974	18201
907.091	18369
907.208	18407
907.324	18452
907.441	18247
907.557	18041
907.674	17984
907.79	17958
907.907	18019
908.023	18083
908.139	18098
908.256	17927
908.372	17916
908.488	17935
908.604	17786
908.72	17794
908.836	17863
908.952	17756
909.068	17859
909.184	17878
909.3	17767
909.415	17764
909.531	17668
909.647	17497
909.762	17474
909.878	17436
909.993	17493
910.108	17326
910.224	17356
910.339	17376
910.454	17303
910.57	17227
910.685	17151
910.8	17421
910.915	17349
911.03	17223
911.145	17037
911.259	17064
911.374	17006
911.489	17003
911.604	16942
911.718	16710
911.833	16782
911.947	16771
912.062	16558
912.176	16683
912.291	16824
912.405	16778
912.519	16896
912.633	16946
912.748	16790
912.862	16679
912.976	16615
913.09	16497
913.204	16531
913.318	16588
913.431	16618
913.545	16641
913.659	16622
913.772	16516
913.886	16462
914	16382
914.113	16443
914.226	16398
914.34	16394
914.453	16185
914.566	16344
914.68	16299
914.793	16200
914.906	15979
915.019	15968
915.132	15857
915.245	15975
915.358	15994
915.47	16029
915.583	15945
915.696	15918
915.809	15998
915.921	16071
916.034	15937
916.146	15816
916.259	15804
916.371	15934
916.483	15934
916.595	15698
916.708	15656
916.82	15724
916.932	15698
917.044	15838
917.156	15701
917.268	15568
917.38	15663
917.491	15568
917.603	15507
917.715	15561
917.826	15641
917.938	15367
918.049	15435
918.161	15454
918.272	15701
918.384	15557
918.495	15477
918.606	15393
918.717	15207
918.828	15230
918.939	15214
919.05	15154
919.161	15332
919.272	15169
919.383	15093
919.494	15310
919.604	15515
919.715	15252
919.826	15142
919.936	15260
920.047	15287
920.157	15287
920.267	15397
920.378	15207
920.488	15222
920.598	15401
920.708	15606
920.818	15420
920.928	15367
921.038	15496
921.148	15542
921.258	15161
921.368	15043
921.477	14990
921.587	15047
921.697	14838
921.806	14956
921.916	14781
922.025	14602
922.134	14610
922.244	14530
922.353	14617
922.462	14347
922.571	14381
922.68	14313
922.789	14259
922.898	14305
923.007	14157
923.116	14290
923.224	14324
923.333	14126
923.442	14069
923.55	14084
923.659	14111
923.767	14153
923.876	14008
923.984	13997
924.092	13947
924.201	14073
924.309	13947
924.417	14035
924.525	13898
924.633	13928
924.741	14640
924.849	13685
924.956	13803
925.064	13655
925.172	13445
925.279	13639
925.387	13655
925.494	13658
925.602	13696
925.709	13624
925.816	13533
925.924	13601
926.031	13681
926.138	13563
926.245	13613
926.352	13426
926.459	13670
926.566	13624
926.673	13480
926.779	13411
926.886	13304
926.993	13194
927.099	13244
927.206	13149
927.312	13080
927.419	13221
927.525	13198
927.631	13217
927.737	12932
927.843	13008
927.95	12920
928.056	12878
928.162	13061
928.267	13072
928.373	13548
928.479	12973
928.585	12738
928.69	12947
928.796	12848
928.901	12859
929.007	12741
929.112	12867
929.218	12768
929.323	12806
929.428	12673
929.533	12764
929.638	12585
929.743	12696
929.848	12658
929.953	12612
930.058	12448
930.163	12330
930.267	12319
930.372	12410
930.477	12296
930.581	12532
930.685	12414
930.79	12262
930.894	12254
930.998	12175
931.103	12308
931.207	12026
931.311	11904
931.415	11863
931.519	11573
931.623	11604
