Data from test_V78500241_2369.txt Node
Date: Fri Mar 25 15:58:12 CST 2022
User: usil
Spectrometer: V785-0024
Trigger mode: 0
Integration Time (sec): 4.000000E-1
Scans to average: 1
Nonlinearity correction enabled: false
Boxcar width: 0
Storing dark spectrum: false
XAxis mode: Wavelengths
Number of Pixels in Spectrum: 1024
>>>>>Begin Spectral Data<<<<<
801.071	28577
801.214	28573
801.356	28455
801.499	28295
801.641	28185
801.783	28272
801.926	28219
802.068	28257
802.211	28344
802.353	28177
802.496	27850
802.638	27914
802.78	27975
802.923	27918
803.065	27800
803.208	27831
803.35	27888
803.492	28135
803.635	28048
803.777	27991
803.919	28135
804.061	28440
804.204	28238
804.346	28044
804.488	28029
804.63	28067
804.773	28010
804.915	28147
805.057	28360
805.199	28051
805.341	28226
805.483	28280
805.626	28295
805.768	28238
805.91	28401
806.052	28329
806.194	28219
806.336	28413
806.478	28261
806.62	28257
806.762	28401
806.904	28542
807.046	28816
807.188	28763
807.33	28790
807.472	28854
807.614	28702
807.756	28641
807.898	28584
808.04	28554
808.182	28546
808.324	28786
808.465	28702
808.607	28946
808.749	28911
808.891	29155
809.033	28991
809.174	28987
809.316	28930
809.458	29102
809.6	28744
809.741	29208
809.883	29170
810.025	29318
810.166	29284
810.308	29341
810.45	29117
810.591	29273
810.733	29018
810.875	28961
811.016	28888
811.158	28915
811.299	29083
811.441	29075
811.582	29151
811.724	28923
811.865	28911
812.007	29025
812.148	28976
812.29	29090
812.431	29189
812.573	29326
812.714	29531
812.855	29551
812.997	29566
813.138	29783
813.279	29592
813.421	29478
813.562	29467
813.703	29208
813.845	29151
813.986	29029
814.127	28683
814.268	28873
814.41	28706
814.551	28698
814.692	28721
814.833	28561
814.974	28687
815.115	28660
815.256	28569
815.397	28531
815.539	28561
815.68	28527
815.821	28485
815.962	28440
816.103	28584
816.244	28428
816.385	28360
816.526	28382
816.666	28131
816.807	28040
816.948	28116
817.089	28128
817.23	27953
817.371	27998
817.512	27922
817.653	27876
817.793	27937
817.934	27895
818.075	27983
818.216	28067
818.356	27956
818.497	27945
818.638	27675
818.778	27743
818.919	27842
819.06	27934
819.2	28021
819.341	28013
819.481	28070
819.622	28238
819.762	28375
819.903	28272
820.043	28234
820.184	28173
820.324	28207
820.465	28253
820.605	28124
820.746	28051
820.886	27918
821.026	28150
821.167	28032
821.307	28120
821.447	28124
821.588	27972
821.728	27857
821.868	27861
822.008	27564
822.149	27576
822.289	27450
822.429	27287
822.569	27272
822.709	27188
822.849	27017
822.99	27066
823.13	26990
823.27	27009
823.41	26887
823.55	26674
823.69	26887
823.83	26724
823.97	26762
824.11	26556
824.25	26663
824.389	26640
824.529	26864
824.669	26598
824.809	26849
824.949	26659
825.089	26678
825.228	26659
825.368	26602
825.508	26507
825.648	26602
825.787	26602
825.927	26640
826.067	26545
826.206	26533
826.346	26530
826.485	26480
826.625	26507
826.765	26819
826.904	26552
827.044	26290
827.183	26389
827.323	26298
827.462	26271
827.601	26358
827.741	26183
827.88	26263
828.02	26290
828.159	26256
828.298	26252
828.437	26206
828.577	26278
828.716	26294
828.855	26115
828.994	25947
829.134	25936
829.273	26035
829.412	25898
829.551	25795
829.69	25917
829.829	25986
829.968	26081
830.107	25852
830.246	25974
830.385	25826
830.524	25845
830.663	25677
830.802	25727
830.941	25506
831.08	25499
831.219	25632
831.357	25533
831.496	25772
831.635	25571
831.774	25445
831.913	25479
832.051	25350
832.19	25400
832.329	25354
832.467	25107
832.606	25187
832.744	25141
832.883	25110
833.022	25160
833.16	25213
833.299	25217
833.437	25285
833.576	25244
833.714	25373
833.852	25221
833.991	25434
834.129	25289
834.267	25358
834.406	25369
834.544	25369
834.682	25217
834.821	25274
834.959	25362
835.097	25308
835.235	25358
835.373	25320
835.511	25362
835.65	25072
835.788	25072
835.926	25038
836.064	24913
836.202	24977
836.34	25164
836.478	25126
836.615	25145
836.753	25095
836.891	25099
837.029	25179
837.167	25080
837.305	24981
837.443	24924
837.58	24852
837.718	24901
837.856	25061
837.993	24913
838.131	24821
838.269	24890
838.406	24791
838.544	24806
838.681	24547
838.819	24467
838.956	24407
839.094	24289
839.231	24407
839.369	24585
839.506	24654
839.643	24585
839.781	24369
839.918	24346
840.055	24528
840.193	24369
840.33	24285
840.467	24346
840.604	24273
840.742	24593
840.879	24159
841.016	24384
841.153	24205
841.29	24429
841.427	24186
841.564	24346
841.701	24243
841.838	24281
841.975	24194
842.112	24171
842.249	24057
842.385	24041
842.522	24353
842.659	24114
842.796	24110
842.933	23942
843.069	23809
843.206	23980
843.343	24095
843.479	24018
843.616	24060
843.752	23794
843.889	23882
844.025	23950
844.162	23935
844.298	23923
844.435	23786
844.571	23726
844.708	23843
844.844	24007
844.98	23969
845.117	23897
845.253	23786
845.389	23680
845.525	23722
845.661	23668
845.798	23566
845.934	23490
846.07	23452
846.206	23558
846.342	23668
846.478	23459
846.614	23330
846.75	23109
846.886	23220
847.022	23379
847.158	23185
847.294	23269
847.429	23220
847.565	23250
847.701	23383
847.837	22984
847.972	22972
848.108	23109
848.244	23006
848.379	22797
848.515	22809
848.65	22828
848.786	22862
848.921	22824
849.057	23014
849.192	22968
849.328	22790
849.463	22816
849.598	22687
849.734	22782
849.869	22683
850.004	22557
850.14	22634
850.275	22717
850.41	22538
850.545	22573
850.68	22557
850.815	22649
850.95	22569
851.085	22691
851.22	22771
851.355	22618
851.49	22577
851.625	22584
851.76	22599
851.895	22603
852.03	22565
852.165	22664
852.299	22546
852.434	22694
852.569	22778
852.703	22516
852.838	22687
852.973	22847
853.107	22679
853.242	22611
853.376	22424
853.511	22409
853.645	22382
853.78	22596
853.914	22421
854.048	22360
854.183	22386
854.317	22394
854.451	22660
854.585	22569
854.72	22413
854.854	22424
854.988	22363
855.122	22329
855.256	22276
855.39	22421
855.524	22417
855.658	22398
855.792	22417
855.926	22481
856.06	22573
856.194	22462
856.327	22432
856.461	22325
856.595	22371
856.729	22413
856.862	22516
856.996	22599
857.13	22535
857.263	22573
857.397	22584
857.53	22577
857.664	22447
857.797	22554
857.931	22535
858.064	22428
858.197	22550
858.331	22428
858.464	22360
858.597	22306
858.731	22428
858.864	22310
858.997	22538
859.13	22390
859.263	22402
859.396	22618
859.529	22451
859.662	22322
859.795	22413
859.928	22443
860.061	22588
860.194	22675
860.327	22493
860.46	22428
860.592	22527
860.725	22557
860.858	22550
860.99	22424
861.123	22451
861.256	22356
861.388	22500
861.521	23132
861.653	22382
861.786	22303
861.918	22181
862.05	22390
862.183	22371
862.315	22310
862.447	22440
862.58	22432
862.712	22226
862.844	22124
862.976	22265
863.108	22253
863.24	22763
863.372	22093
863.504	22131
863.636	22242
863.768	22120
863.9	22135
864.032	22036
864.164	22067
864.296	22120
864.428	22192
864.559	22215
864.691	22162
864.823	22253
864.954	22139
865.086	22093
865.217	22078
865.349	22090
865.48	22086
865.612	22006
865.743	22215
865.875	22070
866.006	21983
866.137	21991
866.269	22105
866.4	21994
866.531	21880
866.662	22067
866.793	22006
866.924	21857
867.055	21930
867.186	22025
867.317	21926
867.448	21717
867.579	21827
867.71	21873
867.841	21800
867.972	21926
868.103	21953
868.233	21998
868.364	21941
868.495	22029
868.625	22223
868.756	22284
868.886	22048
869.017	22265
869.147	22371
869.278	22314
869.408	22249
869.539	22169
869.669	22257
869.799	22352
869.929	22440
870.06	22303
870.19	22577
870.32	22607
870.45	22550
870.58	22569
870.71	22618
870.84	22603
870.97	22611
871.1	22725
871.23	22721
871.36	22816
871.489	22771
871.619	22805
871.749	22786
871.879	22729
872.008	22919
872.138	22790
872.267	22797
872.397	22729
872.526	22660
872.656	22702
872.785	22660
872.915	22805
873.044	22908
873.173	22721
873.303	22782
873.432	22752
873.561	22892
873.69	22839
873.819	22797
873.948	22961
874.077	22755
874.206	22793
874.335	22740
874.464	23044
874.593	23006
874.722	23010
874.851	23083
874.979	23041
875.108	22957
875.237	22968
875.365	23029
875.494	23067
875.623	23124
875.751	22965
875.88	22995
876.008	23162
876.136	23231
876.265	23512
876.393	23520
876.521	23474
876.65	23482
876.778	23395
876.906	23482
877.034	23296
877.162	23360
877.29	23273
877.418	23406
877.546	23330
877.674	23345
877.802	23436
877.93	23360
878.058	23296
878.185	23296
878.313	23212
878.441	23261
878.568	23242
878.696	23193
878.824	23372
878.951	23463
879.079	23509
879.206	23570
879.333	23543
879.461	23505
879.588	23577
879.715	23512
879.842	23619
879.97	23482
880.097	23273
880.224	23113
880.351	23197
880.478	23170
880.605	23105
880.732	23235
880.859	23334
880.986	23170
881.112	23143
881.239	22987
881.366	23018
881.493	22793
881.619	22816
881.746	22675
881.872	22881
881.999	22679
882.125	22653
882.252	22790
882.378	22896
882.505	22869
882.631	22713
882.757	22607
882.883	22603
883.01	22409
883.136	22421
883.262	22234
883.388	22219
883.514	22390
883.64	22428
883.766	22249
883.892	22173
884.018	22261
884.143	22333
884.269	22299
884.395	22261
884.52	21994
884.646	21972
884.772	22010
884.897	21922
885.023	22025
885.148	22128
885.274	22188
885.399	22147
885.524	22044
885.65	22036
885.775	22078
885.9	22143
886.025	22097
886.15	22150
886.275	22013
886.4	22002
886.525	21956
886.65	22010
886.775	21979
886.9	22200
887.025	22074
887.149	22059
887.274	21778
887.399	21808
887.523	21865
887.648	21884
887.773	21808
887.897	21895
888.021	21911
888.146	21728
888.27	21892
888.395	21907
888.519	21956
888.643	21915
888.767	21755
888.891	21671
889.015	21690
889.139	21648
889.263	21622
889.387	21751
889.511	21785
889.635	21637
889.759	21671
889.883	21561
890.006	21633
890.13	21538
890.254	21511
890.377	21542
890.501	21374
890.624	21317
890.748	21424
890.871	21241
890.995	21173
891.118	21009
891.241	21165
891.364	21165
891.488	21245
891.611	21226
891.734	21127
891.857	21211
891.98	21093
892.103	21230
892.226	21188
892.349	21028
892.471	20952
892.594	21077
892.717	21005
892.839	21058
892.962	21089
893.085	21157
893.207	21199
893.33	20986
893.452	20982
893.575	21017
893.697	21032
893.819	21188
893.941	21332
894.064	21226
894.186	20887
894.308	20842
894.43	21150
894.552	21154
894.674	21096
894.796	20868
894.918	21024
895.04	21051
895.161	21085
895.283	21055
895.405	20960
895.526	21066
895.648	21013
895.769	21085
895.891	21055
896.012	21138
896.134	21116
896.255	21020
896.376	21062
896.498	21001
896.619	21001
896.74	21066
896.861	21055
896.982	21348
897.103	21656
897.224	21256
897.345	21245
897.466	21009
897.587	21279
897.708	21405
897.828	21260
897.949	21188
898.07	21028
898.19	21173
898.311	21226
898.431	21256
898.552	21119
898.672	21207
898.792	21325
898.913	21104
899.033	21180
899.153	21032
899.273	20956
899.393	20845
899.513	21020
899.633	21028
899.753	20944
899.873	20906
899.993	20887
900.113	20883
900.232	21047
900.352	20819
900.472	20785
900.591	20815
900.711	20750
900.83	20632
900.95	20804
901.069	20823
901.189	20518
901.308	20355
901.427	20218
901.546	20336
901.665	20290
901.784	20168
901.904	20161
902.023	20012
902.141	19986
902.26	19906
902.379	19974
902.498	19811
902.617	19689
902.735	19822
902.854	19795
902.973	19807
903.091	19502
903.21	19438
903.328	19472
903.446	19362
903.565	19381
903.683	19259
903.801	19232
903.919	19190
904.038	19259
904.156	19057
904.274	19122
904.392	18977
904.51	19000
904.627	19099
904.745	19038
904.863	19103
904.981	18738
905.098	18726
905.216	18665
905.334	18692
905.451	18711
905.569	18669
905.686	18772
905.803	18574
905.921	18692
906.038	18635
906.155	18479
906.272	18384
906.389	18388
906.506	18213
906.623	18342
906.74	18106
906.857	18129
906.974	18152
907.091	18235
907.208	18369
907.324	18243
907.441	18125
907.557	17908
907.674	17923
907.79	17824
907.907	17767
908.023	17870
908.139	17794
908.256	17870
908.372	17836
908.488	17699
908.604	17676
908.72	17623
908.836	17566
908.952	17680
909.068	17676
909.184	17733
909.3	17528
909.415	17547
909.531	17604
909.647	17402
909.762	17318
909.878	17322
909.993	17360
910.108	17315
910.224	17204
910.339	17364
910.454	17208
910.57	17140
910.685	17094
910.8	17292
910.915	17166
911.03	17105
911.145	17003
911.259	16900
911.374	16816
911.489	16889
911.604	16900
911.718	16679
911.833	16691
911.947	16527
912.062	16409
912.176	16672
912.291	16615
912.405	16687
912.519	16717
912.633	16828
912.748	16687
912.862	16603
912.976	16485
913.09	16299
913.204	16363
913.318	16516
913.431	16527
913.545	16440
913.659	16538
913.772	16402
913.886	16287
914	16268
914.113	16318
914.226	16295
914.34	16318
914.453	16181
914.566	16299
914.68	16101
914.793	16097
914.906	15873
915.019	15880
915.132	15838
915.245	15842
915.358	15827
915.47	15873
915.583	15812
915.696	15903
915.809	15930
915.921	15991
916.034	15671
916.146	15724
916.259	15705
916.371	15831
916.483	15739
916.595	15610
916.708	15629
916.82	15587
916.932	15603
917.044	15572
917.156	15587
917.268	15477
917.38	15416
917.491	15443
917.603	15466
917.715	15530
917.826	15568
917.938	15359
918.049	15291
918.161	15458
918.272	15469
918.384	15500
918.495	15401
918.606	15313
918.717	15249
918.828	15260
918.939	15279
919.05	15199
919.161	15184
919.272	14998
919.383	15077
919.494	15203
919.604	15325
919.715	15325
919.826	15097
919.936	15017
920.047	15237
920.157	15214
920.267	15313
920.378	15173
920.488	15077
920.598	15283
920.708	15397
920.818	15146
920.928	15374
921.038	15405
921.148	15382
921.258	15043
921.368	14921
921.477	14941
921.587	14834
921.697	14758
921.806	14876
921.916	14792
922.025	14503
922.134	14545
922.244	14381
922.353	14503
922.462	14408
922.571	14286
922.68	14107
922.789	14126
922.898	14172
923.007	14195
923.116	14149
923.224	14130
923.333	14123
923.442	14039
923.55	14027
923.659	14043
923.767	13951
923.876	13860
923.984	13963
924.092	13837
924.201	13944
924.309	13875
924.417	13803
924.525	13738
924.633	13807
924.741	14815
924.849	13632
924.956	13772
925.064	13533
925.172	13453
925.279	13548
925.387	13605
925.494	13571
925.602	13643
925.709	13514
925.816	13388
925.924	13407
926.031	13597
926.138	13426
926.245	13422
926.352	13373
926.459	13487
926.566	13529
926.673	13324
926.779	13266
926.886	13190
926.993	13156
927.099	13088
927.206	13046
927.312	12943
927.419	13023
927.525	13027
927.631	13095
927.737	12939
927.843	12867
927.95	12722
928.056	12871
928.162	12844
928.267	12901
928.373	13430
928.479	12973
928.585	12719
928.69	12833
928.796	12825
928.901	12646
929.007	12604
929.112	12707
929.218	12662
929.323	12604
929.428	12623
929.533	12734
929.638	12502
929.743	12536
929.848	12547
929.953	12521
930.058	12414
930.163	12277
930.267	12270
930.372	12395
930.477	12205
930.581	12513
930.685	12350
930.79	12114
930.894	12224
930.998	12117
931.103	12201
931.207	11882
931.311	11771
931.415	11707
931.519	11592
931.623	11482
