Data from test_V78500241_1215.txt Node
Date: Fri Mar 25 15:50:13 CST 2022
User: usil
Spectrometer: V785-0024
Trigger mode: 0
Integration Time (sec): 4.000000E-1
Scans to average: 1
Nonlinearity correction enabled: false
Boxcar width: 0
Storing dark spectrum: false
XAxis mode: Wavelengths
Number of Pixels in Spectrum: 1024
>>>>>Begin Spectral Data<<<<<
801.071	28797
801.214	28831
801.356	28493
801.499	28470
801.641	28253
801.783	28352
801.926	28234
802.068	28367
802.211	28367
802.353	28265
802.496	28131
802.638	27987
802.78	28017
802.923	27953
803.065	27968
803.208	27983
803.35	27983
803.492	28215
803.635	28105
803.777	28192
803.919	28211
804.061	28607
804.204	28276
804.346	28158
804.488	28188
804.63	28234
804.773	28185
804.915	28242
805.057	28516
805.199	28226
805.341	28337
805.483	28451
805.626	28363
805.768	28360
805.91	28497
806.052	28310
806.194	28428
806.336	28698
806.478	28584
806.62	28531
806.762	28641
806.904	28607
807.046	28900
807.188	28938
807.33	29014
807.472	28972
807.614	28828
807.756	28755
807.898	28748
808.04	28649
808.182	28653
808.324	28672
808.465	28881
808.607	29117
808.749	29037
808.891	29239
809.033	29197
809.174	29189
809.316	29048
809.458	29117
809.6	29098
809.741	29292
809.883	29303
810.025	29474
810.166	29455
810.308	29566
810.45	29280
810.591	29353
810.733	29155
810.875	29277
811.016	28915
811.158	29064
811.299	29231
811.441	29444
811.582	29273
811.724	29220
811.865	29128
812.007	29094
812.148	29117
812.29	29113
812.431	29334
812.573	29375
812.714	29429
812.855	29882
812.997	29687
813.138	29783
813.279	29756
813.421	29779
813.562	29649
813.703	29493
813.845	29421
813.986	29128
814.127	28972
814.268	28843
814.41	28927
814.551	28911
814.692	28953
814.833	28946
814.974	28679
815.115	28786
815.256	28885
815.397	28710
815.539	28698
815.68	28603
815.821	28626
815.962	28577
816.103	28752
816.244	28405
816.385	28489
816.526	28493
816.666	28223
816.807	28200
816.948	28299
817.089	28341
817.23	28078
817.371	28181
817.512	28116
817.653	28177
817.793	28074
817.934	28177
818.075	28234
818.216	28200
818.356	28032
818.497	28188
818.638	28078
818.778	27884
818.919	28040
819.06	28070
819.2	27979
819.341	28196
819.481	28207
819.622	28166
819.762	28500
819.903	28284
820.043	28405
820.184	28306
820.324	28196
820.465	28428
820.605	28428
820.746	28261
820.886	28215
821.026	28276
821.167	28314
821.307	28371
821.447	28219
821.588	28048
821.728	27964
821.868	27895
822.008	27682
822.149	27778
822.289	27838
822.429	27534
822.569	27325
822.709	27241
822.849	27260
822.99	27241
823.13	27245
823.27	27119
823.41	27192
823.55	26883
823.69	27233
823.83	26952
823.97	27055
824.11	26800
824.25	26705
824.389	26899
824.529	26910
824.669	26758
824.809	27039
824.949	26918
825.089	27055
825.228	27043
825.368	26617
825.508	26845
825.648	26868
825.787	26864
825.927	26788
826.067	26716
826.206	26804
826.346	26686
826.485	26800
826.625	26804
826.765	26975
826.904	26811
827.044	26385
827.183	26488
827.323	26434
827.462	26434
827.601	26442
827.741	26594
827.88	26495
828.02	26339
828.159	26427
828.298	26412
828.437	26533
828.577	26351
828.716	26552
828.855	26404
828.994	26187
829.134	26142
829.273	26172
829.412	26096
829.551	26164
829.69	26100
829.829	26233
829.968	26183
830.107	26142
830.246	26248
830.385	26134
830.524	26088
830.663	25890
830.802	25822
830.941	25696
831.08	25742
831.219	25791
831.357	25776
831.496	26065
831.635	25731
831.774	25845
831.913	25601
832.051	25502
832.19	25491
832.329	25620
832.467	25457
832.606	25434
832.744	25415
832.883	25422
833.022	25460
833.16	25362
833.299	25464
833.437	25571
833.576	25559
833.714	25438
833.852	25529
833.991	25411
834.129	25624
834.267	25518
834.406	25476
834.544	25491
834.682	25586
834.821	25426
834.959	25605
835.097	25331
835.235	25514
835.373	25468
835.511	25346
835.65	25297
835.788	25308
835.926	25259
836.064	25042
836.202	25194
836.34	25289
836.478	25392
836.615	25343
836.753	25445
836.891	25343
837.029	25293
837.167	25301
837.305	25122
837.443	25217
837.58	25126
837.718	25110
837.856	25107
837.993	25004
838.131	25080
838.269	24882
838.406	24996
838.544	25023
838.681	24791
838.819	24726
838.956	24696
839.094	24563
839.231	24646
839.369	24738
839.506	24852
839.643	24825
839.781	24665
839.918	24407
840.055	24677
840.193	24422
840.33	24445
840.467	24570
840.604	24498
840.742	24802
840.879	24376
841.016	24327
841.153	24422
841.29	24437
841.427	24483
841.564	24540
841.701	24426
841.838	24460
841.975	24285
842.112	24388
842.249	24380
842.385	24247
842.522	24448
842.659	24323
842.796	24190
842.933	24308
843.069	24155
843.206	24159
843.343	24289
843.479	24213
843.616	24228
843.752	23923
843.889	23901
844.025	24076
844.162	24038
844.298	24083
844.435	23916
844.571	23954
844.708	24121
844.844	24091
844.98	24087
845.117	24182
845.253	23999
845.389	23939
845.525	23977
845.661	23927
845.798	23680
845.934	23809
846.07	23767
846.206	23726
846.342	23790
846.478	23608
846.614	23589
846.75	23337
846.886	23490
847.022	23463
847.158	23463
847.294	23402
847.429	23429
847.565	23433
847.701	23672
847.837	23246
847.972	23235
848.108	23353
848.244	23368
848.379	23079
848.515	23006
848.65	22995
848.786	23083
848.921	23102
849.057	23014
849.192	23094
849.328	23113
849.463	22999
849.598	22911
849.734	22854
849.869	22965
850.004	22938
850.14	22809
850.275	22824
850.41	22793
850.545	22755
850.68	22782
850.815	22911
850.95	22763
851.085	23075
851.22	22965
851.355	22774
851.49	22733
851.625	22725
851.76	22786
851.895	22744
852.03	22820
852.165	22805
852.299	22915
852.434	22980
852.569	22877
852.703	22824
852.838	22835
852.973	22949
853.107	22984
853.242	22763
853.376	22649
853.511	22561
853.645	22649
853.78	22675
853.914	22660
854.048	22603
854.183	22565
854.317	22668
854.451	22710
854.585	22618
854.72	22637
854.854	22668
854.988	22485
855.122	22713
855.256	22447
855.39	22713
855.524	22607
855.658	22713
855.792	22698
855.926	22672
856.06	22809
856.194	22790
856.327	22634
856.461	22493
856.595	22611
856.729	22592
856.862	22816
856.996	22603
857.13	22706
857.263	22744
857.397	22717
857.53	22603
857.664	22672
857.797	22733
857.931	22748
858.064	22725
858.197	22668
858.331	22546
858.464	22668
858.597	22493
858.731	22466
858.864	22497
858.997	22637
859.13	22569
859.263	22717
859.396	22778
859.529	22618
859.662	22634
859.795	22508
859.928	22588
860.061	22702
860.194	22744
860.327	22725
860.46	22744
860.592	22862
860.725	22862
860.858	22786
860.99	22691
861.123	22546
861.256	22538
861.388	22565
861.521	23353
861.653	22493
861.786	22405
861.918	22508
862.05	22531
862.183	22573
862.315	22462
862.447	22649
862.58	22565
862.712	22337
862.844	22314
862.976	22382
863.108	22291
863.24	22645
863.372	22230
863.504	22337
863.636	22287
863.768	22310
863.9	22257
864.032	22185
864.164	22234
864.296	22417
864.428	22447
864.559	22268
864.691	22348
864.823	22417
864.954	22379
865.086	22280
865.217	22158
865.349	22044
865.48	22192
865.612	22188
865.743	22310
865.875	22204
866.006	22097
866.137	22249
866.269	22211
866.4	22287
866.531	22116
866.662	22051
866.793	22097
866.924	22143
867.055	22173
867.186	22211
867.317	22109
867.448	22025
867.579	22017
867.71	22067
867.841	21998
867.972	22246
868.103	22078
868.233	22105
868.364	22101
868.495	22196
868.625	22432
868.756	22481
868.886	22284
869.017	22344
869.147	22462
869.278	22462
869.408	22322
869.539	22303
869.669	22459
869.799	22421
869.929	22489
870.06	22497
870.19	22634
870.32	22706
870.45	22759
870.58	22736
870.71	22885
870.84	22797
870.97	22687
871.1	22733
871.23	22862
871.36	22957
871.489	22854
871.619	22831
871.749	22919
871.879	23025
872.008	23033
872.138	23052
872.267	22915
872.397	22839
872.526	22812
872.656	22820
872.785	22816
872.915	23003
873.044	23044
873.173	23037
873.303	22930
873.432	23064
873.561	22972
873.69	22858
873.819	23018
873.948	23098
874.077	22934
874.206	22927
874.335	22934
874.464	23223
874.593	23220
874.722	23200
874.851	23181
874.979	23280
875.108	23250
875.237	23208
875.365	23140
875.494	23227
875.623	23193
875.751	23166
875.88	23143
876.008	23220
876.136	23299
876.265	23608
876.393	23775
876.521	23524
876.65	23687
876.778	23630
876.906	23490
877.034	23493
877.162	23490
877.29	23482
877.418	23649
877.546	23524
877.674	23512
877.802	23562
877.93	23604
878.058	23433
878.185	23318
878.313	23463
878.441	23452
878.568	23402
878.696	23368
878.824	23604
878.951	23566
879.079	23722
879.206	23893
879.333	23752
879.461	23474
879.588	23512
879.715	23707
879.842	23920
879.97	23539
880.097	23356
880.224	23360
880.351	23440
880.478	23436
880.605	23299
880.732	23258
880.859	23516
880.986	23353
881.112	23322
881.239	23143
881.366	23181
881.493	22968
881.619	22919
881.746	23048
881.872	22862
881.999	22911
882.125	22828
882.252	22968
882.378	22908
882.505	22976
882.631	22687
882.757	22615
882.883	22607
883.01	22561
883.136	22531
883.262	22459
883.388	22318
883.514	22516
883.64	22596
883.766	22436
883.892	22291
884.018	22333
884.143	22402
884.269	22519
884.395	22268
884.52	22272
884.646	22192
884.772	22181
884.897	22105
885.023	22200
885.148	22306
885.274	22474
885.399	22242
885.524	22223
885.65	22147
885.775	22223
885.9	22124
886.025	22322
886.15	22318
886.275	22181
886.4	22021
886.525	22181
886.65	22036
886.775	22177
886.9	22306
887.025	22409
887.149	22135
887.274	21975
887.399	21979
887.523	21880
887.648	21918
887.773	21850
887.897	21873
888.021	21949
888.146	21827
888.27	22097
888.395	22078
888.519	21941
888.643	21968
888.767	21953
888.891	21838
889.015	21728
889.139	21747
889.263	21583
889.387	21907
889.511	21941
889.635	21884
889.759	21709
889.883	21694
890.006	21804
890.13	21797
890.254	21778
890.377	21648
890.501	21428
890.624	21382
890.748	21576
890.871	21363
890.995	21412
891.118	21351
891.241	21401
891.364	21241
891.488	21351
891.611	21306
891.734	21264
891.857	21249
891.98	21348
892.103	21287
892.226	21245
892.349	21256
892.471	20986
892.594	21230
892.717	21245
892.839	21233
892.962	21222
893.085	21294
893.207	21089
893.33	21077
893.452	21028
893.575	21264
893.697	21165
893.819	21283
893.941	21252
894.064	21302
894.186	20998
894.308	21039
894.43	21233
894.552	21294
894.674	21184
894.796	21108
894.918	21070
895.04	21077
895.161	21195
895.283	21249
895.405	21112
895.526	21146
895.648	21203
895.769	21165
895.891	21176
896.012	21180
896.134	21173
896.255	21192
896.376	20990
896.498	21028
896.619	21112
896.74	21138
896.861	21165
896.982	21424
897.103	21504
897.224	21397
897.345	21355
897.466	21332
897.587	21408
897.708	21416
897.828	21393
897.949	21203
898.07	21222
898.19	21214
898.311	21336
898.431	21329
898.552	21325
898.672	21435
898.792	21340
898.913	21458
899.033	21272
899.153	21104
899.273	21104
899.393	21154
899.513	21142
899.633	21085
899.753	21112
899.873	20994
899.993	21070
900.113	20956
900.232	21085
900.352	20956
900.472	20868
900.591	20834
900.711	20883
900.83	20727
900.95	20914
901.069	20914
901.189	20762
901.308	20514
901.427	20514
901.546	20419
901.665	20385
901.784	20518
901.904	20271
902.023	20267
902.141	20024
902.26	19993
902.379	19974
902.498	19799
902.617	19978
902.735	19875
902.854	19871
902.973	19772
903.091	19616
903.21	19499
903.328	19655
903.446	19464
903.565	19403
903.683	19251
903.801	19293
903.919	19247
904.038	19255
904.156	19148
904.274	19168
904.392	19076
904.51	19038
904.627	19118
904.745	19141
904.863	19206
904.981	18924
905.098	18875
905.216	18802
905.334	18894
905.451	18764
905.569	18833
905.686	18844
905.803	18681
905.921	18661
906.038	18734
906.155	18540
906.272	18464
906.389	18486
906.506	18410
906.623	18228
906.74	18258
906.857	18277
906.974	18228
907.091	18361
907.208	18448
907.324	18369
907.441	18235
907.557	18057
907.674	17958
907.79	17946
907.907	18034
908.023	18064
908.139	18060
908.256	17969
908.372	17893
908.488	17916
908.604	17863
908.72	17764
908.836	17855
908.952	17684
909.068	17760
909.184	17840
909.3	17687
909.415	17786
909.531	17794
909.647	17440
909.762	17478
909.878	17440
909.993	17486
910.108	17318
910.224	17414
910.339	17383
910.454	17353
910.57	17181
910.685	17075
910.8	17486
910.915	17258
911.03	17208
911.145	17105
911.259	16862
911.374	16999
911.489	16923
911.604	16923
911.718	16759
911.833	16771
911.947	16717
912.062	16668
912.176	16664
912.291	16820
912.405	16763
912.519	16957
912.633	16938
912.748	16854
912.862	16706
912.976	16694
913.09	16443
913.204	16558
913.318	16504
913.431	16611
913.545	16580
913.659	16637
913.772	16466
913.886	16325
914	16424
914.113	16546
914.226	16379
914.34	16402
914.453	16253
914.566	16375
914.68	16234
914.793	16128
914.906	16029
915.019	15911
915.132	15854
915.245	15922
915.358	15964
915.47	15956
915.583	15884
915.696	15915
915.809	16067
915.921	16109
916.034	15857
916.146	15797
916.259	15823
916.371	15876
916.483	15895
916.595	15789
916.708	15797
916.82	15728
916.932	15671
917.044	15713
917.156	15671
917.268	15603
917.38	15671
917.491	15561
917.603	15599
917.715	15595
917.826	15542
917.938	15492
918.049	15374
918.161	15485
918.272	15599
918.384	15603
918.495	15568
918.606	15272
918.717	15355
918.828	15348
918.939	15294
919.05	15214
919.161	15173
919.272	15127
919.383	15112
919.494	15313
919.604	15412
919.715	15275
919.826	15108
919.936	15264
920.047	15340
920.157	15226
920.267	15431
920.378	15161
920.488	15180
920.598	15363
920.708	15485
920.818	15405
920.928	15359
921.038	15538
921.148	15488
921.258	15199
921.368	15013
921.477	14880
921.587	15017
921.697	14815
921.806	14933
921.916	14861
922.025	14648
922.134	14537
922.244	14495
922.353	14701
922.462	14503
922.571	14328
922.68	14259
922.789	14157
922.898	14195
923.007	14054
923.116	14210
923.224	14290
923.333	14252
923.442	14031
923.55	14020
923.659	14092
923.767	14199
923.876	14043
923.984	14084
924.092	13959
924.201	13944
924.309	13989
924.417	13887
924.525	13795
924.633	13860
924.741	14621
924.849	13609
924.956	13746
925.064	13685
925.172	13632
925.279	13582
925.387	13651
925.494	13540
925.602	13685
925.709	13655
925.816	13605
925.924	13628
926.031	13689
926.138	13499
926.245	13567
926.352	13483
926.459	13571
926.566	13548
926.673	13400
926.779	13369
926.886	13343
926.993	13198
927.099	13168
927.206	13179
927.312	13069
927.419	13175
927.525	13187
927.631	13244
927.737	12943
927.843	12966
927.95	12825
928.056	12996
928.162	12962
928.267	12989
928.373	13563
928.479	13031
928.585	12837
928.69	12817
928.796	12966
928.901	12779
929.007	12608
929.112	12791
929.218	12753
929.323	12684
929.428	12662
929.533	12829
929.638	12540
929.743	12650
929.848	12635
929.953	12566
930.058	12494
930.163	12346
930.267	12285
930.372	12521
930.477	12338
930.581	12513
930.685	12361
930.79	12281
930.894	12232
930.998	12197
931.103	12285
931.207	11984
931.311	11836
931.415	11824
931.519	11611
931.623	11623
