Data from test_V78500241_2435.txt Node
Date: Fri Mar 25 15:58:40 CST 2022
User: usil
Spectrometer: V785-0024
Trigger mode: 0
Integration Time (sec): 4.000000E-1
Scans to average: 1
Nonlinearity correction enabled: false
Boxcar width: 0
Storing dark spectrum: false
XAxis mode: Wavelengths
Number of Pixels in Spectrum: 1024
>>>>>Begin Spectral Data<<<<<
801.071	28771
801.214	28733
801.356	28634
801.499	28455
801.641	28398
801.783	28493
801.926	28546
802.068	28497
802.211	28223
802.353	28356
802.496	28196
802.638	28051
802.78	28006
802.923	27956
803.065	27835
803.208	28074
803.35	28086
803.492	28272
803.635	28196
803.777	28238
803.919	28181
804.061	28485
804.204	28443
804.346	28394
804.488	28211
804.63	28318
804.773	28196
804.915	28303
805.057	28542
805.199	28257
805.341	28523
805.483	28341
805.626	28504
805.768	28306
805.91	28459
806.052	28554
806.194	28512
806.336	28649
806.478	28634
806.62	28481
806.762	28565
806.904	28797
807.046	28987
807.188	28919
807.33	28976
807.472	28930
807.614	28850
807.756	28694
807.898	28755
808.04	28664
808.182	28888
808.324	28740
808.465	28774
808.607	28946
808.749	29132
808.891	29315
809.033	29246
809.174	29170
809.316	29204
809.458	29140
809.6	29200
809.741	29254
809.883	29425
810.025	29395
810.166	29467
810.308	29539
810.45	29440
810.591	29356
810.733	29288
810.875	29117
811.016	29132
811.158	29056
811.299	29277
811.441	29368
811.582	29375
811.724	29181
811.865	29284
812.007	29277
812.148	29067
812.29	29250
812.431	29391
812.573	29558
812.714	29562
812.855	29756
812.997	29722
813.138	29859
813.279	29931
813.421	29851
813.562	29615
813.703	29478
813.845	29501
813.986	29170
814.127	29079
814.268	28915
814.41	28980
814.551	28908
814.692	28888
814.833	28942
814.974	28850
815.115	28733
815.256	28828
815.397	28683
815.539	28816
815.68	28683
815.821	28584
815.962	28774
816.103	28782
816.244	28363
816.385	28527
816.526	28500
816.666	28230
816.807	28169
816.948	28253
817.089	28394
817.23	28207
817.371	28356
817.512	28166
817.653	28120
817.793	28124
817.934	28185
818.075	28207
818.216	28287
818.356	28226
818.497	28097
818.638	27911
818.778	28006
818.919	27918
819.06	28207
819.2	28181
819.341	28242
819.481	28287
819.622	28481
819.762	28554
819.903	28493
820.043	28443
820.184	28382
820.324	28409
820.465	28421
820.605	28386
820.746	28386
820.886	28242
821.026	28386
821.167	28318
821.307	28516
821.447	28059
821.588	28086
821.728	27888
821.868	27903
822.008	27679
822.149	27838
822.289	27743
822.429	27439
822.569	27454
822.709	27260
822.849	27226
822.99	27275
823.13	27211
823.27	27161
823.41	27039
823.55	26982
823.69	27146
823.83	27074
823.97	26963
824.11	26788
824.25	26815
824.389	26906
824.529	26929
824.669	26982
824.809	26952
824.949	26842
825.089	27085
825.228	26777
825.368	26804
825.508	26788
825.648	26762
825.787	26796
825.927	26823
826.067	26663
826.206	26800
826.346	26807
826.485	26872
826.625	26731
826.765	26921
826.904	26796
827.044	26412
827.183	26492
827.323	26453
827.462	26537
827.601	26568
827.741	26355
827.88	26533
828.02	26362
828.159	26526
828.298	26598
828.437	26560
828.577	26362
828.716	26526
828.855	26404
828.994	26183
829.134	26214
829.273	26210
829.412	26054
829.551	26142
829.69	26195
829.829	26237
829.968	26248
830.107	26263
830.246	26084
830.385	26138
830.524	26058
830.663	26043
830.802	25788
830.941	25712
831.08	25712
831.219	25883
831.357	25807
831.496	26031
831.635	25852
831.774	25662
831.913	25700
832.051	25559
832.19	25483
832.329	25575
832.467	25301
832.606	25407
832.744	25514
832.883	25278
833.022	25487
833.16	25388
833.299	25422
833.437	25514
833.576	25537
833.714	25445
833.852	25540
833.991	25567
834.129	25582
834.267	25533
834.406	25434
834.544	25635
834.682	25548
834.821	25365
834.959	25658
835.097	25289
835.235	25449
835.373	25453
835.511	25430
835.65	25270
835.788	25293
835.926	25198
836.064	25164
836.202	25160
836.34	25388
836.478	25373
836.615	25304
836.753	25263
836.891	25449
837.029	25312
837.167	25327
837.305	25213
837.443	25137
837.58	25274
837.718	25171
837.856	25168
837.993	25023
838.131	25164
838.269	25046
838.406	25076
838.544	24882
838.681	24711
838.819	24783
838.956	24505
839.094	24700
839.231	24692
839.369	24840
839.506	25129
839.643	24913
839.781	24585
839.918	24540
840.055	24650
840.193	24570
840.33	24563
840.467	24452
840.604	24601
840.742	24722
840.879	24418
841.016	24380
841.153	24505
841.29	24547
841.427	24498
841.564	24330
841.701	24544
841.838	24445
841.975	24308
842.112	24327
842.249	24399
842.385	24171
842.522	24582
842.659	24380
842.796	24270
842.933	24254
843.069	24205
843.206	24254
843.343	24338
843.479	24190
843.616	24235
843.752	24095
843.889	24106
844.025	24174
844.162	23988
844.298	24311
844.435	23973
844.571	24041
844.708	24038
844.844	24079
844.98	24144
845.117	24102
845.253	24049
845.389	23893
845.525	23859
845.661	23836
845.798	23767
845.934	23851
846.07	23707
846.206	23714
846.342	23931
846.478	23642
846.614	23543
846.75	23353
846.886	23436
847.022	23608
847.158	23528
847.294	23471
847.429	23535
847.565	23471
847.701	23619
847.837	23269
847.972	23178
848.108	23334
848.244	23181
848.379	23132
848.515	22991
848.65	23010
848.786	22991
848.921	23151
849.057	23220
849.192	23231
849.328	23170
849.463	23006
849.598	22987
849.734	22869
849.869	22896
850.004	22752
850.14	22949
850.275	22824
850.41	22930
850.545	22702
850.68	22740
850.815	22869
850.95	22755
851.085	22987
851.22	22957
851.355	22797
851.49	22752
851.625	22850
851.76	22774
851.895	22759
852.03	22820
852.165	22835
852.299	22911
852.434	22927
852.569	22812
852.703	22763
852.838	23060
852.973	22946
853.107	22976
853.242	22725
853.376	22679
853.511	22428
853.645	22634
853.78	22694
853.914	22702
854.048	22596
854.183	22535
854.317	22607
854.451	22828
854.585	22694
854.72	22717
854.854	22824
854.988	22626
855.122	22607
855.256	22428
855.39	22611
855.524	22717
855.658	22778
855.792	22694
855.926	22618
856.06	22592
856.194	22668
856.327	22675
856.461	22535
856.595	22470
856.729	22679
856.862	22752
856.996	22630
857.13	22687
857.263	22683
857.397	22706
857.53	22603
857.664	22656
857.797	22778
857.931	22763
858.064	22748
858.197	22729
858.331	22668
858.464	22470
858.597	22550
858.731	22630
858.864	22573
858.997	22615
859.13	22729
859.263	22603
859.396	22733
859.529	22653
859.662	22710
859.795	22508
859.928	22698
860.061	22721
860.194	22862
860.327	22615
860.46	22622
860.592	22839
860.725	22858
860.858	22748
860.99	22698
861.123	22573
861.256	22630
861.388	22649
861.521	23356
861.653	22451
861.786	22512
861.918	22409
862.05	22615
862.183	22557
862.315	22637
862.447	22656
862.58	22573
862.712	22478
862.844	22363
862.976	22466
863.108	22466
863.24	22854
863.372	22360
863.504	22360
863.636	22295
863.768	22409
863.9	22390
864.032	22238
864.164	22322
864.296	22272
864.428	22447
864.559	22398
864.691	22398
864.823	22402
864.954	22375
865.086	22379
865.217	22246
865.349	22207
865.48	22101
865.612	22242
865.743	22352
865.875	22242
866.006	22223
866.137	22200
866.269	22234
866.4	22226
866.531	22093
866.662	22150
866.793	22090
866.924	22090
867.055	22196
867.186	22207
867.317	22040
867.448	22139
867.579	22150
867.71	21987
867.841	21964
867.972	22166
868.103	22097
868.233	22105
868.364	22230
868.495	22204
868.625	22333
868.756	22474
868.886	22242
869.017	22284
869.147	22523
869.278	22470
869.408	22466
869.539	22352
869.669	22440
869.799	22519
869.929	22478
870.06	22527
870.19	22839
870.32	22809
870.45	22805
870.58	22755
870.71	22938
870.84	23029
870.97	22828
871.1	22702
871.23	22881
871.36	22991
871.489	22809
871.619	22942
871.749	22873
871.879	22995
872.008	23102
872.138	23056
872.267	23056
872.397	22782
872.526	22980
872.656	22953
872.785	22801
872.915	22908
873.044	23147
873.173	22953
873.303	23033
873.432	23067
873.561	23220
873.69	23006
873.819	22930
873.948	23204
874.077	22949
874.206	22919
874.335	23003
874.464	23113
874.593	23178
874.722	23086
874.851	23181
874.979	23258
875.108	23284
875.237	23223
875.365	23212
875.494	23151
875.623	23239
875.751	23204
875.88	23124
876.008	23387
876.136	23356
876.265	23539
876.393	23745
876.521	23638
876.65	23668
876.778	23619
876.906	23646
877.034	23539
877.162	23623
877.29	23383
877.418	23551
877.546	23558
877.674	23558
877.802	23448
877.93	23577
878.058	23558
878.185	23543
878.313	23585
878.441	23585
878.568	23387
878.696	23395
878.824	23570
878.951	23745
879.079	23733
879.206	23741
879.333	23710
879.461	23589
879.588	23684
879.715	23687
879.842	23882
879.97	23653
880.097	23490
880.224	23417
880.351	23360
880.478	23391
880.605	23330
880.732	23383
880.859	23512
880.986	23459
881.112	23250
881.239	23227
881.366	23128
881.493	22812
881.619	22987
881.746	22995
881.872	22923
881.999	22885
882.125	22839
882.252	22957
882.378	22816
882.505	22991
882.631	22793
882.757	22580
882.883	22767
883.01	22641
883.136	22531
883.262	22440
883.388	22451
883.514	22713
883.64	22649
883.766	22596
883.892	22432
884.018	22489
884.143	22519
884.269	22580
884.395	22348
884.52	22158
884.646	22253
884.772	22219
884.897	22101
885.023	22211
885.148	22356
885.274	22402
885.399	22291
885.524	22287
885.65	22360
885.775	22394
885.9	22226
886.025	22291
886.15	22322
886.275	22192
886.4	22162
886.525	22188
886.65	22169
886.775	22192
886.9	22135
887.025	22394
887.149	22158
887.274	22017
887.399	22055
887.523	21964
887.648	21964
887.773	21876
887.897	22063
888.021	22036
888.146	21949
888.27	21960
888.395	22070
888.519	22063
888.643	22044
888.767	21994
888.891	21888
889.015	21869
889.139	21770
889.263	21816
889.387	21956
889.511	21987
889.635	21903
889.759	21804
889.883	21846
890.006	21736
890.13	21865
890.254	21660
890.377	21694
890.501	21496
890.624	21504
890.748	21542
890.871	21389
890.995	21256
891.118	21317
891.241	21340
891.364	21359
891.488	21424
891.611	21321
891.734	21351
891.857	21408
891.98	21310
892.103	21287
892.226	21344
892.349	21260
892.471	21199
892.594	21222
892.717	21340
892.839	21161
892.962	21245
893.085	21340
893.207	21176
893.33	21119
893.452	21142
893.575	21264
893.697	21154
893.819	21370
893.941	21401
894.064	21321
894.186	21199
894.308	21074
894.43	21218
894.552	21283
894.674	21363
894.796	21043
894.918	21218
895.04	21135
895.161	21260
895.283	21325
895.405	21127
895.526	21218
895.648	21119
895.769	21237
895.891	21237
896.012	21302
896.134	21291
896.255	21268
896.376	21199
896.498	21180
896.619	21230
896.74	21249
896.861	21180
896.982	21469
897.103	21682
897.224	21431
897.345	21401
897.466	21359
897.587	21310
897.708	21458
897.828	21294
897.949	21317
898.07	21351
898.19	21260
898.311	21507
898.431	21374
898.552	21344
898.672	21530
898.792	21462
898.913	21443
899.033	21359
899.153	21081
899.273	21249
899.393	21173
899.513	21150
899.633	21062
899.753	21161
899.873	21104
899.993	21150
900.113	21047
900.232	21051
900.352	20952
900.472	20765
900.591	20769
900.711	20979
900.83	20765
900.95	20952
901.069	20967
901.189	20762
901.308	20507
901.427	20431
901.546	20495
901.665	20526
901.784	20457
901.904	20259
902.023	20229
902.141	20100
902.26	20016
902.379	20020
902.498	20115
902.617	19921
902.735	19986
902.854	19944
902.973	19871
903.091	19514
903.21	19616
903.328	19700
903.446	19521
903.565	19449
903.683	19449
903.801	19190
903.919	19396
904.038	19274
904.156	19312
904.274	19289
904.392	19118
904.51	19206
904.627	19206
904.745	19152
904.863	19156
904.981	19004
905.098	18783
905.216	18821
905.334	18791
905.451	18875
905.569	18806
905.686	18810
905.803	18745
905.921	18589
906.038	18730
906.155	18642
906.272	18483
906.389	18555
906.506	18342
906.623	18448
906.74	18395
906.857	18163
906.974	18201
907.091	18467
907.208	18536
907.324	18384
907.441	18262
907.557	18045
907.674	18038
907.79	18125
907.907	18133
908.023	18152
908.139	18140
908.256	17961
908.372	17954
908.488	17927
908.604	17794
908.72	17710
908.836	17760
908.952	17790
909.068	17729
909.184	17980
909.3	17779
909.415	17737
909.531	17904
909.647	17528
909.762	17486
909.878	17535
909.993	17482
910.108	17391
910.224	17452
910.339	17421
910.454	17345
910.57	17292
910.685	17235
910.8	17497
910.915	17421
911.03	17197
911.145	17151
911.259	17025
911.374	17124
911.489	17018
911.604	16911
911.718	16793
911.833	16782
911.947	16774
912.062	16565
912.176	16820
912.291	16767
912.405	16820
912.519	16976
912.633	16984
912.748	16877
912.862	16736
912.976	16535
913.09	16527
913.204	16634
913.318	16554
913.431	16740
913.545	16649
913.659	16668
913.772	16535
913.886	16402
914	16390
914.113	16481
914.226	16474
914.34	16428
914.453	16238
914.566	16257
914.68	16265
914.793	16219
914.906	16120
915.019	15941
915.132	15911
915.245	15991
915.358	15972
915.47	16013
915.583	15949
915.696	15941
915.809	16093
915.921	16131
916.034	15854
916.146	15884
916.259	15808
916.371	15983
916.483	15915
916.595	15728
916.708	15739
916.82	15762
916.932	15785
917.044	15705
917.156	15736
917.268	15595
917.38	15633
917.491	15549
917.603	15618
917.715	15671
917.826	15580
917.938	15591
918.049	15393
918.161	15519
918.272	15728
918.384	15690
918.495	15526
918.606	15370
918.717	15313
918.828	15351
918.939	15378
919.05	15348
919.161	15359
919.272	15077
919.383	15119
919.494	15420
919.604	15424
919.715	15302
919.826	15272
919.936	15226
920.047	15351
920.157	15256
920.267	15504
920.378	15306
920.488	15233
920.598	15340
920.708	15526
920.818	15393
920.928	15359
921.038	15511
921.148	15435
921.258	15203
921.368	15222
921.477	14925
921.587	15036
921.697	14910
921.806	15047
921.916	14861
922.025	14579
922.134	14598
922.244	14636
922.353	14602
922.462	14473
922.571	14393
922.68	14278
922.789	14267
922.898	14320
923.007	14248
923.116	14313
923.224	14271
923.333	14271
923.442	14164
923.55	14065
923.659	14092
923.767	14134
923.876	13986
923.984	14107
924.092	13944
924.201	14035
924.309	14005
924.417	13951
924.525	13818
924.633	13944
924.741	14758
924.849	13742
924.956	13795
925.064	13651
925.172	13582
925.279	13636
925.387	13670
925.494	13620
925.602	13799
925.709	13723
925.816	13502
925.924	13544
926.031	13609
926.138	13533
926.245	13624
926.352	13502
926.459	13594
926.566	13628
926.673	13502
926.779	13354
926.886	13369
926.993	13190
927.099	13217
927.206	13072
927.312	13168
927.419	13187
927.525	13145
927.631	13107
927.737	12985
927.843	12852
927.95	12875
928.056	12970
928.162	13042
928.267	12996
928.373	13681
928.479	13053
928.585	12844
928.69	12958
928.796	13072
928.901	12817
929.007	12730
929.112	12840
929.218	12783
929.323	12703
929.428	12795
929.533	12779
929.638	12601
929.743	12654
929.848	12601
929.953	12662
930.058	12582
930.163	12388
930.267	12372
930.372	12540
930.477	12372
930.581	12555
930.685	12437
930.79	12277
930.894	12304
930.998	12190
931.103	12289
931.207	11992
931.311	11980
931.415	11840
931.519	11630
931.623	11562
