Data from test_V78500241_1881.txt Node
Date: Fri Mar 25 15:54:49 CST 2022
User: usil
Spectrometer: V785-0024
Trigger mode: 0
Integration Time (sec): 4.000000E-1
Scans to average: 1
Nonlinearity correction enabled: false
Boxcar width: 0
Storing dark spectrum: false
XAxis mode: Wavelengths
Number of Pixels in Spectrum: 1024
>>>>>Begin Spectral Data<<<<<
801.071	28462
801.214	28375
801.356	28219
801.499	28040
801.641	27930
801.783	27888
801.926	27979
802.068	27998
802.211	27899
802.353	27789
802.496	27648
802.638	27633
802.78	27606
802.923	27496
803.065	27538
803.208	27492
803.35	27656
803.492	27671
803.635	27869
803.777	27663
803.919	27831
804.061	28276
804.204	27895
804.346	27732
804.488	27732
804.63	27926
804.773	27778
804.915	27789
805.057	27968
805.199	27812
805.341	27930
805.483	28040
805.626	27998
805.768	27953
805.91	27949
806.052	27968
806.194	27846
806.336	28055
806.478	27934
806.62	28010
806.762	28223
806.904	28424
807.046	28405
807.188	28447
807.33	28531
807.472	28546
807.614	28337
807.756	28390
807.898	28261
808.04	28303
808.182	28238
808.324	28322
808.465	28303
808.607	28455
808.749	28615
808.891	28687
809.033	28839
809.174	28683
809.316	28660
809.458	28698
809.6	28550
809.741	28759
809.883	28877
810.025	28793
810.166	28927
810.308	28866
810.45	28923
810.591	28694
810.733	28557
810.875	28653
811.016	28569
811.158	28611
811.299	28653
811.441	28759
811.582	28596
811.724	28812
811.865	28706
812.007	28641
812.148	28607
812.29	28618
812.431	28839
812.573	28919
812.714	29105
812.855	29322
812.997	29322
813.138	29375
813.279	29337
813.421	29216
813.562	29299
813.703	29071
813.845	28854
813.986	28660
814.127	28538
814.268	28280
814.41	28489
814.551	28249
814.692	28261
814.833	28230
814.974	28367
815.115	28223
815.256	28306
815.397	28120
815.539	28101
815.68	27968
815.821	28040
815.962	28059
816.103	28105
816.244	27937
816.385	28093
816.526	27914
816.666	27827
816.807	27553
816.948	27709
817.089	27667
817.23	27652
817.371	27656
817.512	27549
817.653	27625
817.793	27610
817.934	27595
818.075	27625
818.216	27717
818.356	27549
818.497	27485
818.638	27450
818.778	27504
818.919	27473
819.06	27408
819.2	27515
819.341	27698
819.481	27614
819.622	27793
819.762	27865
819.903	27842
820.043	27918
820.184	27808
820.324	27869
820.465	27884
820.605	27717
820.746	27728
820.886	27762
821.026	27679
821.167	27800
821.307	27717
821.447	27629
821.588	27439
821.728	27450
821.868	27230
822.008	27176
822.149	27222
822.289	26975
822.429	26918
822.569	26788
822.709	26815
822.849	26606
822.99	26663
823.13	26632
823.27	26552
823.41	26453
823.55	26457
823.69	26530
823.83	26530
823.97	26336
824.11	26282
824.25	26351
824.389	26256
824.529	26377
824.669	26180
824.809	26412
824.949	26290
825.089	26412
825.228	26339
825.368	26126
825.508	26240
825.648	26138
825.787	26176
825.927	26164
826.067	26164
826.206	26138
826.346	26157
826.485	26176
826.625	26298
826.765	26187
826.904	26225
827.044	25970
827.183	26001
827.323	25712
827.462	25993
827.601	25822
827.741	25871
827.88	25757
828.02	25769
828.159	25833
828.298	26012
828.437	25883
828.577	25811
828.716	25833
828.855	25719
828.994	25563
829.134	25571
829.273	25601
829.412	25518
829.551	25544
829.69	25624
829.829	25590
829.968	25582
830.107	25662
830.246	25552
830.385	25518
830.524	25468
830.663	25407
830.802	25400
830.941	25179
831.08	25122
831.219	25301
831.357	25354
831.496	25308
831.635	25187
831.774	25088
831.913	25145
832.051	24992
832.19	24939
832.329	24863
832.467	24913
832.606	24890
832.744	24760
832.883	24928
833.022	24848
833.16	24844
833.299	24916
833.437	24897
833.576	24905
833.714	24810
833.852	24924
833.991	24951
834.129	24943
834.267	24886
834.406	24856
834.544	25000
834.682	24894
834.821	24741
834.959	25080
835.097	24909
835.235	25042
835.373	24886
835.511	24913
835.65	24802
835.788	24719
835.926	24627
836.064	24566
836.202	24654
836.34	24650
836.478	24738
836.615	24635
836.753	24700
836.891	24700
837.029	24559
837.167	24608
837.305	24726
837.443	24528
837.58	24471
837.718	24688
837.856	24521
837.993	24597
838.131	24555
838.269	24372
838.406	24483
838.544	24330
838.681	24174
838.819	24133
838.956	24064
839.094	24018
839.231	23954
839.369	24216
839.506	24323
839.643	24300
839.781	23999
839.918	23939
840.055	24068
840.193	23882
840.33	23870
840.467	23901
840.604	23923
840.742	24205
840.879	23851
841.016	23893
841.153	23760
841.29	24003
841.427	23958
841.564	23912
841.701	23927
841.838	23813
841.975	23836
842.112	23790
842.249	23729
842.385	23733
842.522	23999
842.659	23733
842.796	23710
842.933	23703
843.069	23661
843.206	23722
843.343	23707
843.479	23710
843.616	23707
843.752	23463
843.889	23490
844.025	23539
844.162	23467
844.298	23493
844.435	23376
844.571	23402
844.708	23520
844.844	23516
844.98	23554
845.117	23551
845.253	23410
845.389	23265
845.525	23368
845.661	23334
845.798	23277
845.934	23261
846.07	23128
846.206	23303
846.342	23330
846.478	23166
846.614	22942
846.75	22949
846.886	22919
847.022	23064
847.158	22858
847.294	22915
847.429	22938
847.565	22831
847.701	23003
847.837	22660
847.972	22599
848.108	22656
848.244	22736
848.379	22573
848.515	22478
848.65	22413
848.786	22634
848.921	22485
849.057	22478
849.192	22588
849.328	22596
849.463	22607
849.598	22447
849.734	22462
849.869	22306
850.004	22219
850.14	22344
850.275	22325
850.41	22196
850.545	22226
850.68	22204
850.815	22341
850.95	22322
851.085	22478
851.22	22348
851.355	22265
851.49	22310
851.625	22367
851.76	22333
851.895	22337
852.03	22090
852.165	22200
852.299	22322
852.434	22409
852.569	22333
852.703	22192
852.838	22341
852.973	22470
853.107	22379
853.242	22177
853.376	22097
853.511	21903
853.645	22059
853.78	22287
853.914	22116
854.048	21998
854.183	22101
854.317	22173
854.451	22249
854.585	22044
854.72	22090
854.854	22200
854.988	22078
855.122	22090
855.256	21857
855.39	22055
855.524	22185
855.658	22147
855.792	22181
855.926	22109
856.06	22242
856.194	22192
856.327	22090
856.461	22078
856.595	22074
856.729	22044
856.862	22253
856.996	22101
857.13	22044
857.263	22135
857.397	22265
857.53	22093
857.664	22120
857.797	22166
857.931	22162
858.064	22120
858.197	22242
858.331	21994
858.464	21945
858.597	21949
858.731	22131
858.864	22188
858.997	22021
859.13	22116
859.263	22105
859.396	22128
859.529	21972
859.662	22036
859.795	22082
859.928	22162
860.061	22246
860.194	22310
860.327	22090
860.46	22192
860.592	22348
860.725	22306
860.858	22196
860.99	22109
861.123	22059
861.256	22086
861.388	22025
861.521	22885
861.653	21800
861.786	21838
861.918	22029
862.05	22040
862.183	21861
862.315	22078
862.447	22021
862.58	22040
862.712	21789
862.844	21778
862.976	21823
863.108	21873
863.24	22135
863.372	21793
863.504	21915
863.636	21842
863.768	21949
863.9	21812
864.032	21743
864.164	21831
864.296	21766
864.428	21911
864.559	21816
864.691	21838
864.823	21789
864.954	21682
865.086	21709
865.217	21656
865.349	21755
865.48	21561
865.612	21675
865.743	21781
865.875	21766
866.006	21629
866.137	21709
866.269	21698
866.4	21663
866.531	21644
866.662	21580
866.793	21603
866.924	21789
867.055	21583
867.186	21682
867.317	21515
867.448	21564
867.579	21583
867.71	21420
867.841	21511
867.972	21690
868.103	21591
868.233	21583
868.364	21583
868.495	21717
868.625	21842
868.756	21918
868.886	21671
869.017	21808
869.147	21884
869.278	22032
869.408	21964
869.539	21865
869.669	21907
869.799	21831
869.929	21975
870.06	21941
870.19	22147
870.32	22044
870.45	22261
870.58	22314
870.71	22352
870.84	22367
870.97	22162
871.1	22177
871.23	22527
871.36	22474
871.489	22348
871.619	22402
871.749	22413
871.879	22455
872.008	22588
872.138	22436
872.267	22417
872.397	22341
872.526	22238
872.656	22249
872.785	22360
872.915	22459
873.044	22660
873.173	22557
873.303	22481
873.432	22523
873.561	22538
873.69	22596
873.819	22493
873.948	22531
874.077	22481
874.206	22542
874.335	22523
874.464	22497
874.593	22675
874.722	22653
874.851	22755
874.979	22725
875.108	22854
875.237	22801
875.365	22618
875.494	22607
875.623	22713
875.751	22664
875.88	22634
876.008	22843
876.136	23022
876.265	23143
876.393	23216
876.521	23056
876.65	23113
876.778	23098
876.906	23029
877.034	23029
877.162	23128
877.29	23079
877.418	23048
877.546	23109
877.674	23090
877.802	23075
877.93	23075
878.058	22934
878.185	22930
878.313	22900
878.441	23037
878.568	22961
878.696	22961
878.824	23029
878.951	23303
879.079	23239
879.206	23356
879.333	23277
879.461	23117
879.588	23128
879.715	23288
879.842	23265
879.97	23132
880.097	22900
880.224	22972
880.351	22961
880.478	22824
880.605	22892
880.732	22816
880.859	23113
880.986	22790
881.112	22854
881.239	22679
881.366	22603
881.493	22615
881.619	22348
881.746	22462
881.872	22421
881.999	22314
882.125	22344
882.252	22341
882.378	22329
882.505	22497
882.631	22310
882.757	22169
882.883	22166
883.01	21975
883.136	22112
883.262	22013
883.388	21915
883.514	22166
883.64	22040
883.766	21994
883.892	21918
884.018	21922
884.143	22112
884.269	22059
884.395	21835
884.52	21728
884.646	21823
884.772	21603
884.897	21667
885.023	21694
885.148	21850
885.274	21873
885.399	22032
885.524	21747
885.65	21717
885.775	21850
885.9	21732
886.025	21994
886.15	21880
886.275	21812
886.4	21652
886.525	21675
886.65	21660
886.775	21610
886.9	21793
887.025	21964
887.149	21808
887.274	21580
887.399	21481
887.523	21469
887.648	21317
887.773	21408
887.897	21549
888.021	21637
888.146	21370
888.27	21447
888.395	21583
888.519	21431
888.643	21443
888.767	21606
888.891	21466
889.015	21237
889.139	21389
889.263	21279
889.387	21401
889.511	21408
889.635	21435
889.759	21332
889.883	21184
890.006	21325
890.13	21401
890.254	21230
890.377	21272
890.501	21119
890.624	21070
890.748	21043
890.871	20906
890.995	20785
891.118	20792
891.241	20883
891.364	20910
891.488	21032
891.611	20925
891.734	20819
891.857	20849
891.98	20811
892.103	20853
892.226	20902
892.349	20872
892.471	20644
892.594	20632
892.717	20796
892.839	20762
892.962	20686
893.085	20857
893.207	20636
893.33	20731
893.452	20655
893.575	20788
893.697	20743
893.819	20914
893.941	20986
894.064	20838
894.186	20720
894.308	20663
894.43	20815
894.552	20773
894.674	20807
894.796	20606
894.918	20716
895.04	20811
895.161	20811
895.283	20746
895.405	20705
895.526	20758
895.648	20754
895.769	20746
895.891	20754
896.012	20861
896.134	20785
896.255	20743
896.376	20686
896.498	20781
896.619	20739
896.74	20800
896.861	20731
896.982	21070
897.103	21146
897.224	20990
897.345	20986
897.466	20899
897.587	20918
897.708	21020
897.828	20899
897.949	21001
898.07	20754
898.19	20849
898.311	20979
898.431	20902
898.552	20891
898.672	21043
898.792	20933
898.913	20967
899.033	20838
899.153	20621
899.273	20686
899.393	20663
899.513	20804
899.633	20670
899.753	20682
899.873	20632
899.993	20678
900.113	20556
900.232	20686
900.352	20621
900.472	20541
900.591	20404
900.711	20385
900.83	20484
900.95	20552
901.069	20617
901.189	20313
901.308	20202
901.427	20001
901.546	19955
901.665	20035
901.784	20020
901.904	20024
902.023	19909
902.141	19662
902.26	19552
902.379	19651
902.498	19571
902.617	19624
902.735	19575
902.854	19499
902.973	19457
903.091	19145
903.21	19236
903.328	19110
903.446	19107
903.565	18985
903.683	18981
903.801	18916
903.919	18943
904.038	19000
904.156	18882
904.274	18856
904.392	18707
904.51	18715
904.627	18768
904.745	18776
904.863	18791
904.981	18604
905.098	18506
905.216	18456
905.334	18513
905.451	18410
905.569	18410
905.686	18490
905.803	18464
905.921	18129
906.038	18372
906.155	18224
906.272	18110
906.389	18167
906.506	17999
906.623	18022
906.74	17927
906.857	17866
906.974	17794
907.091	17988
907.208	18007
907.324	17889
907.441	17939
907.557	17684
907.674	17558
907.79	17634
907.907	17600
908.023	17687
908.139	17596
908.256	17596
908.372	17642
908.488	17524
908.604	17353
908.72	17356
908.836	17402
908.952	17315
909.068	17421
909.184	17471
909.3	17387
909.415	17402
909.531	17417
909.647	17033
909.762	17022
909.878	17147
909.993	17155
910.108	17147
910.224	17018
910.339	17109
910.454	16991
910.57	16881
910.685	16923
910.8	16946
910.915	17052
911.03	16744
911.145	16809
911.259	16668
911.374	16721
911.489	16618
911.604	16497
911.718	16382
911.833	16478
911.947	16367
912.062	16272
912.176	16443
912.291	16508
912.405	16447
912.519	16512
912.633	16531
912.748	16421
912.862	16413
912.976	16230
913.09	16040
913.204	16158
913.318	16367
913.431	16234
913.545	16306
913.659	16352
913.772	16196
913.886	16078
914	16048
914.113	16029
914.226	16188
914.34	15934
914.453	15850
914.566	16071
914.68	15884
914.793	15838
914.906	15599
915.019	15614
915.132	15568
915.245	15629
915.358	15553
915.47	15584
915.583	15576
915.696	15667
915.809	15728
915.921	15797
916.034	15561
916.146	15507
916.259	15458
916.371	15648
916.483	15572
916.595	15431
916.708	15424
916.82	15481
916.932	15325
917.044	15492
917.156	15291
917.268	15275
917.38	15275
917.491	15184
917.603	15283
917.715	15336
917.826	15283
917.938	15097
918.049	15116
918.161	15154
918.272	15340
918.384	15302
918.495	15176
918.606	15032
918.717	14979
918.828	14998
918.939	15028
919.05	14910
919.161	14944
919.272	14830
919.383	14815
919.494	14990
919.604	15161
919.715	15055
919.826	14925
919.936	15055
920.047	15017
920.157	14906
920.267	15138
920.378	14982
920.488	14986
920.598	15165
920.708	15272
920.818	15089
920.928	15131
921.038	15256
921.148	15184
921.258	14975
921.368	14849
921.477	14583
921.587	14587
921.697	14571
921.806	14724
921.916	14560
922.025	14343
922.134	14282
922.244	14298
922.353	14423
922.462	14343
922.571	14168
922.68	14001
922.789	14008
922.898	13970
923.007	13902
923.116	14020
923.224	14062
923.333	13913
923.442	13887
923.55	13784
923.659	13818
923.767	13852
923.876	13750
923.984	13864
924.092	13662
924.201	13647
924.309	13742
924.417	13601
924.525	13639
924.633	13571
924.741	14370
924.849	13415
924.956	13537
925.064	13407
925.172	13327
925.279	13434
925.387	13426
925.494	13377
925.602	13548
925.709	13559
925.816	13259
925.924	13426
926.031	13476
926.138	13236
926.245	13225
926.352	13095
926.459	13320
926.566	13400
926.673	13297
926.779	13076
926.886	13141
926.993	12913
927.099	12856
927.206	12840
927.312	12844
927.419	12966
927.525	12886
927.631	12920
927.737	12791
927.843	12757
927.95	12662
928.056	12730
928.162	12795
928.267	12749
928.373	13358
928.479	12791
928.585	12623
928.69	12642
928.796	12719
928.901	12536
929.007	12483
929.112	12623
929.218	12536
929.323	12498
929.428	12433
929.533	12597
929.638	12327
929.743	12429
929.848	12490
929.953	12296
930.058	12220
930.163	12087
930.267	12186
930.372	12262
930.477	12136
930.581	12353
930.685	12197
930.79	12068
930.894	12045
930.998	12034
931.103	12019
931.207	11710
931.311	11805
931.415	11634
931.519	11360
931.623	11497
