Data from test_V78500241_2246.txt Node
Date: Fri Mar 25 15:57:21 CST 2022
User: usil
Spectrometer: V785-0024
Trigger mode: 0
Integration Time (sec): 4.000000E-1
Scans to average: 1
Nonlinearity correction enabled: false
Boxcar width: 0
Storing dark spectrum: false
XAxis mode: Wavelengths
Number of Pixels in Spectrum: 1024
>>>>>Begin Spectral Data<<<<<
801.071	28725
801.214	28778
801.356	28531
801.499	28519
801.641	28310
801.783	28360
801.926	28466
802.068	28466
802.211	28314
802.353	28234
802.496	28188
802.638	28109
802.78	28128
802.923	28097
803.065	28078
803.208	28086
803.35	28147
803.492	28322
803.635	28291
803.777	28173
803.919	28303
804.061	28599
804.204	28417
804.346	28196
804.488	28303
804.63	28280
804.773	28185
804.915	28523
805.057	28390
805.199	28401
805.341	28504
805.483	28569
805.626	28417
805.768	28409
805.91	28443
806.052	28672
806.194	28367
806.336	28596
806.478	28466
806.62	28474
806.762	28634
806.904	28786
807.046	29010
807.188	28892
807.33	28877
807.472	29113
807.614	29041
807.756	28946
807.898	28927
808.04	28828
808.182	28759
808.324	28854
808.465	28934
808.607	29174
808.749	29284
808.891	29334
809.033	29356
809.174	29417
809.316	29330
809.458	29292
809.6	29147
809.741	29326
809.883	29345
810.025	29531
810.166	29509
810.308	29410
810.45	29463
810.591	29482
810.733	29227
810.875	29239
811.016	29117
811.158	29151
811.299	29296
811.441	29433
811.582	29341
811.724	29189
811.865	29303
812.007	29364
812.148	29334
812.29	29395
812.431	29402
812.573	29630
812.714	29718
812.855	29676
812.997	29786
813.138	29988
813.279	29745
813.421	29752
813.562	29718
813.703	29554
813.845	29421
813.986	29189
814.127	29162
814.268	28999
814.41	29010
814.551	28942
814.692	29060
814.833	28885
814.974	28812
815.115	28934
815.256	28850
815.397	28828
815.539	28774
815.68	28668
815.821	28706
815.962	28713
816.103	28805
816.244	28683
816.385	28557
816.526	28554
816.666	28443
816.807	28348
816.948	28284
817.089	28322
817.23	28162
817.371	28242
817.512	28215
817.653	28207
817.793	28280
817.934	28303
818.075	28223
818.216	28348
818.356	28192
818.497	28265
818.638	28097
818.778	28006
818.919	28002
819.06	28143
819.2	28177
819.341	28337
819.481	28246
819.622	28314
819.762	28683
819.903	28607
820.043	28386
820.184	28428
820.324	28436
820.465	28485
820.605	28325
820.746	28375
820.886	28181
821.026	28344
821.167	28284
821.307	28379
821.447	28223
821.588	28158
821.728	27998
821.868	27991
822.008	27884
822.149	27781
822.289	27713
822.429	27511
822.569	27427
822.709	27408
822.849	27298
822.99	27325
823.13	27279
823.27	27249
823.41	27127
823.55	26891
823.69	27165
823.83	27154
823.97	27150
824.11	26823
824.25	26792
824.389	26906
824.529	27024
824.669	27020
824.809	26979
824.949	27055
825.089	27013
825.228	26952
825.368	26781
825.508	26739
825.648	26868
825.787	26914
825.927	26914
826.067	26872
826.206	26815
826.346	26785
826.485	26792
826.625	26849
826.765	26918
826.904	26765
827.044	26587
827.183	26590
827.323	26541
827.462	26556
827.601	26686
827.741	26431
827.88	26511
828.02	26427
828.159	26511
828.298	26377
828.437	26499
828.577	26438
828.716	26541
828.855	26362
828.994	26122
829.134	26347
829.273	26214
829.412	26058
829.551	26214
829.69	26263
829.829	26332
829.968	26259
830.107	26225
830.246	26221
830.385	26161
830.524	26077
830.663	25837
830.802	25997
830.941	25811
831.08	25765
831.219	25818
831.357	25852
831.496	25986
831.635	25799
831.774	25704
831.913	25696
832.051	25594
832.19	25571
832.329	25613
832.467	25552
832.606	25396
832.744	25476
832.883	25331
833.022	25343
833.16	25460
833.299	25445
833.437	25548
833.576	25510
833.714	25559
833.852	25666
833.991	25533
834.129	25639
834.267	25537
834.406	25430
834.544	25491
834.682	25529
834.821	25419
834.959	25769
835.097	25609
835.235	25643
835.373	25632
835.511	25483
835.65	25365
835.788	25354
835.926	25316
836.064	25282
836.202	25228
836.34	25369
836.478	25491
836.615	25312
836.753	25327
836.891	25403
837.029	25426
837.167	25324
837.305	25247
837.443	25266
837.58	25179
837.718	25308
837.856	25270
837.993	25107
838.131	25015
838.269	25046
838.406	24913
838.544	24966
838.681	24798
838.819	24620
838.956	24612
839.094	24684
839.231	24696
839.369	24840
839.506	25015
839.643	24715
839.781	24597
839.918	24559
840.055	24692
840.193	24559
840.33	24528
840.467	24494
840.604	24612
840.742	24924
840.879	24445
841.016	24445
841.153	24414
841.29	24570
841.427	24604
841.564	24661
841.701	24654
841.838	24433
841.975	24433
842.112	24460
842.249	24346
842.385	24388
842.522	24559
842.659	24414
842.796	24334
842.933	24235
843.069	24235
843.206	24254
843.343	24323
843.479	24247
843.616	24289
843.752	24087
843.889	24079
844.025	24129
844.162	24091
844.298	24174
844.435	24125
844.571	23923
844.708	24087
844.844	24254
844.98	24216
845.117	24163
845.253	23942
845.389	23961
845.525	23946
845.661	23889
845.798	23786
845.934	24018
846.07	23691
846.206	23767
846.342	23847
846.478	23680
846.614	23589
846.75	23448
846.886	23516
847.022	23611
847.158	23490
847.294	23471
847.429	23501
847.565	23493
847.701	23840
847.837	23296
847.972	23292
848.108	23391
848.244	23299
848.379	23124
848.515	23048
848.65	23162
848.786	23022
848.921	23109
849.057	23155
849.192	23204
849.328	23048
849.463	23128
849.598	23003
849.734	23056
849.869	22930
850.004	22854
850.14	23048
850.275	22847
850.41	22889
850.545	22786
850.68	22824
850.815	22900
850.95	22938
851.085	23010
851.22	23022
851.355	22896
851.49	22824
851.625	22877
851.76	22904
851.895	22691
852.03	22809
852.165	22904
852.299	22904
852.434	22991
852.569	22850
852.703	22797
852.838	22885
852.973	23018
853.107	22965
853.242	22763
853.376	22763
853.511	22493
853.645	22691
853.78	22801
853.914	22683
854.048	22664
854.183	22588
854.317	22694
854.451	22900
854.585	22793
854.72	22634
854.854	22847
854.988	22577
855.122	22683
855.256	22660
855.39	22668
855.524	22706
855.658	22824
855.792	22725
855.926	22755
856.06	22736
856.194	22801
856.327	22618
856.461	22569
856.595	22577
856.729	22763
856.862	22710
856.996	22710
857.13	22687
857.263	22801
857.397	22816
857.53	22717
857.664	22679
857.797	22824
857.931	22740
858.064	22763
858.197	22778
858.331	22679
858.464	22577
858.597	22584
858.731	22679
858.864	22603
858.997	22607
859.13	22755
859.263	22725
859.396	22759
859.529	22691
859.662	22656
859.795	22706
859.928	22706
860.061	22828
860.194	22892
860.327	22713
860.46	22660
860.592	22733
860.725	22930
860.858	22850
860.99	22588
861.123	22744
861.256	22729
861.388	22790
861.521	23406
861.653	22565
861.786	22504
861.918	22580
862.05	22622
862.183	22592
862.315	22725
862.447	22584
862.58	22592
862.712	22459
862.844	22405
862.976	22504
863.108	22455
863.24	22839
863.372	22280
863.504	22390
863.636	22268
863.768	22500
863.9	22371
864.032	22318
864.164	22481
864.296	22421
864.428	22489
864.559	22493
864.691	22516
864.823	22413
864.954	22478
865.086	22363
865.217	22299
865.349	22162
865.48	22169
865.612	22207
865.743	22204
865.875	22329
866.006	22223
866.137	22299
866.269	22204
866.4	22223
866.531	22249
866.662	22128
866.793	22154
866.924	22238
867.055	22185
867.186	22211
867.317	22204
867.448	22048
867.579	22150
867.71	22112
867.841	22215
867.972	22295
868.103	22162
868.233	22185
868.364	22268
868.495	22265
868.625	22504
868.756	22470
868.886	22432
869.017	22402
869.147	22561
869.278	22466
869.408	22519
869.539	22371
869.669	22577
869.799	22443
869.929	22561
870.06	22443
870.19	22740
870.32	22641
870.45	22774
870.58	22786
870.71	22797
870.84	22938
870.97	22938
871.1	22904
871.23	23010
871.36	22968
871.489	22839
871.619	22972
871.749	23006
871.879	23022
872.008	23071
872.138	23041
872.267	22934
872.397	22877
872.526	22820
872.656	22889
872.785	22797
872.915	23174
873.044	23147
873.173	23079
873.303	22934
873.432	23086
873.561	23102
873.69	23037
873.819	23033
873.948	23170
874.077	23212
874.206	22934
874.335	22847
874.464	23208
874.593	23254
874.722	23212
874.851	23341
874.979	23292
875.108	23337
875.237	23296
875.365	23117
875.494	23246
875.623	23284
875.751	23292
875.88	23204
876.008	23387
876.136	23414
876.265	23695
876.393	23703
876.521	23722
876.65	23646
876.778	23547
876.906	23501
877.034	23581
877.162	23619
877.29	23566
877.418	23592
877.546	23551
877.674	23657
877.802	23600
877.93	23547
878.058	23570
878.185	23433
878.313	23535
878.441	23566
878.568	23410
878.696	23455
878.824	23672
878.951	23695
879.079	23828
879.206	23969
879.333	23809
879.461	23581
879.588	23771
879.715	23767
879.842	23901
879.97	23646
880.097	23345
880.224	23372
880.351	23482
880.478	23322
880.605	23471
880.732	23493
880.859	23509
880.986	23391
881.112	23429
881.239	23337
881.366	23102
881.493	23151
881.619	23033
881.746	22984
881.872	23067
881.999	22923
882.125	22790
882.252	23006
882.378	22987
882.505	23044
882.631	22896
882.757	22733
882.883	22721
883.01	22546
883.136	22618
883.262	22615
883.388	22569
883.514	22615
883.64	22759
883.766	22584
883.892	22432
884.018	22546
884.143	22443
884.269	22706
884.395	22413
884.52	22246
884.646	22299
884.772	22211
884.897	22101
885.023	22303
885.148	22386
885.274	22485
885.399	22398
885.524	22367
885.65	22268
885.775	22230
885.9	22177
886.025	22375
886.15	22367
886.275	22143
886.4	22166
886.525	22207
886.65	22055
886.775	22207
886.9	22318
887.025	22478
887.149	22219
887.274	22105
887.399	22090
887.523	21865
887.648	21968
887.773	21884
887.897	21994
888.021	21998
888.146	22067
888.27	22166
888.395	22112
888.519	22124
888.643	22051
888.767	22040
888.891	21945
889.015	21850
889.139	21823
889.263	21789
889.387	21785
889.511	21899
889.635	22006
889.759	21732
889.883	21766
890.006	21778
890.13	21968
890.254	21736
890.377	21816
890.501	21701
890.624	21557
890.748	21656
890.871	21424
890.995	21260
891.118	21454
891.241	21389
891.364	21302
891.488	21526
891.611	21420
891.734	21306
891.857	21473
891.98	21469
892.103	21401
892.226	21431
892.349	21272
892.471	21028
892.594	21272
892.717	21272
892.839	21214
892.962	21283
893.085	21401
893.207	21180
893.33	21142
893.452	21009
893.575	21302
893.697	21192
893.819	21332
893.941	21405
894.064	21382
894.186	21135
894.308	21119
894.43	21416
894.552	21348
894.674	21443
894.796	21165
894.918	21173
895.04	21108
895.161	21378
895.283	21173
895.405	21009
895.526	21119
895.648	21222
895.769	21230
895.891	21321
896.012	21211
896.134	21313
896.255	21192
896.376	21062
896.498	21214
896.619	21462
896.74	21302
896.861	21214
896.982	21526
897.103	21720
897.224	21469
897.345	21397
897.466	21374
897.587	21397
897.708	21511
897.828	21534
897.949	21435
898.07	21268
898.19	21317
898.311	21447
898.431	21348
898.552	21348
898.672	21583
898.792	21622
898.913	21496
899.033	21249
899.153	21127
899.273	21176
899.393	21066
899.513	21218
899.633	21161
899.753	21138
899.873	21123
899.993	21112
900.113	21055
900.232	21108
900.352	21055
900.472	20944
900.591	20921
900.711	20857
900.83	20925
900.95	20944
901.069	20929
901.189	20864
901.308	20579
901.427	20370
901.546	20473
901.665	20450
901.784	20594
901.904	20263
902.023	20199
902.141	20012
902.26	20103
902.379	20062
902.498	19940
902.617	19967
902.735	19955
902.854	19967
902.973	19734
903.091	19685
903.21	19708
903.328	19742
903.446	19548
903.565	19529
903.683	19434
903.801	19217
903.919	19198
904.038	19343
904.156	19145
904.274	19175
904.392	19225
904.51	19244
904.627	19228
904.745	19301
904.863	19240
904.981	18993
905.098	18935
905.216	18837
905.334	18878
905.451	18916
905.569	18863
905.686	18905
905.803	18916
905.921	18570
906.038	18745
906.155	18703
906.272	18608
906.389	18631
906.506	18437
906.623	18448
906.74	18403
906.857	18235
906.974	18220
907.091	18372
907.208	18684
907.324	18376
907.441	18235
907.557	18167
907.674	18110
907.79	18079
907.907	17999
908.023	18114
908.139	18030
908.256	18060
908.372	18053
908.488	18003
908.604	17783
908.72	17771
908.836	17832
908.952	17809
909.068	17805
909.184	17828
909.3	17779
909.415	17748
909.531	17863
909.647	17543
909.762	17448
909.878	17448
909.993	17467
910.108	17364
910.224	17452
910.339	17501
910.454	17356
910.57	17395
910.685	17143
910.8	17562
910.915	17448
911.03	17299
911.145	17102
911.259	17189
911.374	17060
911.489	17064
911.604	16919
911.718	16850
911.833	16831
911.947	16755
912.062	16588
912.176	16782
912.291	16812
912.405	16854
912.519	16927
912.633	17056
912.748	16843
912.862	16748
912.976	16725
913.09	16615
913.204	16519
913.318	16634
913.431	16653
913.545	16626
913.659	16641
913.772	16493
913.886	16489
914	16390
914.113	16577
914.226	16497
914.34	16447
914.453	16322
914.566	16413
914.68	16219
914.793	16284
914.906	16071
915.019	15998
915.132	15884
915.245	16013
915.358	15953
915.47	15960
915.583	16029
915.696	16013
915.809	16032
915.921	16059
916.034	15960
916.146	15831
916.259	15816
916.371	15975
916.483	15842
916.595	15827
916.708	15880
916.82	15854
916.932	15698
917.044	15774
917.156	15709
917.268	15641
917.38	15622
917.491	15538
917.603	15698
917.715	15637
917.826	15690
917.938	15595
918.049	15424
918.161	15534
918.272	15618
918.384	15633
918.495	15428
918.606	15405
918.717	15351
918.828	15329
918.939	15374
919.05	15154
919.161	15435
919.272	15226
919.383	15173
919.494	15302
919.604	15431
919.715	15306
919.826	15272
919.936	15214
920.047	15389
920.157	15287
920.267	15458
920.378	15252
920.488	15351
920.598	15428
920.708	15576
920.818	15412
920.928	15416
921.038	15515
921.148	15466
921.258	15192
921.368	15116
921.477	15009
921.587	15055
921.697	14838
921.806	15089
921.916	14891
922.025	14682
922.134	14629
922.244	14644
922.353	14632
922.462	14518
922.571	14533
922.68	14374
922.789	14286
922.898	14286
923.007	14210
923.116	14275
923.224	14301
923.333	14221
923.442	14183
923.55	14100
923.659	14103
923.767	14199
923.876	14005
923.984	14142
924.092	13955
924.201	14153
924.309	13997
924.417	14027
924.525	13997
924.633	13890
924.741	14667
924.849	13681
924.956	13864
925.064	13708
925.172	13597
925.279	13616
925.387	13674
925.494	13590
925.602	13837
925.709	13670
925.816	13552
925.924	13548
926.031	13681
926.138	13491
926.245	13578
926.352	13449
926.459	13655
926.566	13632
926.673	13487
926.779	13354
926.886	13457
926.993	13274
927.099	13129
927.206	13221
927.312	13103
927.419	13247
927.525	13232
927.631	13183
927.737	13031
927.843	13019
927.95	12905
928.056	13031
928.162	13038
928.267	13053
928.373	13628
928.479	13076
928.585	12909
928.69	12973
928.796	12966
928.901	12913
929.007	12688
929.112	12871
929.218	12840
929.323	12764
929.428	12764
929.533	12829
929.638	12593
929.743	12700
929.848	12669
929.953	12726
930.058	12551
930.163	12494
930.267	12479
930.372	12563
930.477	12330
930.581	12551
930.685	12437
930.79	12292
930.894	12273
930.998	12262
931.103	12376
931.207	12068
931.311	11992
931.415	11897
931.519	11748
931.623	11714
