Data from test_V78500241_1332.txt Node
Date: Fri Mar 25 15:51:01 CST 2022
User: usil
Spectrometer: V785-0024
Trigger mode: 0
Integration Time (sec): 4.000000E-1
Scans to average: 1
Nonlinearity correction enabled: false
Boxcar width: 0
Storing dark spectrum: false
XAxis mode: Wavelengths
Number of Pixels in Spectrum: 1024
>>>>>Begin Spectral Data<<<<<
801.071	28223
801.214	28109
801.356	27903
801.499	27656
801.641	27701
801.783	27774
801.926	27690
802.068	27724
802.211	27561
802.353	27656
802.496	27435
802.638	27306
802.78	27256
802.923	27310
803.065	27260
803.208	27287
803.35	27283
803.492	27332
803.635	27633
803.777	27378
803.919	27500
804.061	27739
804.204	27603
804.346	27466
804.488	27416
804.63	27492
804.773	27427
804.915	27496
805.057	27629
805.199	27580
805.341	27603
805.483	27709
805.626	27732
805.768	27504
805.91	27637
806.052	27625
806.194	27587
806.336	27930
806.478	27808
806.62	27743
806.762	27835
806.904	27888
807.046	28059
807.188	28040
807.33	28135
807.472	28120
807.614	28173
807.756	27960
807.898	27876
808.04	27911
808.182	27941
808.324	28051
808.465	28025
808.607	28249
808.749	28401
808.891	28325
809.033	28493
809.174	28440
809.316	28295
809.458	28322
809.6	28268
809.741	28344
809.883	28538
810.025	28759
810.166	28535
810.308	28565
810.45	28569
810.591	28535
810.733	28470
810.875	28238
811.016	28310
811.158	28314
811.299	28523
811.441	28546
811.582	28554
811.724	28238
811.865	28280
812.007	28291
812.148	28360
812.29	28386
812.431	28375
812.573	28653
812.714	28596
812.855	28866
812.997	28835
813.138	29056
813.279	28923
813.421	28987
813.562	28820
813.703	28653
813.845	28675
813.986	28238
814.127	28124
814.268	27926
814.41	28147
814.551	27991
814.692	28055
814.833	27960
814.974	27983
815.115	28055
815.256	27854
815.397	27873
815.539	27804
815.68	27842
815.821	27739
815.962	27827
816.103	27838
816.244	27599
816.385	27530
816.526	27641
816.666	27279
816.807	27424
816.948	27237
817.089	27511
817.23	27317
817.371	27351
817.512	27279
817.653	27351
817.793	27256
817.934	27287
818.075	27302
818.216	27401
818.356	27272
818.497	27184
818.638	27123
818.778	26918
818.919	27108
819.06	27176
819.2	27165
819.341	27214
819.481	27416
819.622	27447
819.762	27682
819.903	27572
820.043	27538
820.184	27340
820.324	27469
820.465	27500
820.605	27439
820.746	27511
820.886	27237
821.026	27408
821.167	27401
821.307	27485
821.447	27359
821.588	27241
821.728	27199
821.868	26906
822.008	26834
822.149	26750
822.289	26785
822.429	26571
822.569	26530
822.709	26438
822.849	26339
822.99	26393
823.13	26267
823.27	26218
823.41	26149
823.55	26107
823.69	26073
823.83	26176
823.97	26069
824.11	25868
824.25	25932
824.389	26054
824.529	26119
824.669	25997
824.809	26073
824.949	26024
825.089	26031
825.228	26005
825.368	25734
825.508	25864
825.648	25830
825.787	25830
825.927	26001
826.067	25795
826.206	25864
826.346	25936
826.485	25936
826.625	25772
826.765	25875
826.904	25883
827.044	25628
827.183	25506
827.323	25518
827.462	25521
827.601	25586
827.741	25521
827.88	25582
828.02	25438
828.159	25495
828.298	25499
828.437	25670
828.577	25407
828.716	25590
828.855	25464
828.994	25247
829.134	25228
829.273	25225
829.412	25244
829.551	25183
829.69	25270
829.829	25324
829.968	25327
830.107	25339
830.246	25259
830.385	25099
830.524	25141
830.663	25012
830.802	24863
830.941	24856
831.08	24795
831.219	24897
831.357	24817
831.496	25126
831.635	24795
831.774	24829
831.913	24646
832.051	24703
832.19	24631
832.329	24665
832.467	24479
832.606	24429
832.744	24429
832.883	24528
833.022	24536
833.16	24593
833.299	24620
833.437	24608
833.576	24540
833.714	24585
833.852	24604
833.991	24517
834.129	24700
834.267	24551
834.406	24517
834.544	24601
834.682	24570
834.821	24589
834.959	24616
835.097	24475
835.235	24631
835.373	24525
835.511	24471
835.65	24365
835.788	24422
835.926	24266
836.064	24178
836.202	24277
836.34	24433
836.478	24559
836.615	24376
836.753	24376
836.891	24483
837.029	24414
837.167	24350
837.305	24300
837.443	24273
837.58	24258
837.718	24395
837.856	24327
837.993	24068
838.131	24296
838.269	24003
838.406	24026
838.544	24011
838.681	23942
838.819	23874
838.956	23756
839.094	23737
839.231	23813
839.369	23771
839.506	24110
839.643	23802
839.781	23741
839.918	23680
840.055	23596
840.193	23634
840.33	23573
840.467	23596
840.604	23672
840.742	23961
840.879	23482
841.016	23687
841.153	23299
841.29	23771
841.427	23452
841.564	23516
841.701	23467
841.838	23646
841.975	23535
842.112	23455
842.249	23516
842.385	23364
842.522	23482
842.659	23471
842.796	23429
842.933	23391
843.069	23235
843.206	23220
843.343	23356
843.479	23402
843.616	23353
843.752	23033
843.889	23216
844.025	23200
844.162	23174
844.298	23326
844.435	23056
844.571	23071
844.708	23151
844.844	23242
844.98	23398
845.117	23189
845.253	23174
845.389	22976
845.525	23109
845.661	23056
845.798	22972
845.934	22957
846.07	22831
846.206	22961
846.342	22987
846.478	22934
846.614	22653
846.75	22443
846.886	22641
847.022	22774
847.158	22641
847.294	22538
847.429	22493
847.565	22516
847.701	22790
847.837	22322
847.972	22356
848.108	22478
848.244	22417
848.379	22211
848.515	22192
848.65	22226
848.786	22280
848.921	22135
849.057	22280
849.192	22303
849.328	22257
849.463	22246
849.598	22219
849.734	22150
849.869	21960
850.004	22036
850.14	22036
850.275	21991
850.41	21884
850.545	21850
850.68	21991
850.815	21945
850.95	21827
851.085	22192
851.22	22093
851.355	21846
851.49	21968
851.625	21873
851.76	21945
851.895	21915
852.03	21915
852.165	22048
852.299	21972
852.434	21991
852.569	22029
852.703	21972
852.838	21991
852.973	22032
853.107	22067
853.242	21934
853.376	21895
853.511	21580
853.645	21625
853.78	21850
853.914	21869
854.048	21766
854.183	21785
854.317	21819
854.451	21930
854.585	21682
854.72	21682
854.854	21679
854.988	21724
855.122	21808
855.256	21671
855.39	21682
855.524	21846
855.658	21747
855.792	21732
855.926	21930
856.06	21808
856.194	21968
856.327	21835
856.461	21698
856.595	21660
856.729	21667
856.862	21911
856.996	21831
857.13	21884
857.263	21804
857.397	21793
857.53	21724
857.664	21831
857.797	21850
857.931	21937
858.064	21732
858.197	21892
858.331	21774
858.464	21705
858.597	21564
858.731	21656
858.864	21644
858.997	21614
859.13	21774
859.263	21739
859.396	21934
859.529	21762
859.662	21690
859.795	21797
859.928	21781
860.061	21884
860.194	21994
860.327	21888
860.46	21766
860.592	21873
860.725	21895
860.858	21850
860.99	21701
861.123	21759
861.256	21648
861.388	21709
861.521	22318
861.653	21481
861.786	21701
861.918	21705
862.05	21644
862.183	21606
862.315	21599
862.447	21644
862.58	21564
862.712	21591
862.844	21428
862.976	21519
863.108	21504
863.24	21865
863.372	21435
863.504	21435
863.636	21424
863.768	21454
863.9	21526
864.032	21317
864.164	21374
864.296	21466
864.428	21561
864.559	21523
864.691	21587
864.823	21370
864.954	21515
865.086	21526
865.217	21469
865.349	21340
865.48	21306
865.612	21408
865.743	21580
865.875	21355
866.006	21256
866.137	21264
866.269	21393
866.4	21329
866.531	21332
866.662	21306
866.793	21291
866.924	21161
867.055	21439
867.186	21351
867.317	21268
867.448	21176
867.579	21321
867.71	21161
867.841	21222
867.972	21363
868.103	21287
868.233	21249
868.364	21252
868.495	21310
868.625	21534
868.756	21705
868.886	21481
869.017	21538
869.147	21595
869.278	21667
869.408	21534
869.539	21564
869.669	21587
869.799	21538
869.929	21618
870.06	21542
870.19	21869
870.32	21755
870.45	21747
870.58	21895
870.71	22002
870.84	21960
870.97	21968
871.1	21823
871.23	22196
871.36	22173
871.489	22048
871.619	21972
871.749	22154
871.879	22101
872.008	22253
872.138	22154
872.267	22166
872.397	22093
872.526	21983
872.656	21956
872.785	21987
872.915	22082
873.044	22158
873.173	22169
873.303	22215
873.432	22196
873.561	22287
873.69	22120
873.819	22154
873.948	22268
874.077	22238
874.206	22105
874.335	22097
874.464	22181
874.593	22409
874.722	22337
874.851	22538
874.979	22375
875.108	22455
875.237	22287
875.365	22341
875.494	22238
875.623	22390
875.751	22398
875.88	22322
876.008	22561
876.136	22573
876.265	22820
876.393	22828
876.521	22850
876.65	22949
876.778	22736
876.906	22702
877.034	22637
877.162	22755
877.29	22603
877.418	22733
877.546	22656
877.674	22713
877.802	22778
877.93	22740
878.058	22782
878.185	22660
878.313	22679
878.441	22653
878.568	22615
878.696	22725
878.824	22679
878.951	22790
879.079	22923
879.206	22987
879.333	22824
879.461	22653
879.588	22908
879.715	22908
879.842	23113
879.97	22824
880.097	22584
880.224	22497
880.351	22569
880.478	22398
880.605	22538
880.732	22535
880.859	22748
880.986	22516
881.112	22615
881.239	22405
881.366	22329
881.493	22246
881.619	22177
881.746	22238
881.872	22204
881.999	22010
882.125	22051
882.252	22158
882.378	22059
882.505	22128
882.631	22040
882.757	21842
882.883	21781
883.01	21838
883.136	21679
883.262	21568
883.388	21713
883.514	21903
883.64	21755
883.766	21778
883.892	21587
884.018	21618
884.143	21629
884.269	21797
884.395	21542
884.52	21412
884.646	21481
884.772	21382
884.897	21317
885.023	21511
885.148	21587
885.274	21466
885.399	21511
885.524	21462
885.65	21382
885.775	21389
885.9	21397
886.025	21526
886.15	21564
886.275	21325
886.4	21389
886.525	21454
886.65	21393
886.775	21321
886.9	21504
887.025	21538
887.149	21420
887.274	21256
887.399	21401
887.523	21150
887.648	21165
887.773	21093
887.897	21363
888.021	21275
888.146	21214
888.27	21294
888.395	21401
888.519	21237
888.643	21279
888.767	21294
888.891	21036
889.015	21017
889.139	21032
889.263	20979
889.387	21119
889.511	21108
889.635	21062
889.759	21009
889.883	21055
890.006	21005
890.13	21100
890.254	20906
890.377	20902
890.501	20807
890.624	20800
890.748	20902
890.871	20663
890.995	20556
891.118	20541
891.241	20560
891.364	20549
891.488	20632
891.611	20701
891.734	20571
891.857	20518
891.98	20568
892.103	20613
892.226	20499
892.349	20442
892.471	20343
892.594	20514
892.717	20438
892.839	20374
892.962	20587
893.085	20488
893.207	20484
893.33	20408
893.452	20332
893.575	20533
893.697	20476
893.819	20465
893.941	20636
894.064	20689
894.186	20404
894.308	20328
894.43	20571
894.552	20583
894.674	20549
894.796	20347
894.918	20450
895.04	20484
895.161	20533
895.283	20530
895.405	20450
895.526	20480
895.648	20457
895.769	20415
895.891	20465
896.012	20442
896.134	20632
896.255	20457
896.376	20324
896.498	20381
896.619	20587
896.74	20446
896.861	20640
896.982	20815
897.103	20921
897.224	20731
897.345	20636
897.466	20625
897.587	20674
897.708	20781
897.828	20579
897.949	20636
898.07	20450
898.19	20609
898.311	20796
898.431	20609
898.552	20602
898.672	20682
898.792	20712
898.913	20644
899.033	20587
899.153	20587
899.273	20271
899.393	20377
899.513	20393
899.633	20514
899.753	20533
899.873	20206
899.993	20400
900.113	20377
900.232	20431
900.352	20271
900.472	20328
900.591	20149
900.711	20244
900.83	20115
900.95	20191
901.069	20301
901.189	20043
901.308	19898
901.427	19693
901.546	19826
901.665	19795
901.784	19757
901.904	19609
902.023	19457
902.141	19415
902.26	19304
902.379	19384
902.498	19365
902.617	19145
902.735	19236
902.854	19304
902.973	19209
903.091	18970
903.21	18829
903.328	18905
903.446	18859
903.565	18646
903.683	18749
903.801	18696
903.919	18661
904.038	18623
904.156	18494
904.274	18555
904.392	18399
904.51	18479
904.627	18467
904.745	18551
904.863	18414
904.981	18216
905.098	18262
905.216	18125
905.334	18144
905.451	18114
905.569	18254
905.686	18254
905.803	18136
905.921	17912
906.038	18019
906.155	18064
906.272	17954
906.389	17885
906.506	17695
906.623	17707
906.74	17707
906.857	17520
906.974	17630
907.091	17733
907.208	17771
907.324	17684
907.441	17649
907.557	17444
907.674	17551
907.79	17379
907.907	17406
908.023	17425
908.139	17421
908.256	17395
908.372	17326
908.488	17220
908.604	17250
908.72	17113
908.836	17193
908.952	17143
909.068	17178
909.184	17250
909.3	17258
909.415	17162
909.531	17102
909.647	16915
909.762	16869
909.878	16877
909.993	16915
910.108	16805
910.224	16721
910.339	16881
910.454	16729
910.57	16706
910.685	16554
910.8	16835
910.915	16843
911.03	16577
911.145	16565
911.259	16436
911.374	16428
911.489	16314
911.604	16226
911.718	16143
911.833	16280
911.947	16181
912.062	16032
912.176	16219
912.291	16181
912.405	16055
912.519	16394
912.633	16192
912.748	16230
912.862	16219
912.976	16036
913.09	15903
913.204	16002
913.318	15979
913.431	16158
913.545	15994
913.659	16021
913.772	15994
913.886	15876
914	15709
914.113	15884
914.226	15876
914.34	15797
914.453	15789
914.566	15755
914.68	15709
914.793	15652
914.906	15435
915.019	15397
915.132	15218
915.245	15355
915.358	15412
915.47	15405
915.583	15355
915.696	15439
915.809	15473
915.921	15485
916.034	15363
916.146	15256
916.259	15233
916.371	15447
916.483	15249
916.595	15218
916.708	15146
916.82	15241
916.932	15218
917.044	15230
917.156	15150
917.268	15032
917.38	15100
917.491	14921
917.603	15055
917.715	15089
917.826	15127
917.938	15001
918.049	14952
918.161	14982
918.272	15180
918.384	15036
918.495	15017
918.606	14849
918.717	14712
918.828	14758
918.939	14826
919.05	14712
919.161	14731
919.272	14541
919.383	14629
919.494	14777
919.604	14864
919.715	14861
919.826	14613
919.936	14606
920.047	14899
920.157	14765
920.267	14899
920.378	14670
920.488	14712
920.598	14876
920.708	15131
920.818	14883
920.928	14937
921.038	15089
921.148	14925
921.258	14697
921.368	14648
921.477	14514
921.587	14507
921.697	14343
921.806	14450
921.916	14286
922.025	14187
922.134	14069
922.244	14092
922.353	14077
922.462	13974
922.571	13955
922.68	13757
922.789	13750
922.898	13750
923.007	13674
923.116	13852
923.224	13791
923.333	13734
923.442	13586
923.55	13616
923.659	13636
923.767	13685
923.876	13483
923.984	13594
924.092	13434
924.201	13563
924.309	13476
924.417	13422
924.525	13441
924.633	13495
924.741	14336
924.849	13217
924.956	13381
925.064	13213
925.172	13103
925.279	13065
925.387	13156
925.494	13209
925.602	13274
925.709	13175
925.816	13072
925.924	13095
926.031	13156
926.138	13099
926.245	13160
926.352	13015
926.459	13107
926.566	13187
926.673	13000
926.779	12882
926.886	12848
926.993	12802
927.099	12753
927.206	12692
927.312	12616
927.419	12776
927.525	12665
927.631	12749
927.737	12635
927.843	12574
927.95	12475
928.056	12521
928.162	12506
928.267	12574
928.373	13126
928.479	12525
928.585	12342
928.69	12536
928.796	12551
928.901	12342
929.007	12235
929.112	12441
929.218	12342
929.323	12330
929.428	12330
929.533	12300
929.638	12064
929.743	12285
929.848	12239
929.953	12209
930.058	12121
930.163	11973
930.267	12057
930.372	12140
930.477	11946
930.581	12136
930.685	11984
930.79	11863
930.894	11863
930.998	11805
931.103	11988
931.207	11634
931.311	11535
931.415	11398
931.519	11246
931.623	11162
