Data from test_V78500241_2972.txt Node
Date: Fri Mar 25 16:02:23 CST 2022
User: usil
Spectrometer: V785-0024
Trigger mode: 0
Integration Time (sec): 4.000000E-1
Scans to average: 1
Nonlinearity correction enabled: false
Boxcar width: 0
Storing dark spectrum: false
XAxis mode: Wavelengths
Number of Pixels in Spectrum: 1024
>>>>>Begin Spectral Data<<<<<
801.071	28295
801.214	28249
801.356	28143
801.499	27922
801.641	27888
801.783	27838
801.926	28055
802.068	27854
802.211	27789
802.353	27766
802.496	27610
802.638	27660
802.78	27572
802.923	27458
803.065	27492
803.208	27553
803.35	27481
803.492	27618
803.635	27793
803.777	27633
803.919	27728
804.061	28185
804.204	27682
804.346	27652
804.488	27686
804.63	27743
804.773	27705
804.915	27679
805.057	27827
805.199	27781
805.341	27907
805.483	27953
805.626	27956
805.768	27869
805.91	27930
806.052	27880
806.194	27918
806.336	27987
806.478	27994
806.62	28021
806.762	27953
806.904	28280
807.046	28405
807.188	28299
807.33	28234
807.472	28386
807.614	28398
807.756	28436
807.898	28154
808.04	28158
808.182	28063
808.324	28177
808.465	28287
808.607	28398
808.749	28455
808.891	28725
809.033	28782
809.174	28622
809.316	28584
809.458	28573
809.6	28607
809.741	28729
809.883	28847
810.025	28881
810.166	28869
810.308	28968
810.45	28953
810.591	28927
810.733	28656
810.875	28626
811.016	28588
811.158	28447
811.299	28599
811.441	28649
811.582	28809
811.724	28573
811.865	28550
812.007	28592
812.148	28626
812.29	28554
812.431	28820
812.573	29041
812.714	28877
812.855	29204
812.997	29208
813.138	29417
813.279	29178
813.421	29052
813.562	29075
813.703	28885
813.845	28930
813.986	28626
814.127	28371
814.268	28192
814.41	28382
814.551	28310
814.692	28246
814.833	28363
814.974	28166
815.115	28318
815.256	28090
815.397	28135
815.539	28139
815.68	28040
815.821	28078
815.962	28238
816.103	28048
816.244	28013
816.385	27945
816.526	27823
816.666	27720
816.807	27439
816.948	27663
817.089	27728
817.23	27629
817.371	27629
817.512	27576
817.653	27675
817.793	27633
817.934	27481
818.075	27606
818.216	27679
818.356	27523
818.497	27496
818.638	27412
818.778	27382
818.919	27348
819.06	27382
819.2	27389
819.341	27679
819.481	27580
819.622	27663
819.762	27930
819.903	27907
820.043	27800
820.184	27770
820.324	27747
820.465	27850
820.605	27705
820.746	27717
820.886	27576
821.026	27622
821.167	27545
821.307	27606
821.447	27561
821.588	27587
821.728	27443
821.868	27462
822.008	27089
822.149	27066
822.289	26990
822.429	26819
822.569	26701
822.709	26781
822.849	26598
822.99	26697
823.13	26377
823.27	26560
823.41	26396
823.55	26290
823.69	26457
823.83	26514
823.97	26499
824.11	26248
824.25	26206
824.389	26168
824.529	26278
824.669	26317
824.809	26313
824.949	26328
825.089	26358
825.228	26351
825.368	26088
825.508	26081
825.648	26202
825.787	26111
825.927	26058
826.067	25978
826.206	26157
826.346	26191
826.485	26161
826.625	26161
826.765	26343
826.904	26149
827.044	25799
827.183	25757
827.323	25791
827.462	25803
827.601	25830
827.741	25708
827.88	25761
828.02	25613
828.159	25704
828.298	25708
828.437	25837
828.577	25780
828.716	25986
828.855	25616
828.994	25529
829.134	25510
829.273	25605
829.412	25521
829.551	25384
829.69	25483
829.829	25533
829.968	25597
830.107	25616
830.246	25476
830.385	25392
830.524	25441
830.663	25369
830.802	25228
830.941	25129
831.08	25110
831.219	25244
831.357	25171
831.496	25354
831.635	24970
831.774	25110
831.913	25023
832.051	24859
832.19	24795
832.329	24875
832.467	24711
832.606	24627
832.744	24722
832.883	24768
833.022	24795
833.16	24753
833.299	24844
833.437	24795
833.576	24924
833.714	24814
833.852	24760
833.991	24886
834.129	24814
834.267	24996
834.406	24833
834.544	24856
834.682	24688
834.821	24825
834.959	24989
835.097	24741
835.235	24753
835.373	24821
835.511	24783
835.65	24772
835.788	24734
835.926	24677
836.064	24372
836.202	24418
836.34	24669
836.478	24684
836.615	24730
836.753	24703
836.891	24608
837.029	24635
837.167	24635
837.305	24563
837.443	24505
837.58	24429
837.718	24513
837.856	24608
837.993	24464
838.131	24422
838.269	24384
838.406	24407
838.544	24323
838.681	24102
838.819	24148
838.956	23942
839.094	23824
839.231	23965
839.369	24140
839.506	24311
839.643	24205
839.781	24197
839.918	23821
840.055	23939
840.193	23920
840.33	23794
840.467	23939
840.604	23923
840.742	24045
840.879	23802
841.016	23794
841.153	23817
841.29	23908
841.427	23710
841.564	23916
841.701	23817
841.838	23764
841.975	23737
842.112	23729
842.249	23745
842.385	23649
842.522	23851
842.659	23748
842.796	23509
842.933	23452
843.069	23665
843.206	23596
843.343	23604
843.479	23726
843.616	23611
843.752	23330
843.889	23372
844.025	23608
844.162	23417
844.298	23528
844.435	23311
844.571	23356
844.708	23433
844.844	23554
844.98	23524
845.117	23478
845.253	23368
845.389	23280
845.525	23341
845.661	23242
845.798	23166
845.934	23151
846.07	23056
846.206	23280
846.342	23337
846.478	23064
846.614	22957
846.75	22820
846.886	22892
847.022	22839
847.158	22877
847.294	22847
847.429	22938
847.565	22934
847.701	23109
847.837	22694
847.972	22577
848.108	22607
848.244	22687
848.379	22557
848.515	22356
848.65	22447
848.786	22440
848.921	22588
849.057	22519
849.192	22519
849.328	22538
849.463	22421
849.598	22398
849.734	22265
849.869	22200
850.004	22280
850.14	22238
850.275	22310
850.41	22226
850.545	22211
850.68	22101
850.815	22219
850.95	22249
851.085	22348
851.22	22303
851.355	22261
851.49	22207
851.625	22226
851.76	22204
851.895	22177
852.03	22086
852.165	22261
852.299	22078
852.434	22150
852.569	22215
852.703	22135
852.838	22207
852.973	22310
853.107	22333
853.242	22207
853.376	22032
853.511	21876
853.645	21964
853.78	22112
853.914	22002
854.048	21968
854.183	22029
854.317	22158
854.451	22173
854.585	21972
854.72	22021
854.854	22101
854.988	21945
855.122	22040
855.256	21968
855.39	21937
855.524	22090
855.658	22154
855.792	22044
855.926	22040
856.06	22158
856.194	22154
856.327	22112
856.461	22078
856.595	21918
856.729	21983
856.862	22143
856.996	22055
857.13	22181
857.263	22124
857.397	22181
857.53	22010
857.664	22112
857.797	22070
857.931	22249
858.064	22116
858.197	22093
858.331	21941
858.464	21994
858.597	22002
858.731	21975
858.864	22002
858.997	22013
859.13	22131
859.263	22021
859.396	22162
859.529	22021
859.662	22105
859.795	22032
859.928	22093
860.061	22287
860.194	22253
860.327	22044
860.46	22082
860.592	22268
860.725	22196
860.858	22200
860.99	22112
861.123	22188
861.256	22044
861.388	22044
861.521	22694
861.653	21941
861.786	21766
861.918	21797
862.05	21895
862.183	21994
862.315	22025
862.447	21968
862.58	21831
862.712	21682
862.844	21690
862.976	21838
863.108	21739
863.24	22310
863.372	21690
863.504	21819
863.636	21876
863.768	21766
863.9	21770
864.032	21762
864.164	21724
864.296	21869
864.428	21835
864.559	21884
864.691	21797
864.823	21797
864.954	21789
865.086	21736
865.217	21736
865.349	21690
865.48	21663
865.612	21747
865.743	21842
865.875	21641
866.006	21667
866.137	21667
866.269	21633
866.4	21587
866.531	21587
866.662	21519
866.793	21557
866.924	21553
867.055	21564
867.186	21625
867.317	21561
867.448	21496
867.579	21599
867.71	21485
867.841	21511
867.972	21656
868.103	21492
868.233	21576
868.364	21583
868.495	21652
868.625	21774
868.756	21930
868.886	21690
869.017	21770
869.147	21949
869.278	21838
869.408	21819
869.539	21884
869.669	21899
869.799	21934
869.929	21941
870.06	22010
870.19	22147
870.32	22086
870.45	22242
870.58	22055
870.71	22265
870.84	22443
870.97	22169
871.1	22173
871.23	22398
871.36	22417
871.489	22272
871.619	22428
871.749	22398
871.879	22402
872.008	22535
872.138	22443
872.267	22485
872.397	22360
872.526	22192
872.656	22177
872.785	22219
872.915	22508
873.044	22455
873.173	22394
873.303	22497
873.432	22417
873.561	22649
873.69	22413
873.819	22455
873.948	22519
874.077	22527
874.206	22447
874.335	22451
874.464	22611
874.593	22763
874.722	22683
874.851	22694
874.979	22622
875.108	22691
875.237	22626
875.365	22618
875.494	22577
875.623	22675
875.751	22672
875.88	22763
876.008	22767
876.136	22824
876.265	22930
876.393	23204
876.521	23174
876.65	23075
876.778	23037
876.906	22976
877.034	22949
877.162	23029
877.29	23052
877.418	23136
877.546	22927
877.674	23037
877.802	23033
877.93	23025
878.058	23037
878.185	22949
878.313	22953
878.441	23105
878.568	22850
878.696	22949
878.824	23075
878.951	23029
879.079	23193
879.206	23417
879.333	23216
879.461	23098
879.588	23155
879.715	23189
879.842	23273
879.97	22972
880.097	22862
880.224	22881
880.351	22839
880.478	22847
880.605	22820
880.732	22786
880.859	23136
880.986	22877
881.112	22793
881.239	22653
881.366	22622
881.493	22455
881.619	22363
881.746	22527
881.872	22451
881.999	22424
882.125	22287
882.252	22413
882.378	22367
882.505	22443
882.631	22265
882.757	22143
882.883	22204
883.01	22185
883.136	22105
883.262	21899
883.388	22059
883.514	22040
883.64	22162
883.766	22173
883.892	21804
884.018	21838
884.143	22070
884.269	21983
884.395	21804
884.52	21804
884.646	21690
884.772	21603
884.897	21671
885.023	21739
885.148	21895
885.274	21888
885.399	21797
885.524	21720
885.65	21660
885.775	21728
885.9	21694
886.025	21759
886.15	21759
886.275	21747
886.4	21656
886.525	21778
886.65	21705
886.775	21698
886.9	21789
887.025	21983
887.149	21644
887.274	21545
887.399	21564
887.523	21496
887.648	21355
887.773	21313
887.897	21473
888.021	21511
888.146	21405
888.27	21614
888.395	21561
888.519	21416
888.643	21481
888.767	21481
888.891	21431
889.015	21260
889.139	21294
889.263	21233
889.387	21344
889.511	21526
889.635	21329
889.759	21184
889.883	21287
890.006	21260
890.13	21355
890.254	21184
890.377	21264
890.501	21081
890.624	21028
890.748	21032
890.871	20861
890.995	20819
891.118	20849
891.241	20792
891.364	20708
891.488	21017
891.611	20834
891.734	20861
891.857	20895
891.98	20845
892.103	20891
892.226	20758
892.349	20651
892.471	20575
892.594	20636
892.717	20785
892.839	20636
892.962	20800
893.085	20792
893.207	20663
893.33	20609
893.452	20613
893.575	20788
893.697	20807
893.819	20834
893.941	20971
894.064	21005
894.186	20590
894.308	20724
894.43	20708
894.552	20842
894.674	20785
894.796	20575
894.918	20648
895.04	20636
895.161	20765
895.283	20792
895.405	20678
895.526	20712
895.648	20735
895.769	20781
895.891	20724
896.012	20731
896.134	20727
896.255	20682
896.376	20644
896.498	20686
896.619	20773
896.74	20674
896.861	20777
896.982	21013
897.103	21188
897.224	20967
897.345	20830
897.466	20830
897.587	20929
897.708	21112
897.828	20906
897.949	20883
898.07	20823
898.19	20883
898.311	20948
898.431	20998
898.552	20883
898.672	20975
898.792	20994
898.913	20891
899.033	20796
899.153	20754
899.273	20667
899.393	20533
899.513	20697
899.633	20697
899.753	20762
899.873	20564
899.993	20644
900.113	20556
900.232	20648
900.352	20518
900.472	20438
900.591	20381
900.711	20419
900.83	20317
900.95	20556
901.069	20423
901.189	20317
901.308	20100
901.427	20035
901.546	19963
901.665	20046
901.784	20046
901.904	19917
902.023	19811
902.141	19525
902.26	19468
902.379	19586
902.498	19468
902.617	19384
902.735	19559
902.854	19476
902.973	19449
903.091	19198
903.21	19160
903.328	19179
903.446	19114
903.565	19015
903.683	19019
903.801	18802
903.919	18935
904.038	18928
904.156	18814
904.274	18795
904.392	18768
904.51	18776
904.627	18783
904.745	18779
904.863	18779
904.981	18445
905.098	18376
905.216	18350
905.334	18357
905.451	18547
905.569	18346
905.686	18414
905.803	18319
905.921	18106
906.038	18205
906.155	18277
906.272	18235
906.389	18174
906.506	17961
906.623	17866
906.74	17889
906.857	17714
906.974	17783
907.091	17999
907.208	17977
907.324	17897
907.441	17843
907.557	17764
907.674	17592
907.79	17592
907.907	17665
908.023	17608
908.139	17619
908.256	17566
908.372	17592
908.488	17486
908.604	17383
908.72	17322
908.836	17349
908.952	17254
909.068	17322
909.184	17379
909.3	17360
909.415	17334
909.531	17261
909.647	17128
909.762	17132
909.878	17048
909.993	17136
910.108	17064
910.224	17048
910.339	17006
910.454	16908
910.57	16858
910.685	16771
910.8	17033
910.915	16923
911.03	16862
911.145	16721
911.259	16573
911.374	16675
911.489	16462
911.604	16474
911.718	16382
911.833	16417
911.947	16352
912.062	16192
912.176	16417
912.291	16246
912.405	16344
912.519	16542
912.633	16550
912.748	16333
912.862	16272
912.976	16257
913.09	16013
913.204	16124
913.318	16139
913.431	16162
913.545	16318
913.659	16246
913.772	16078
913.886	16013
914	15983
914.113	16078
914.226	16044
914.34	16032
914.453	15899
914.566	16048
914.68	15842
914.793	15873
914.906	15739
915.019	15652
915.132	15466
915.245	15538
915.358	15572
915.47	15545
915.583	15530
915.696	15614
915.809	15660
915.921	15728
916.034	15576
916.146	15488
916.259	15462
916.371	15545
916.483	15584
916.595	15466
916.708	15325
916.82	15431
916.932	15393
917.044	15348
917.156	15294
917.268	15176
917.38	15260
917.491	15165
917.603	15195
917.715	15370
917.826	15351
917.938	15070
918.049	15093
918.161	15203
918.272	15260
918.384	15203
918.495	15135
918.606	15013
918.717	14880
918.828	15062
918.939	15017
919.05	14952
919.161	14861
919.272	14659
919.383	14792
919.494	15001
919.604	15157
919.715	14963
919.826	14960
919.936	14929
920.047	14925
920.157	14925
920.267	15157
920.378	14948
920.488	14861
920.598	15055
920.708	15157
920.818	15085
920.928	14990
921.038	15108
921.148	15192
921.258	14815
921.368	14785
921.477	14765
921.587	14617
921.697	14514
921.806	14735
921.916	14431
922.025	14336
922.134	14301
922.244	14263
922.353	14362
922.462	14130
922.571	14077
922.68	13890
922.789	13875
922.898	13879
923.007	13902
923.116	14016
923.224	13978
923.333	13860
923.442	13803
923.55	13662
923.659	13765
923.767	13909
923.876	13639
923.984	13788
924.092	13723
924.201	13681
924.309	13651
924.417	13719
924.525	13613
924.633	13559
924.741	14320
924.849	13373
924.956	13499
925.064	13297
925.172	13183
925.279	13343
925.387	13335
925.494	13331
925.602	13430
925.709	13415
925.816	13137
925.924	13426
926.031	13430
926.138	13190
926.245	13304
926.352	13175
926.459	13301
926.566	13343
926.673	13187
926.779	13118
926.886	13050
926.993	12951
927.099	12802
927.206	12741
927.312	12703
927.419	12928
927.525	12837
927.631	12935
927.737	12745
927.843	12719
927.95	12650
928.056	12726
928.162	12688
928.267	12741
928.373	13358
928.479	12669
928.585	12525
928.69	12582
928.796	12681
928.901	12555
929.007	12483
929.112	12509
929.218	12506
929.323	12521
929.428	12448
929.533	12517
929.638	12376
929.743	12338
929.848	12327
929.953	12414
930.058	12266
930.163	12140
930.267	12083
930.372	12136
930.477	12015
930.581	12235
930.685	12098
930.79	11939
930.894	12007
930.998	11988
931.103	12076
931.207	11707
931.311	11748
931.415	11554
931.519	11376
931.623	11261
