Data from test_V78500241_2642.txt Node
Date: Fri Mar 25 16:00:06 CST 2022
User: usil
Spectrometer: V785-0024
Trigger mode: 0
Integration Time (sec): 4.000000E-1
Scans to average: 1
Nonlinearity correction enabled: false
Boxcar width: 0
Storing dark spectrum: false
XAxis mode: Wavelengths
Number of Pixels in Spectrum: 1024
>>>>>Begin Spectral Data<<<<<
801.071	28169
801.214	28219
801.356	27869
801.499	27717
801.641	27614
801.783	27599
801.926	27690
802.068	27450
802.211	27549
802.353	27405
802.496	27393
802.638	27348
802.78	27260
802.923	27230
803.065	27169
803.208	27237
803.35	27340
803.492	27466
803.635	27511
803.777	27294
803.919	27481
804.061	27793
804.204	27603
804.346	27226
804.488	27477
804.63	27587
804.773	27279
804.915	27633
805.057	27500
805.199	27488
805.341	27606
805.483	27534
805.626	27603
805.768	27526
805.91	27553
806.052	27694
806.194	27667
806.336	27713
806.478	27663
806.62	27564
806.762	27709
806.904	27918
807.046	28154
807.188	28097
807.33	28074
807.472	28112
807.614	27960
807.756	28078
807.898	27949
808.04	27895
808.182	27884
808.324	27941
808.465	28017
808.607	28253
808.749	28398
808.891	28447
809.033	28333
809.174	28261
809.316	28219
809.458	28325
809.6	28379
809.741	28268
809.883	28421
810.025	28561
810.166	28588
810.308	28618
810.45	28436
810.591	28470
810.733	28375
810.875	28322
811.016	28238
811.158	28128
811.299	28329
811.441	28394
811.582	28405
811.724	28261
811.865	28223
812.007	28230
812.148	28329
812.29	28382
812.431	28409
812.573	28611
812.714	28588
812.855	28653
812.997	28850
813.138	28881
813.279	28824
813.421	28759
813.562	28649
813.703	28504
813.845	28531
813.986	28192
814.127	28006
814.268	27880
814.41	27949
814.551	27922
814.692	27941
814.833	27918
814.974	27755
815.115	27979
815.256	27895
815.397	27838
815.539	27724
815.68	27614
815.821	27705
815.962	27667
816.103	27622
816.244	27652
816.385	27561
816.526	27553
816.666	27222
816.807	27214
816.948	27256
817.089	27386
817.23	27176
817.371	27169
817.512	27142
817.653	27066
817.793	27222
817.934	27207
818.075	27161
818.216	27192
818.356	27154
818.497	26998
818.638	26990
818.778	27043
818.919	26948
819.06	27020
819.2	27116
819.341	27294
819.481	27154
819.622	27294
819.762	27682
819.903	27583
820.043	27488
820.184	27363
820.324	27291
820.465	27382
820.605	27241
820.746	27256
820.886	27184
821.026	27431
821.167	27272
821.307	27279
821.447	27268
821.588	27154
821.728	27005
821.868	26823
822.008	26727
822.149	26697
822.289	26754
822.429	26393
822.569	26385
822.709	26351
822.849	26138
822.99	26347
823.13	26138
823.27	26069
823.41	26016
823.55	25757
823.69	26024
823.83	25951
823.97	25906
824.11	25746
824.25	25875
824.389	25833
824.529	25883
824.669	25830
824.809	25966
824.949	25940
825.089	25860
825.228	25925
825.368	25784
825.508	25635
825.648	25685
825.787	25753
825.927	25830
826.067	25571
826.206	25738
826.346	25818
826.485	25727
826.625	25761
826.765	25757
826.904	25826
827.044	25495
827.183	25620
827.323	25358
827.462	25445
827.601	25430
827.741	25312
827.88	25453
828.02	25327
828.159	25263
828.298	25312
828.437	25445
828.577	25392
828.716	25563
828.855	25266
828.994	25057
829.134	25145
829.273	25168
829.412	24989
829.551	25118
829.69	25141
829.829	25103
829.968	25179
830.107	25107
830.246	25091
830.385	24966
830.524	24985
830.663	24932
830.802	24749
830.941	24783
831.08	24669
831.219	24791
831.357	24772
831.496	24996
831.635	24642
831.774	24688
831.913	24650
832.051	24631
832.19	24486
832.329	24460
832.467	24395
832.606	24452
832.744	24372
832.883	24350
833.022	24350
833.16	24342
833.299	24323
833.437	24334
833.576	24475
833.714	24384
833.852	24563
833.991	24563
834.129	24578
834.267	24532
834.406	24471
834.544	24350
834.682	24395
834.821	24483
834.959	24616
835.097	24388
835.235	24426
835.373	24479
835.511	24376
835.65	24235
835.788	24235
835.926	24155
836.064	23958
836.202	24087
836.34	24372
836.478	24452
836.615	24292
836.753	24380
836.891	24323
837.029	24277
837.167	24098
837.305	24144
837.443	24205
837.58	24068
837.718	24243
837.856	24121
837.993	23950
838.131	24155
838.269	23863
838.406	23939
838.544	23961
838.681	23821
838.819	23809
838.956	23577
839.094	23657
839.231	23581
839.369	23703
839.506	23889
839.643	23859
839.781	23649
839.918	23573
840.055	23577
840.193	23356
840.33	23566
840.467	23577
840.604	23547
840.742	23718
840.879	23376
841.016	23360
841.153	23410
841.29	23577
841.427	23444
841.564	23493
841.701	23520
841.838	23440
841.975	23406
842.112	23417
842.249	23250
842.385	23246
842.522	23531
842.659	23410
842.796	23280
842.933	23242
843.069	23208
843.206	23250
843.343	23349
843.479	23208
843.616	23288
843.752	23052
843.889	23060
844.025	23094
844.162	22949
844.298	23025
844.435	23090
844.571	22896
844.708	23056
844.844	23159
844.98	23147
845.117	23022
845.253	22972
845.389	22862
845.525	22999
845.661	22892
845.798	22771
845.934	22828
846.07	22790
846.206	22634
846.342	22835
846.478	22634
846.614	22538
846.75	22478
846.886	22508
847.022	22596
847.158	22440
847.294	22462
847.429	22546
847.565	22375
847.701	22542
847.837	22150
847.972	22059
848.108	22409
848.244	22344
848.379	22131
848.515	22074
848.65	22063
848.786	22116
848.921	22048
849.057	22093
849.192	22154
849.328	22181
849.463	22185
849.598	21998
849.734	22105
849.869	21926
850.004	21869
850.14	21876
850.275	21972
850.41	21732
850.545	21675
850.68	21934
850.815	21892
850.95	21846
851.085	22067
851.22	21884
851.355	21755
851.49	21717
851.625	21793
851.76	21747
851.895	21861
852.03	21717
852.165	21865
852.299	21846
852.434	21945
852.569	21808
852.703	21808
852.838	21972
852.973	21873
853.107	21899
853.242	21854
853.376	21671
853.511	21485
853.645	21644
853.78	21774
853.914	21751
854.048	21637
854.183	21614
854.317	21614
854.451	21812
854.585	21622
854.72	21663
854.854	21728
854.988	21572
855.122	21629
855.256	21641
855.39	21709
855.524	21827
855.658	21682
855.792	21667
855.926	21713
856.06	21751
856.194	21739
856.327	21538
856.461	21542
856.595	21542
856.729	21580
856.862	21800
856.996	21614
857.13	21648
857.263	21930
857.397	21587
857.53	21568
857.664	21713
857.797	21591
857.931	21857
858.064	21656
858.197	21705
858.331	21656
858.464	21675
858.597	21500
858.731	21694
858.864	21583
858.997	21633
859.13	21667
859.263	21599
859.396	21709
859.529	21629
859.662	21667
859.795	21694
859.928	21751
860.061	21793
860.194	21949
860.327	21641
860.46	21728
860.592	21675
860.725	21869
860.858	21857
860.99	21663
861.123	21466
861.256	21656
861.388	21641
861.521	22386
861.653	21428
861.786	21488
861.918	21492
862.05	21526
862.183	21526
862.315	21515
862.447	21682
862.58	21450
862.712	21374
862.844	21431
862.976	21424
863.108	21450
863.24	21747
863.372	21367
863.504	21393
863.636	21348
863.768	21450
863.9	21317
864.032	21264
864.164	21249
864.296	21378
864.428	21496
864.559	21389
864.691	21393
864.823	21386
864.954	21241
865.086	21370
865.217	21298
865.349	21321
865.48	21294
865.612	21218
865.743	21351
865.875	21363
866.006	21325
866.137	21241
866.269	21329
866.4	21203
866.531	21058
866.662	21123
866.793	21207
866.924	21104
867.055	21203
867.186	21260
867.317	21184
867.448	21055
867.579	21291
867.71	21199
867.841	21150
867.972	21222
868.103	21188
868.233	21233
868.364	21226
868.495	21302
868.625	21416
868.756	21538
868.886	21291
869.017	21363
869.147	21530
869.278	21515
869.408	21367
869.539	21405
869.669	21469
869.799	21511
869.929	21637
870.06	21595
870.19	21736
870.32	21766
870.45	21751
870.58	21994
870.71	21945
870.84	22051
870.97	21774
871.1	21869
871.23	22017
871.36	22021
871.489	21979
871.619	22021
871.749	22010
871.879	22143
872.008	22097
872.138	21968
872.267	22063
872.397	21918
872.526	21937
872.656	21899
872.785	21880
872.915	22048
873.044	22074
873.173	22082
873.303	22185
873.432	22067
873.561	22093
873.69	22124
873.819	22082
873.948	22093
874.077	22044
874.206	22010
874.335	22093
874.464	22261
874.593	22303
874.722	22139
874.851	22337
874.979	22337
875.108	22215
875.237	22333
875.365	22169
875.494	22291
875.623	22341
875.751	22196
875.88	22287
876.008	22379
876.136	22580
876.265	22668
876.393	22809
876.521	22672
876.65	22755
876.778	22778
876.906	22546
877.034	22577
877.162	22660
877.29	22584
877.418	22645
877.546	22672
877.674	22599
877.802	22455
877.93	22577
878.058	22470
878.185	22580
878.313	22630
878.441	22706
878.568	22470
878.696	22607
878.824	22653
878.951	22698
879.079	22835
879.206	22812
879.333	22801
879.461	22721
879.588	22805
879.715	22729
879.842	22835
879.97	22706
880.097	22554
880.224	22451
880.351	22485
880.478	22455
880.605	22390
880.732	22508
880.859	22565
880.986	22436
881.112	22436
881.239	22405
881.366	22207
881.493	22040
881.619	22055
881.746	22120
881.872	21979
881.999	21975
882.125	21899
882.252	22070
882.378	21941
882.505	22211
882.631	22017
882.757	21835
882.883	21682
883.01	21743
883.136	21720
883.262	21606
883.388	21534
883.514	21720
883.64	21831
883.766	21572
883.892	21523
884.018	21462
884.143	21743
884.269	21785
884.395	21485
884.52	21370
884.646	21359
884.772	21184
884.897	21374
885.023	21321
885.148	21515
885.274	21610
885.399	21515
885.524	21355
885.65	21279
885.775	21447
885.9	21195
886.025	21538
886.15	21355
886.275	21348
886.4	21264
886.525	21302
886.65	21252
886.775	21272
886.9	21488
887.025	21564
887.149	21317
887.274	21214
887.399	21005
887.523	21116
887.648	21024
887.773	21108
887.897	21291
888.021	21173
888.146	21005
888.27	21222
888.395	21291
888.519	21020
888.643	21074
888.767	21287
888.891	21081
889.015	20861
889.139	21001
889.263	20971
889.387	20899
889.511	21085
889.635	21150
889.759	20956
889.883	20899
890.006	20849
890.13	20929
890.254	20849
890.377	20838
890.501	20571
890.624	20625
890.748	20648
890.871	20571
890.995	20465
891.118	20465
891.241	20488
891.364	20526
891.488	20625
891.611	20476
891.734	20446
891.857	20541
891.98	20454
892.103	20454
892.226	20431
892.349	20385
892.471	20347
892.594	20412
892.717	20526
892.839	20263
892.962	20446
893.085	20469
893.207	20244
893.33	20218
893.452	20210
893.575	20499
893.697	20434
893.819	20537
893.941	20503
894.064	20552
894.186	20286
894.308	20328
894.43	20503
894.552	20571
894.674	20374
894.796	20385
894.918	20351
895.04	20294
895.161	20419
895.283	20438
895.405	20267
895.526	20518
895.648	20275
895.769	20415
895.891	20396
896.012	20434
896.134	20484
896.255	20366
896.376	20286
896.498	20434
896.619	20370
896.74	20393
896.861	20507
896.982	20701
897.103	20720
897.224	20689
897.345	20693
897.466	20617
897.587	20651
897.708	20724
897.828	20606
897.949	20492
898.07	20374
898.19	20590
898.311	20594
898.431	20469
898.552	20598
898.672	20629
898.792	20701
898.913	20640
899.033	20434
899.153	20427
899.273	20336
899.393	20313
899.513	20263
899.633	20351
899.753	20408
899.873	20305
899.993	20442
900.113	20248
900.232	20298
900.352	20313
900.472	20259
900.591	19993
900.711	20145
900.83	20031
900.95	20168
901.069	20103
901.189	19982
901.308	19776
901.427	19624
901.546	19685
901.665	19734
901.784	19738
901.904	19632
902.023	19411
902.141	19156
902.26	19221
902.379	19407
902.498	19168
902.617	19179
902.735	19095
902.854	19160
902.973	19160
903.091	18947
903.21	18844
903.328	18863
903.446	18703
903.565	18688
903.683	18650
903.801	18597
903.919	18612
904.038	18589
904.156	18365
904.274	18486
904.392	18441
904.51	18243
904.627	18304
904.745	18464
904.863	18490
904.981	18216
905.098	18041
905.216	18148
905.334	18114
905.451	18159
905.569	18095
905.686	18106
905.803	18117
905.921	17893
906.038	17999
906.155	17942
906.272	17855
906.389	17809
906.506	17619
906.623	17497
906.74	17638
906.857	17547
906.974	17493
907.091	17783
907.208	17786
907.324	17661
907.441	17543
907.557	17334
907.674	17353
907.79	17372
907.907	17250
908.023	17242
908.139	17436
908.256	17239
908.372	17284
908.488	17197
908.604	17117
908.72	17075
908.836	17048
908.952	17113
909.068	17033
909.184	17166
909.3	17098
909.415	17098
909.531	17056
909.647	16797
909.762	16869
909.878	16687
909.993	16740
910.108	16660
910.224	16649
910.339	16793
910.454	16653
910.57	16603
910.685	16451
910.8	16839
910.915	16736
911.03	16546
911.145	16405
911.259	16329
911.374	16363
911.489	16246
911.604	16215
911.718	16067
911.833	16120
911.947	15998
912.062	16040
912.176	16128
912.291	16128
912.405	16116
912.519	16314
912.633	16303
912.748	16090
912.862	16131
912.976	15964
913.09	15865
913.204	15960
913.318	15911
913.431	16055
913.545	15991
913.659	15956
913.772	15823
913.886	15793
914	15671
914.113	15785
914.226	15926
914.34	15800
914.453	15519
914.566	15717
914.68	15603
914.793	15595
914.906	15359
915.019	15325
915.132	15287
915.245	15252
915.358	15405
915.47	15397
915.583	15332
915.696	15283
915.809	15428
915.921	15469
916.034	15294
916.146	15256
916.259	15138
916.371	15241
916.483	15237
916.595	15207
916.708	15230
916.82	15226
916.932	15089
917.044	15097
917.156	15066
917.268	14925
917.38	14971
917.491	15036
917.603	14883
917.715	14990
917.826	15020
917.938	14944
918.049	14804
918.161	14868
918.272	14944
918.384	14994
918.495	14891
918.606	14727
918.717	14663
918.828	14792
918.939	14708
919.05	14610
919.161	14758
919.272	14522
919.383	14625
919.494	14804
919.604	14880
919.715	14731
919.826	14575
919.936	14678
920.047	14697
920.157	14724
920.267	14838
920.378	14667
920.488	14621
920.598	14902
920.708	14891
920.818	14800
920.928	14834
921.038	15024
921.148	14914
921.258	14648
921.368	14556
921.477	14438
921.587	14336
921.697	14343
921.806	14492
921.916	14332
922.025	14142
922.134	14046
922.244	13959
922.353	14058
922.462	13959
922.571	13868
922.68	13693
922.789	13677
922.898	13601
923.007	13636
923.116	13750
923.224	13666
923.333	13677
923.442	13529
923.55	13552
923.659	13586
923.767	13521
923.876	13483
923.984	13552
924.092	13441
924.201	13518
924.309	13362
924.417	13426
924.525	13339
924.633	13365
924.741	14244
924.849	13145
924.956	13320
925.064	13099
925.172	13149
925.279	13038
925.387	13156
925.494	13110
925.602	13190
925.709	13198
925.816	13034
925.924	13133
926.031	13156
926.138	13095
926.245	13114
926.352	12924
926.459	13156
926.566	13069
926.673	13072
926.779	12840
926.886	12856
926.993	12696
927.099	12684
927.206	12601
927.312	12604
927.419	12646
927.525	12623
927.631	12681
927.737	12608
927.843	12513
927.95	12376
928.056	12490
928.162	12471
928.267	12513
928.373	13057
928.479	12593
928.585	12338
928.69	12471
928.796	12502
928.901	12273
929.007	12178
929.112	12334
929.218	12285
929.323	12281
929.428	12186
929.533	12327
929.638	12106
929.743	12171
929.848	12175
929.953	12213
930.058	12110
930.163	11920
930.267	11916
930.372	11988
930.477	11840
930.581	12049
930.685	11901
930.79	11821
930.894	11771
930.998	11790
931.103	11794
931.207	11535
931.311	11414
931.415	11383
931.519	11151
931.623	11105
