Data from test_V78500241_2864.txt Node
Date: Fri Mar 25 16:01:38 CST 2022
User: usil
Spectrometer: V785-0024
Trigger mode: 0
Integration Time (sec): 4.000000E-1
Scans to average: 1
Nonlinearity correction enabled: false
Boxcar width: 0
Storing dark spectrum: false
XAxis mode: Wavelengths
Number of Pixels in Spectrum: 1024
>>>>>Begin Spectral Data<<<<<
801.071	29147
801.214	29079
801.356	28763
801.499	28782
801.641	28908
801.783	28649
801.926	28592
802.068	28843
802.211	28561
802.353	28546
802.496	28417
802.638	28588
802.78	28360
802.923	28261
803.065	28124
803.208	28299
803.35	28413
803.492	28451
803.635	28599
803.777	28500
803.919	28580
804.061	28877
804.204	28645
804.346	28554
804.488	28386
804.63	28679
804.773	28512
804.915	28668
805.057	28828
805.199	28759
805.341	28797
805.483	28858
805.626	28828
805.768	28603
805.91	28786
806.052	28831
806.194	28744
806.336	28869
806.478	28896
806.62	28759
806.762	28934
806.904	29037
807.046	29341
807.188	29223
807.33	29246
807.472	29284
807.614	29143
807.756	29143
807.898	29117
808.04	29124
808.182	29117
808.324	29174
808.465	29094
808.607	29383
808.749	29425
808.891	29531
809.033	29707
809.174	29585
809.316	29353
809.458	29551
809.6	29490
809.741	29581
809.883	29691
810.025	29771
810.166	29748
810.308	29901
810.45	29760
810.591	29608
810.733	29531
810.875	29535
811.016	29490
811.158	29570
811.299	29703
811.441	29722
811.582	29695
811.724	29463
811.865	29619
812.007	29630
812.148	29440
812.29	29539
812.431	29653
812.573	29916
812.714	29969
812.855	30083
812.997	30148
813.138	30407
813.279	30186
813.421	30018
813.562	29992
813.703	29824
813.845	29882
813.986	29463
814.127	29387
814.268	29113
814.41	29223
814.551	29143
814.692	29402
814.833	29166
814.974	29185
815.115	29303
815.256	29250
815.397	29029
815.539	29124
815.68	29041
815.821	29083
815.962	29143
816.103	29048
816.244	29014
816.385	29006
816.526	28938
816.666	28736
816.807	28500
816.948	28584
817.089	28694
817.23	28675
817.371	28535
817.512	28615
817.653	28481
817.793	28474
817.934	28588
818.075	28500
818.216	28694
818.356	28630
818.497	28527
818.638	28242
818.778	28371
818.919	28356
819.06	28398
819.2	28432
819.341	28641
819.481	28656
819.622	28908
819.762	28938
819.903	28843
820.043	28744
820.184	28790
820.324	28725
820.465	28763
820.605	28630
820.746	28622
820.886	28561
821.026	28672
821.167	28519
821.307	28660
821.447	28653
821.588	28443
821.728	28295
821.868	28116
822.008	28150
822.149	28010
822.289	28112
822.429	27835
822.569	27629
822.709	27656
822.849	27652
822.99	27739
823.13	27587
823.27	27488
823.41	27397
823.55	27313
823.69	27458
823.83	27435
823.97	27401
824.11	27161
824.25	27184
824.389	27252
824.529	27245
824.669	27275
824.809	27298
824.949	27344
825.089	27367
825.228	27298
825.368	27116
825.508	27039
825.648	27173
825.787	27108
825.927	27199
826.067	27116
826.206	27184
826.346	27165
826.485	27096
826.625	27119
826.765	27211
826.904	27195
827.044	26845
827.183	26815
827.323	26853
827.462	26830
827.601	26956
827.741	26887
827.88	26857
828.02	26712
828.159	26777
828.298	26853
828.437	26853
828.577	26758
828.716	26994
828.855	26754
828.994	26590
829.134	26423
829.273	26530
829.412	26461
829.551	26533
829.69	26461
829.829	26511
829.968	26678
830.107	26556
830.246	26476
830.385	26590
830.524	26434
830.663	26381
830.802	26336
830.941	26077
831.08	26115
831.219	26180
831.357	26183
831.496	26374
831.635	26229
831.774	26077
831.913	26054
832.051	25902
832.19	25780
832.329	25963
832.467	25753
832.606	25674
832.744	25670
832.883	25788
833.022	25757
833.16	25868
833.299	25830
833.437	25894
833.576	25769
833.714	25837
833.852	25947
833.991	25940
834.129	25860
834.267	26005
834.406	25868
834.544	25982
834.682	25860
834.821	25902
834.959	25913
835.097	25784
835.235	25940
835.373	25830
835.511	25689
835.65	25689
835.788	25769
835.926	25537
836.064	25422
836.202	25415
836.34	25727
836.478	25723
836.615	25616
836.753	25613
836.891	25655
837.029	25681
837.167	25674
837.305	25537
837.443	25552
837.58	25445
837.718	25426
837.856	25533
837.993	25537
838.131	25445
838.269	25297
838.406	25384
838.544	25232
838.681	25266
838.819	25072
838.956	24996
839.094	25050
839.231	24977
839.369	25129
839.506	25274
839.643	25259
839.781	24890
839.918	24783
840.055	25034
840.193	24909
840.33	24844
840.467	24875
840.604	24867
840.742	25145
840.879	24749
841.016	24741
841.153	24810
841.29	24928
841.427	24829
841.564	24909
841.701	24863
841.838	24654
841.975	24837
842.112	24707
842.249	24635
842.385	24612
842.522	24825
842.659	24707
842.796	24528
842.933	24604
843.069	24525
843.206	24627
843.343	24722
843.479	24673
843.616	24677
843.752	24422
843.889	24304
844.025	24479
844.162	24346
844.298	24692
844.435	24456
844.571	24239
844.708	24357
844.844	24673
844.98	24452
845.117	24559
845.253	24399
845.389	24186
845.525	24296
845.661	24220
845.798	24068
845.934	24076
846.07	24064
846.206	24254
846.342	24369
846.478	24072
846.614	23946
846.75	23790
846.886	23775
847.022	23802
847.158	23961
847.294	23885
847.429	23752
847.565	23863
847.701	24121
847.837	23547
847.972	23547
848.108	23497
848.244	23726
848.379	23467
848.515	23398
848.65	23395
848.786	23455
848.921	23337
849.057	23364
849.192	23581
849.328	23486
849.463	23444
849.598	23417
849.734	23334
849.869	23299
850.004	23197
850.14	23303
850.275	23223
850.41	23033
850.545	23037
850.68	23037
850.815	23189
850.95	23185
851.085	23379
851.22	23429
851.355	23227
851.49	23189
851.625	23159
851.76	23235
851.895	23071
852.03	23014
852.165	23147
852.299	23208
852.434	23284
852.569	23098
852.703	23277
852.838	23155
852.973	23345
853.107	23288
853.242	23071
853.376	23117
853.511	22919
853.645	23003
853.78	23178
853.914	23037
854.048	23071
854.183	22900
854.317	23075
854.451	23250
854.585	22957
854.72	22923
854.854	22908
854.988	22805
855.122	23006
855.256	22869
855.39	22968
855.524	23064
855.658	22900
855.792	23029
855.926	22991
856.06	23014
856.194	23056
856.327	22972
856.461	22965
856.595	22934
856.729	22930
856.862	23083
856.996	22908
857.13	23143
857.263	22991
857.397	23132
857.53	23029
857.664	23067
857.797	23090
857.931	23060
858.064	23044
858.197	23060
858.331	23094
858.464	22915
858.597	22843
858.731	22934
858.864	22930
858.997	22987
859.13	23064
859.263	22976
859.396	23159
859.529	22927
859.662	22957
859.795	22900
859.928	23037
860.061	23227
860.194	23220
860.327	23052
860.46	23140
860.592	23109
860.725	23132
860.858	23041
860.99	22900
861.123	22843
861.256	23006
861.388	22923
861.521	23684
861.653	22919
861.786	22702
861.918	22774
862.05	22873
862.183	22953
862.315	22809
862.447	22915
862.58	22862
862.712	22873
862.844	22702
862.976	22759
863.108	22713
863.24	23143
863.372	22656
863.504	22668
863.636	22721
863.768	22763
863.9	22736
864.032	22656
864.164	22660
864.296	22702
864.428	22721
864.559	22733
864.691	22729
864.823	22645
864.954	22649
865.086	22516
865.217	22569
865.349	22516
865.48	22519
865.612	22596
865.743	22797
865.875	22584
866.006	22542
866.137	22611
866.269	22580
866.4	22557
866.531	22523
866.662	22325
866.793	22428
866.924	22432
867.055	22550
867.186	22489
867.317	22519
867.448	22405
867.579	22402
867.71	22428
867.841	22478
867.972	22462
868.103	22428
868.233	22504
868.364	22550
868.495	22557
868.625	22759
868.756	22790
868.886	22588
869.017	22790
869.147	22908
869.278	22805
869.408	22740
869.539	22740
869.669	22866
869.799	22759
869.929	22881
870.06	22786
870.19	23060
870.32	23018
870.45	23147
870.58	23246
870.71	23189
870.84	23071
870.97	23151
871.1	23094
871.23	23322
871.36	23246
871.489	23273
871.619	23296
871.749	23269
871.879	23292
872.008	23478
872.138	23307
872.267	23486
872.397	23162
872.526	23273
872.656	23136
872.785	23269
872.915	23364
873.044	23459
873.173	23315
873.303	23452
873.432	23322
873.561	23334
873.69	23429
873.819	23376
873.948	23273
874.077	23360
874.206	23284
874.335	23395
874.464	23303
874.593	23585
874.722	23463
874.851	23615
874.979	23710
875.108	23531
875.237	23509
875.365	23493
875.494	23509
875.623	23604
875.751	23562
875.88	23520
876.008	23737
876.136	23729
876.265	23870
876.393	24095
876.521	23931
876.65	24133
876.778	23828
876.906	23923
877.034	23878
877.162	23897
877.29	23973
877.418	23935
877.546	23939
877.674	23980
877.802	23999
877.93	23836
878.058	23889
878.185	23722
878.313	23832
878.441	23923
878.568	23665
878.696	23866
878.824	23866
878.951	23980
879.079	24068
879.206	24220
879.333	24083
879.461	24018
879.588	23912
879.715	24038
879.842	24167
879.97	24022
880.097	23783
880.224	23714
880.351	23649
880.478	23695
880.605	23649
880.732	23707
880.859	23821
880.986	23687
881.112	23729
881.239	23501
881.366	23452
881.493	23376
881.619	23288
881.746	23330
881.872	23242
881.999	23250
882.125	23220
882.252	23265
882.378	23128
882.505	23356
882.631	23124
882.757	22976
882.883	23048
883.01	23037
883.136	22816
883.262	22839
883.388	22850
883.514	23006
883.64	23025
883.766	22908
883.892	22748
884.018	22752
884.143	22866
884.269	22869
884.395	22561
884.52	22523
884.646	22759
884.772	22527
884.897	22535
885.023	22538
885.148	22546
885.274	22786
885.399	22626
885.524	22497
885.65	22546
885.775	22542
885.9	22523
886.025	22615
886.15	22500
886.275	22561
886.4	22561
886.525	22546
886.65	22527
886.775	22447
886.9	22504
887.025	22820
887.149	22500
887.274	22443
887.399	22348
887.523	22409
887.648	22246
887.773	22158
887.897	22352
888.021	22413
888.146	22276
888.27	22443
888.395	22443
888.519	22303
888.643	22150
888.767	22371
888.891	22318
889.015	22166
889.139	22070
889.263	22143
889.387	22265
889.511	22356
889.635	22276
889.759	22124
889.883	21983
890.006	22116
890.13	22253
890.254	22150
890.377	21972
890.501	21838
890.624	21884
890.748	21903
890.871	21785
890.995	21690
891.118	21599
891.241	21694
891.364	21713
891.488	21823
891.611	21686
891.734	21739
891.857	21652
891.98	21637
892.103	21671
892.226	21606
892.349	21717
892.471	21401
892.594	21591
892.717	21610
892.839	21443
892.962	21519
893.085	21656
893.207	21462
893.33	21462
893.452	21561
893.575	21530
893.697	21477
893.819	21595
893.941	21583
894.064	21564
894.186	21412
894.308	21393
894.43	21568
894.552	21709
894.674	21473
894.796	21515
894.918	21561
895.04	21386
895.161	21549
895.283	21549
895.405	21504
895.526	21511
895.648	21545
895.769	21481
895.891	21523
896.012	21523
896.134	21622
896.255	21549
896.376	21420
896.498	21412
896.619	21572
896.74	21466
896.861	21603
896.982	21857
897.103	21884
897.224	21751
897.345	21656
897.466	21595
897.587	21663
897.708	21709
897.828	21698
897.949	21583
898.07	21656
898.19	21686
898.311	21823
898.431	21496
898.552	21690
898.672	21724
898.792	21808
898.913	21663
899.033	21637
899.153	21367
899.273	21321
899.393	21488
899.513	21450
899.633	21450
899.753	21412
899.873	21279
899.993	21313
900.113	21264
900.232	21428
900.352	21146
900.472	21226
900.591	21176
900.711	21176
900.83	21154
900.95	21192
901.069	21401
901.189	21028
901.308	20845
901.427	20708
901.546	20811
901.665	20788
901.784	20697
901.904	20632
902.023	20431
902.141	20332
902.26	20339
902.379	20278
902.498	20256
902.617	20240
902.735	20320
902.854	20187
902.973	20149
903.091	19917
903.21	19856
903.328	19925
903.446	19788
903.565	19655
903.683	19655
903.801	19525
903.919	19689
904.038	19647
904.156	19487
904.274	19476
904.392	19415
904.51	19445
904.627	19365
904.745	19460
904.863	19518
904.981	19209
905.098	19069
905.216	19061
905.334	19141
905.451	19350
905.569	19050
905.686	19217
905.803	19160
905.921	18856
906.038	18886
906.155	18848
906.272	18806
906.389	18798
906.506	18635
906.623	18703
906.74	18654
906.857	18441
906.974	18475
907.091	18627
907.208	18734
907.324	18517
907.441	18578
907.557	18315
907.674	18357
907.79	18254
907.907	18334
908.023	18292
908.139	18289
908.256	18254
908.372	18273
908.488	18254
908.604	18072
908.72	17965
908.836	18076
908.952	18102
909.068	18083
909.184	18201
909.3	18095
909.415	18057
909.531	18038
909.647	17946
909.762	17756
909.878	17695
909.993	17737
910.108	17630
910.224	17718
910.339	17676
910.454	17547
910.57	17474
910.685	17440
910.8	17790
910.915	17642
911.03	17501
911.145	17410
911.259	17345
911.374	17383
911.489	17208
911.604	17208
911.718	16987
911.833	17079
911.947	16999
912.062	16759
912.176	17014
912.291	17056
912.405	17067
912.519	17258
912.633	17170
912.748	17075
912.862	16980
912.976	16820
913.09	16866
913.204	16744
913.318	16820
913.431	16896
913.545	16866
913.659	16892
913.772	16790
913.886	16691
914	16527
914.113	16710
914.226	16771
914.34	16725
914.453	16550
914.566	16710
914.68	16542
914.793	16554
914.906	16344
915.019	16147
915.132	16200
915.245	16185
915.358	16181
915.47	16185
915.583	16207
915.696	16238
915.809	16322
915.921	16306
916.034	16021
916.146	16086
916.259	16143
916.371	16101
916.483	16188
916.595	15994
916.708	16093
916.82	15991
916.932	16002
917.044	15953
917.156	15987
917.268	15789
917.38	15861
917.491	15774
917.603	15819
917.715	15842
917.826	15903
917.938	15751
918.049	15545
918.161	15690
918.272	15895
918.384	15842
918.495	15682
918.606	15557
918.717	15416
918.828	15553
918.939	15564
919.05	15458
919.161	15557
919.272	15291
919.383	15378
919.494	15534
919.604	15686
919.715	15610
919.826	15351
919.936	15504
920.047	15538
920.157	15431
920.267	15595
920.378	15496
920.488	15321
920.598	15667
920.708	15797
920.818	15584
920.928	15591
921.038	15720
921.148	15770
921.258	15408
921.368	15374
921.477	15226
921.587	15138
921.697	15009
921.806	15176
921.916	15028
922.025	14853
922.134	14861
922.244	14792
922.353	14864
922.462	14678
922.571	14598
922.68	14533
922.789	14533
922.898	14514
923.007	14343
923.116	14423
923.224	14446
923.333	14377
923.442	14339
923.55	14313
923.659	14244
923.767	14427
923.876	14282
923.984	14351
924.092	14138
924.201	14202
924.309	14134
924.417	14138
924.525	14176
924.633	14065
924.741	15154
924.849	13955
924.956	14027
925.064	13879
925.172	13704
925.279	13788
925.387	13913
925.494	13799
925.602	13928
925.709	13837
925.816	13719
925.924	13689
926.031	13788
926.138	13776
926.245	13700
926.352	13712
926.459	13772
926.566	13795
926.673	13658
926.779	13590
926.886	13521
926.993	13400
927.099	13407
927.206	13335
927.312	13411
927.419	13445
927.525	13438
927.631	13407
927.737	13175
927.843	13255
927.95	13080
928.056	13217
928.162	13129
928.267	13168
928.373	13830
928.479	13259
928.585	12977
928.69	13164
928.796	13168
928.901	12966
929.007	12856
929.112	13042
929.218	13046
929.323	12875
929.428	12886
929.533	12954
929.638	12806
929.743	12825
929.848	12814
929.953	12791
930.058	12677
930.163	12464
930.267	12589
930.372	12669
930.477	12544
930.581	12730
930.685	12612
930.79	12418
930.894	12437
930.998	12380
931.103	12464
931.207	12136
931.311	12068
931.415	11961
931.519	11798
931.623	11775
