Data from test_V78500241_2039.txt Node
Date: Fri Mar 25 15:55:55 CST 2022
User: usil
Spectrometer: V785-0024
Trigger mode: 0
Integration Time (sec): 4.000000E-1
Scans to average: 1
Nonlinearity correction enabled: false
Boxcar width: 0
Storing dark spectrum: false
XAxis mode: Wavelengths
Number of Pixels in Spectrum: 1024
>>>>>Begin Spectral Data<<<<<
801.071	28744
801.214	28843
801.356	28672
801.499	28531
801.641	28474
801.783	28409
801.926	28493
802.068	28401
802.211	28360
802.353	28341
802.496	28200
802.638	28234
802.78	28082
802.923	28131
803.065	28032
803.208	28105
803.35	28246
803.492	28333
803.635	28371
803.777	28226
803.919	28310
804.061	28759
804.204	28478
804.346	28261
804.488	28348
804.63	28318
804.773	28398
804.915	28261
805.057	28523
805.199	28413
805.341	28557
805.483	28618
805.626	28481
805.768	28512
805.91	28763
806.052	28626
806.194	28401
806.336	28588
806.478	28630
806.62	28554
806.762	28752
806.904	28919
807.046	29044
807.188	28904
807.33	29003
807.472	29052
807.614	29075
807.756	28919
807.898	28744
808.04	28755
808.182	28850
808.324	28904
808.465	29037
808.607	29250
808.749	29208
808.891	29402
809.033	29440
809.174	29185
809.316	29250
809.458	29334
809.6	29326
809.741	29398
809.883	29307
810.025	29493
810.166	29448
810.308	29543
810.45	29512
810.591	29436
810.733	29299
810.875	29231
811.016	29197
811.158	29189
811.299	29395
811.441	29379
811.582	29375
811.724	29326
811.865	29242
812.007	29261
812.148	29239
812.29	29235
812.431	29425
812.573	29543
812.714	29718
812.855	29851
812.997	29954
813.138	30064
813.279	29786
813.421	29756
813.562	29760
813.703	29630
813.845	29512
813.986	29212
814.127	29052
814.268	28972
814.41	28991
814.551	28911
814.692	28987
814.833	28881
814.974	28987
815.115	28991
815.256	28835
815.397	28793
815.539	28816
815.68	28835
815.821	28774
815.962	28790
816.103	28927
816.244	28668
816.385	28573
816.526	28611
816.666	28382
816.807	28276
816.948	28447
817.089	28440
817.23	28421
817.371	28268
817.512	28257
817.653	28112
817.793	28276
817.934	28303
818.075	28375
818.216	28238
818.356	28249
818.497	28135
818.638	28059
818.778	28090
818.919	28097
819.06	28162
819.2	28261
819.341	28344
819.481	28246
819.622	28318
819.762	28588
819.903	28637
820.043	28478
820.184	28451
820.324	28485
820.465	28493
820.605	28390
820.746	28421
820.886	28314
821.026	28329
821.167	28382
821.307	28348
821.447	28318
821.588	28322
821.728	28082
821.868	27998
822.008	27941
822.149	27850
822.289	27888
822.429	27466
822.569	27492
822.709	27496
822.849	27321
822.99	27302
823.13	27283
823.27	27203
823.41	27017
823.55	27058
823.69	27135
823.83	27123
823.97	27218
824.11	26914
824.25	26804
824.389	26960
824.529	26891
824.669	26864
824.809	26979
824.949	27036
825.089	27062
825.228	26880
825.368	26834
825.508	26735
825.648	26845
825.787	26735
825.927	26940
826.067	26815
826.206	26845
826.346	26849
826.485	26979
826.625	26834
826.765	26948
826.904	26826
827.044	26720
827.183	26659
827.323	26514
827.462	26560
827.601	26507
827.741	26526
827.88	26648
828.02	26442
828.159	26518
828.298	26518
828.437	26583
828.577	26522
828.716	26651
828.855	26415
828.994	26195
829.134	26233
829.273	26362
829.412	26267
829.551	26115
829.69	26233
829.829	26229
829.968	26275
830.107	26313
830.246	26240
830.385	26119
830.524	26126
830.663	26054
830.802	25879
830.941	25909
831.08	25746
831.219	25993
831.357	25841
831.496	26027
831.635	25894
831.774	25670
831.913	25822
832.051	25658
832.19	25605
832.329	25677
832.467	25594
832.606	25491
832.744	25552
832.883	25381
833.022	25411
833.16	25419
833.299	25571
833.437	25510
833.576	25647
833.714	25556
833.852	25575
833.991	25647
834.129	25674
834.267	25582
834.406	25586
834.544	25540
834.682	25537
834.821	25578
834.959	25731
835.097	25453
835.235	25628
835.373	25544
835.511	25552
835.65	25430
835.788	25578
835.926	25206
836.064	25198
836.202	25225
836.34	25468
836.478	25331
836.615	25335
836.753	25419
836.891	25388
837.029	25392
837.167	25396
837.305	25324
837.443	25247
837.58	25168
837.718	25099
837.856	25194
837.993	25053
838.131	25247
838.269	25080
838.406	25179
838.544	24992
838.681	24791
838.819	24798
838.956	24612
839.094	24620
839.231	24738
839.369	24848
839.506	25042
839.643	25004
839.781	24696
839.918	24658
840.055	24654
840.193	24631
840.33	24639
840.467	24570
840.604	24665
840.742	24757
840.879	24414
841.016	24479
841.153	24486
841.29	24597
841.427	24532
841.564	24494
841.701	24544
841.838	24456
841.975	24566
842.112	24532
842.249	24452
842.385	24334
842.522	24528
842.659	24483
842.796	24285
842.933	24247
843.069	24311
843.206	24178
843.343	24376
843.479	24277
843.616	24311
843.752	24262
843.889	24079
844.025	24258
844.162	24079
844.298	24152
844.435	24182
844.571	24068
844.708	24140
844.844	24235
844.98	24304
845.117	24190
845.253	23984
845.389	23916
845.525	23965
845.661	23950
845.798	23786
845.934	23920
846.07	23809
846.206	23741
846.342	24015
846.478	23733
846.614	23638
846.75	23524
846.886	23467
847.022	23596
847.158	23490
847.294	23646
847.429	23493
847.565	23433
847.701	23783
847.837	23345
847.972	23185
848.108	23334
848.244	23345
848.379	23178
848.515	23041
848.65	23086
848.786	23212
848.921	23121
849.057	23223
849.192	23155
849.328	23147
849.463	23060
849.598	23109
849.734	22892
849.869	23128
850.004	22869
850.14	22923
850.275	22915
850.41	22824
850.545	22831
850.68	22847
850.815	22991
850.95	22854
851.085	22927
851.22	22987
851.355	22847
851.49	22748
851.625	22816
851.76	22885
851.895	22820
852.03	22835
852.165	22911
852.299	22953
852.434	22957
852.569	22889
852.703	22744
852.838	22805
852.973	23064
853.107	22957
853.242	22835
853.376	22877
853.511	22736
853.645	22710
853.78	22892
853.914	22713
854.048	22656
854.183	22679
854.317	22721
854.451	22797
854.585	22733
854.72	22630
854.854	22881
854.988	22668
855.122	22656
855.256	22478
855.39	22653
855.524	22820
855.658	22767
855.792	22580
855.926	22759
856.06	22869
856.194	22668
856.327	22592
856.461	22622
856.595	22782
856.729	22767
856.862	22755
856.996	22733
857.13	22862
857.263	22892
857.397	22618
857.53	22710
857.664	22812
857.797	22660
857.931	22778
858.064	22653
858.197	22812
858.331	22649
858.464	22550
858.597	22554
858.731	22706
858.864	22713
858.997	22618
859.13	22672
859.263	22637
859.396	22790
859.529	22641
859.662	22740
859.795	22580
859.928	22637
860.061	22748
860.194	22896
860.327	22767
860.46	22656
860.592	22706
860.725	22949
860.858	22782
860.99	22717
861.123	22611
861.256	22710
861.388	22706
861.521	23505
861.653	22535
861.786	22489
861.918	22554
862.05	22637
862.183	22516
862.315	22584
862.447	22740
862.58	22546
862.712	22432
862.844	22466
862.976	22538
863.108	22409
863.24	22869
863.372	22390
863.504	22379
863.636	22432
863.768	22375
863.9	22333
864.032	22360
864.164	22367
864.296	22451
864.428	22508
864.559	22417
864.691	22451
864.823	22379
864.954	22413
865.086	22386
865.217	22356
865.349	22219
865.48	22299
865.612	22314
865.743	22443
865.875	22242
866.006	22261
866.137	22234
866.269	22211
866.4	22249
866.531	22211
866.662	22261
866.793	22291
866.924	22200
867.055	22276
867.186	22154
867.317	22230
867.448	22116
867.579	22109
867.71	22143
867.841	22158
867.972	22230
868.103	22158
868.233	22249
868.364	22242
868.495	22291
868.625	22402
868.756	22428
868.886	22470
869.017	22428
869.147	22538
869.278	22455
869.408	22451
869.539	22470
869.669	22622
869.799	22398
869.929	22596
870.06	22565
870.19	22759
870.32	22675
870.45	22824
870.58	22877
870.71	22915
870.84	22915
870.97	22961
871.1	22835
871.23	23018
871.36	23170
871.489	22987
871.619	22953
871.749	23075
871.879	22938
872.008	23181
872.138	22949
872.267	23155
872.397	22919
872.526	22961
872.656	22949
872.785	22965
872.915	23197
873.044	23155
873.173	23014
873.303	23185
873.432	23117
873.561	23181
873.69	23071
873.819	23079
873.948	23242
874.077	23033
874.206	22968
874.335	23086
874.464	23124
874.593	23292
874.722	23341
874.851	23277
874.979	23356
875.108	23250
875.237	23315
875.365	23128
875.494	23383
875.623	23372
875.751	23337
875.88	23349
876.008	23334
876.136	23562
876.265	23615
876.393	23783
876.521	23790
876.65	23832
876.778	23687
876.906	23592
877.034	23535
877.162	23627
877.29	23608
877.418	23493
877.546	23577
877.674	23467
877.802	23592
877.93	23570
878.058	23577
878.185	23585
878.313	23615
878.441	23608
878.568	23448
878.696	23577
878.824	23657
878.951	23623
879.079	23851
879.206	23878
879.333	23817
879.461	23642
879.588	23661
879.715	23843
879.842	23927
879.97	23779
880.097	23478
880.224	23459
880.351	23490
880.478	23459
880.605	23421
880.732	23330
880.859	23687
880.986	23368
881.112	23516
881.239	23372
881.366	23235
881.493	23143
881.619	22972
881.746	22999
881.872	22919
881.999	22965
882.125	22900
882.252	23048
882.378	22953
882.505	23121
882.631	22839
882.757	22729
882.883	22782
883.01	22691
883.136	22634
883.262	22626
883.388	22561
883.514	22561
883.64	22793
883.766	22523
883.892	22443
884.018	22538
884.143	22531
884.269	22622
884.395	22329
884.52	22318
884.646	22341
884.772	22257
884.897	22158
885.023	22253
885.148	22379
885.274	22440
885.399	22310
885.524	22402
885.65	22382
885.775	22375
885.9	22322
886.025	22421
886.15	22462
886.275	22246
886.4	22272
886.525	22234
886.65	22112
886.775	22226
886.9	22405
887.025	22402
887.149	22211
887.274	22112
887.399	22074
887.523	22150
887.648	21911
887.773	21854
887.897	21991
888.021	22128
888.146	21964
888.27	22051
888.395	22078
888.519	22116
888.643	22010
888.767	22006
888.891	22017
889.015	21857
889.139	21949
889.263	21850
889.387	21903
889.511	22025
889.635	22017
889.759	21819
889.883	21789
890.006	21778
890.13	21915
890.254	21793
890.377	21694
890.501	21652
890.624	21538
890.748	21633
890.871	21374
890.995	21370
891.118	21359
891.241	21355
891.364	21462
891.488	21488
891.611	21424
891.734	21405
891.857	21485
891.98	21504
892.103	21462
892.226	21340
892.349	21306
892.471	21230
892.594	21325
892.717	21260
892.839	21272
892.962	21256
893.085	21313
893.207	21336
893.33	21195
893.452	21203
893.575	21370
893.697	21199
893.819	21252
893.941	21488
894.064	21306
894.186	21131
894.308	21188
894.43	21325
894.552	21340
894.674	21233
894.796	21233
894.918	21321
895.04	21233
895.161	21283
895.283	21370
895.405	21169
895.526	21233
895.648	21207
895.769	21165
895.891	21291
896.012	21260
896.134	21363
896.255	21283
896.376	21180
896.498	21211
896.619	21416
896.74	21245
896.861	21359
896.982	21622
897.103	21652
897.224	21534
897.345	21519
897.466	21275
897.587	21416
897.708	21572
897.828	21557
897.949	21340
898.07	21268
898.19	21370
898.311	21481
898.431	21321
898.552	21298
898.672	21496
898.792	21561
898.913	21443
899.033	21416
899.153	21306
899.273	21157
899.393	21154
899.513	21233
899.633	21127
899.753	21233
899.873	21036
899.993	21116
900.113	21055
900.232	21066
900.352	21074
900.472	20975
900.591	20929
900.711	20857
900.83	21001
900.95	21051
901.069	20963
901.189	20788
901.308	20674
901.427	20465
901.546	20530
901.665	20568
901.784	20495
901.904	20313
902.023	20408
902.141	20092
902.26	19963
902.379	20050
902.498	19974
902.617	20001
902.735	19989
902.854	20046
902.973	19902
903.091	19715
903.21	19651
903.328	19708
903.446	19518
903.565	19480
903.683	19388
903.801	19441
903.919	19381
904.038	19335
904.156	19236
904.274	19247
904.392	19122
904.51	19209
904.627	19213
904.745	19236
904.863	19270
904.981	19091
905.098	18859
905.216	18806
905.334	18817
905.451	18894
905.569	18852
905.686	18897
905.803	18810
905.921	18665
906.038	18829
906.155	18650
906.272	18494
906.389	18490
906.506	18471
906.623	18441
906.74	18365
906.857	18346
906.974	18311
907.091	18391
907.208	18521
907.324	18464
907.441	18311
907.557	18011
907.674	18133
907.79	18106
907.907	18110
908.023	18106
908.139	18174
908.256	18117
908.372	18053
908.488	17954
908.604	17885
908.72	17786
908.836	17794
908.952	17832
909.068	17760
909.184	17859
909.3	17733
909.415	17908
909.531	17798
909.647	17596
909.762	17528
909.878	17524
909.993	17452
910.108	17448
910.224	17455
910.339	17524
910.454	17345
910.57	17235
910.685	17212
910.8	17433
910.915	17334
911.03	17265
911.145	17132
911.259	17216
911.374	17090
911.489	17010
911.604	17033
911.718	16866
911.833	16744
911.947	16740
912.062	16752
912.176	16672
912.291	16809
912.405	16793
912.519	17003
912.633	17045
912.748	16877
912.862	16828
912.976	16672
913.09	16500
913.204	16645
913.318	16546
913.431	16691
913.545	16694
913.659	16687
913.772	16527
913.886	16493
914	16402
914.113	16424
914.226	16535
914.34	16478
914.453	16348
914.566	16424
914.68	16276
914.793	16238
914.906	16048
915.019	15953
915.132	15930
915.245	15949
915.358	16017
915.47	15934
915.583	15937
915.696	15994
915.809	16063
915.921	16082
916.034	15987
916.146	15819
916.259	15918
916.371	15991
916.483	15934
916.595	15808
916.708	15793
916.82	15838
916.932	15728
917.044	15781
917.156	15713
917.268	15584
917.38	15606
917.491	15739
917.603	15538
917.715	15660
917.826	15622
917.938	15564
918.049	15420
918.161	15591
918.272	15785
918.384	15698
918.495	15515
918.606	15443
918.717	15310
918.828	15439
918.939	15405
919.05	15325
919.161	15264
919.272	15310
919.383	15241
919.494	15401
919.604	15534
919.715	15306
919.826	15222
919.936	15310
920.047	15332
920.157	15359
920.267	15408
920.378	15374
920.488	15222
920.598	15450
920.708	15625
920.818	15500
920.928	15428
921.038	15648
921.148	15469
921.258	15226
921.368	15173
921.477	15013
921.587	15047
921.697	14876
921.806	14986
921.916	14842
922.025	14826
922.134	14621
922.244	14769
922.353	14705
922.462	14560
922.571	14476
922.68	14404
922.789	14336
922.898	14248
923.007	14381
923.116	14290
923.224	14244
923.333	14237
923.442	14199
923.55	14183
923.659	14187
923.767	14278
923.876	14096
923.984	14176
924.092	14081
924.201	14069
924.309	14142
924.417	14031
924.525	14020
924.633	13944
924.741	14925
924.849	13750
924.956	13951
925.064	13765
925.172	13689
925.279	13769
925.387	13795
925.494	13636
925.602	13830
925.709	13772
925.816	13518
925.924	13636
926.031	13620
926.138	13601
926.245	13757
926.352	13575
926.459	13734
926.566	13727
926.673	13590
926.779	13365
926.886	13457
926.993	13278
927.099	13362
927.206	13168
927.312	13202
927.419	13259
927.525	13266
927.631	13168
927.737	13198
927.843	13061
927.95	13000
928.056	13004
928.162	13061
928.267	13122
928.373	13674
928.479	13114
928.585	12905
928.69	12993
928.796	13019
928.901	12871
929.007	12798
929.112	12916
929.218	12913
929.323	12734
929.428	12768
929.533	12894
929.638	12700
929.743	12734
929.848	12730
929.953	12703
930.058	12570
930.163	12407
930.267	12433
930.372	12513
930.477	12388
930.581	12662
930.685	12448
930.79	12308
930.894	12194
930.998	12220
931.103	12407
931.207	12034
931.311	11885
931.415	11927
931.519	11665
931.623	11577
