Data from test_V78500241_3164.txt Node
Date: Fri Mar 25 16:03:43 CST 2022
User: usil
Spectrometer: V785-0024
Trigger mode: 0
Integration Time (sec): 4.000000E-1
Scans to average: 1
Nonlinearity correction enabled: false
Boxcar width: 0
Storing dark spectrum: false
XAxis mode: Wavelengths
Number of Pixels in Spectrum: 1024
>>>>>Begin Spectral Data<<<<<
801.071	28234
801.214	28318
801.356	28017
801.499	28013
801.641	27880
801.783	27797
801.926	27899
802.068	27823
802.211	27816
802.353	27755
802.496	27648
802.638	27526
802.78	27583
802.923	27526
803.065	27511
803.208	27454
803.35	27500
803.492	27644
803.635	27724
803.777	27682
803.919	27705
804.061	28074
804.204	27835
804.346	27591
804.488	27660
804.63	27751
804.773	27720
804.915	27759
805.057	27892
805.199	27793
805.341	27918
805.483	28036
805.626	27861
805.768	27835
805.91	27876
806.052	28010
806.194	27751
806.336	28097
806.478	27854
806.62	27914
806.762	28013
806.904	28204
807.046	28531
807.188	28337
807.33	28447
807.472	28474
807.614	28215
807.756	28272
807.898	28230
808.04	28120
808.182	28116
808.324	28188
808.465	28230
808.607	28542
808.749	28683
808.891	28607
809.033	28713
809.174	28634
809.316	28599
809.458	28531
809.6	28500
809.741	28675
809.883	28736
810.025	29003
810.166	28927
810.308	28896
810.45	28797
810.591	28797
810.733	28675
810.875	28538
811.016	28379
811.158	28618
811.299	28557
811.441	28656
811.582	28725
811.724	28565
811.865	28580
812.007	28778
812.148	28603
812.29	28733
812.431	28831
812.573	28987
812.714	28873
812.855	29075
812.997	29341
813.138	29223
813.279	29140
813.421	29121
813.562	28812
813.703	28854
813.845	28698
813.986	28504
814.127	28382
814.268	28211
814.41	28318
814.551	28200
814.692	28306
814.833	28207
814.974	28226
815.115	28223
815.256	28128
815.397	28124
815.539	28185
815.68	28173
815.821	27949
815.962	28086
816.103	28131
816.244	28082
816.385	27945
816.526	27854
816.666	27793
816.807	27705
816.948	27599
817.089	27663
817.23	27576
817.371	27622
817.512	27523
817.653	27675
817.793	27583
817.934	27694
818.075	27526
818.216	27633
818.356	27507
818.497	27496
818.638	27249
818.778	27317
818.919	27431
819.06	27447
819.2	27561
819.341	27523
819.481	27614
819.622	27675
819.762	27865
819.903	27755
820.043	27819
820.184	27774
820.324	27667
820.465	27648
820.605	27766
820.746	27701
820.886	27523
821.026	27530
821.167	27644
821.307	27762
821.447	27610
821.588	27492
821.728	27348
821.868	27302
822.008	27074
822.149	27116
822.289	26861
822.429	26762
822.569	26708
822.709	26655
822.849	26644
822.99	26651
823.13	26549
823.27	26545
823.41	26469
823.55	26355
823.69	26400
823.83	26389
823.97	26400
824.11	26058
824.25	26138
824.389	26187
824.529	26362
824.669	26263
824.809	26343
824.949	26362
825.089	26393
825.228	26252
825.368	26062
825.508	25970
825.648	26058
825.787	26210
825.927	26122
826.067	26043
826.206	26092
826.346	26050
826.485	26149
826.625	26035
826.765	26301
826.904	26126
827.044	25696
827.183	25902
827.323	25818
827.462	25883
827.601	25769
827.741	25780
827.88	25731
828.02	25620
828.159	25826
828.298	25837
828.437	25944
828.577	25795
828.716	25966
828.855	25780
828.994	25529
829.134	25460
829.273	25419
829.412	25457
829.551	25491
829.69	25491
829.829	25529
829.968	25731
830.107	25464
830.246	25491
830.385	25544
830.524	25297
830.663	25266
830.802	25270
830.941	25126
831.08	25122
831.219	25255
831.357	25179
831.496	25335
831.635	25069
831.774	25110
831.913	25072
832.051	24916
832.19	24901
832.329	24962
832.467	24947
832.606	24623
832.744	24871
832.883	24700
833.022	24658
833.16	24738
833.299	24886
833.437	24867
833.576	24863
833.714	24840
833.852	24932
833.991	24863
834.129	24913
834.267	24821
834.406	24837
834.544	24779
834.682	24863
834.821	24837
834.959	24954
835.097	24700
835.235	24981
835.373	24802
835.511	24783
835.65	24681
835.788	24878
835.926	24570
836.064	24448
836.202	24429
836.34	24620
836.478	24741
836.615	24631
836.753	24669
836.891	24833
837.029	24726
837.167	24677
837.305	24570
837.443	24544
837.58	24399
837.718	24566
837.856	24536
837.993	24445
838.131	24601
838.269	24285
838.406	24494
838.544	24353
838.681	24220
838.819	24216
838.956	23920
839.094	24034
839.231	24045
839.369	24174
839.506	24376
839.643	24243
839.781	23927
839.918	23946
840.055	23912
840.193	24022
840.33	23893
840.467	23927
840.604	23901
840.742	24110
840.879	23764
841.016	23798
841.153	23752
841.29	23954
841.427	24007
841.564	23889
841.701	23866
841.838	23809
841.975	23676
842.112	23767
842.249	23794
842.385	23577
842.522	23878
842.659	23680
842.796	23703
842.933	23646
843.069	23471
843.206	23592
843.343	23642
843.479	23600
843.616	23748
843.752	23410
843.889	23524
844.025	23623
844.162	23387
844.298	23539
844.435	23318
844.571	23383
844.708	23326
844.844	23467
844.98	23577
845.117	23429
845.253	23425
845.389	23410
845.525	23486
845.661	23258
845.798	23212
845.934	23239
846.07	23098
846.206	23044
846.342	23223
846.478	23193
846.614	22999
846.75	22885
846.886	22820
847.022	23029
847.158	22949
847.294	22850
847.429	22999
847.565	22889
847.701	23231
847.837	22550
847.972	22573
848.108	22744
848.244	22679
848.379	22580
848.515	22546
848.65	22512
848.786	22363
848.921	22516
849.057	22573
849.192	22481
849.328	22561
849.463	22611
849.598	22474
849.734	22360
849.869	22333
850.004	22147
850.14	22337
850.275	22226
850.41	22135
850.545	22242
850.68	22303
850.815	22139
850.95	22314
851.085	22489
851.22	22352
851.355	22238
851.49	22272
851.625	22223
851.76	22242
851.895	22166
852.03	22131
852.165	22200
852.299	22291
852.434	22375
852.569	22318
852.703	22246
852.838	22200
852.973	22413
853.107	22341
853.242	22173
853.376	22109
853.511	21972
853.645	22006
853.78	22226
853.914	22116
854.048	22124
854.183	22105
854.317	22143
854.451	22196
854.585	22139
854.72	22196
854.854	22162
854.988	22093
855.122	21998
855.256	21934
855.39	21991
855.524	22188
855.658	22192
855.792	22090
855.926	22044
856.06	22173
856.194	22188
856.327	22116
856.461	22090
856.595	22040
856.729	21956
856.862	22185
856.996	22059
857.13	22280
857.263	22219
857.397	22154
857.53	22067
857.664	22143
857.797	22086
857.931	22169
858.064	22036
858.197	22253
858.331	22029
858.464	22067
858.597	22040
858.731	22147
858.864	22013
858.997	22048
859.13	22093
859.263	22055
859.396	22101
859.529	22116
859.662	21945
859.795	22135
859.928	21998
860.061	22223
860.194	22341
860.327	22226
860.46	22082
860.592	22188
860.725	22215
860.858	22200
860.99	22128
861.123	22025
861.256	21998
861.388	22059
861.521	22812
861.653	21941
861.786	21911
861.918	22036
862.05	21930
862.183	22048
862.315	22105
862.447	22086
862.58	21945
862.712	21759
862.844	21762
862.976	21842
863.108	21827
863.24	22105
863.372	21652
863.504	21812
863.636	21850
863.768	21736
863.9	21705
864.032	21682
864.164	21739
864.296	21835
864.428	21953
864.559	21876
864.691	21793
864.823	21804
864.954	21888
865.086	21770
865.217	21732
865.349	21564
865.48	21694
865.612	21720
865.743	21850
865.875	21713
866.006	21739
866.137	21709
866.269	21637
866.4	21538
866.531	21583
866.662	21580
866.793	21644
866.924	21625
867.055	21618
867.186	21583
867.317	21610
867.448	21576
867.579	21549
867.71	21561
867.841	21545
867.972	21485
868.103	21557
868.233	21549
868.364	21637
868.495	21743
868.625	21987
868.756	21956
868.886	21930
869.017	21880
869.147	21850
869.278	22059
869.408	21831
869.539	21922
869.669	22002
869.799	21854
869.929	22036
870.06	21991
870.19	22135
870.32	22131
870.45	22196
870.58	22265
870.71	22352
870.84	22386
870.97	22226
871.1	22284
871.23	22436
871.36	22493
871.489	22356
871.619	22402
871.749	22455
871.879	22546
872.008	22641
872.138	22447
872.267	22493
872.397	22375
872.526	22192
872.656	22303
872.785	22295
872.915	22455
873.044	22550
873.173	22440
873.303	22432
873.432	22554
873.561	22554
873.69	22382
873.819	22379
873.948	22554
874.077	22649
874.206	22462
874.335	22443
874.464	22599
874.593	22634
874.722	22672
874.851	22755
874.979	22736
875.108	22748
875.237	22569
875.365	22538
875.494	22706
875.623	22733
875.751	22664
875.88	22763
876.008	22797
876.136	22885
876.265	23162
876.393	23204
876.521	23162
876.65	23170
876.778	23010
876.906	23189
877.034	23014
877.162	23048
877.29	23048
877.418	23105
877.546	23212
877.674	23029
877.802	23029
877.93	23056
878.058	22984
878.185	22892
878.313	23014
878.441	23052
878.568	22850
878.696	23022
878.824	23022
878.951	23109
879.079	23318
879.206	23433
879.333	23242
879.461	22984
879.588	23254
879.715	23132
879.842	23372
879.97	23098
880.097	22908
880.224	22892
880.351	22858
880.478	22854
880.605	22862
880.732	22930
880.859	23048
880.986	22835
881.112	22949
881.239	22782
881.366	22634
881.493	22508
881.619	22417
881.746	22390
881.872	22462
881.999	22462
882.125	22375
882.252	22653
882.378	22557
882.505	22611
882.631	22306
882.757	22147
882.883	22158
883.01	21968
883.136	21979
883.262	22021
883.388	21937
883.514	22177
883.64	22116
883.766	21998
883.892	21819
884.018	21960
884.143	21972
884.269	22204
884.395	21895
884.52	21667
884.646	21869
884.772	21709
884.897	21595
885.023	21774
885.148	21835
885.274	21819
885.399	21819
885.524	21770
885.65	21819
885.775	21785
885.9	21675
886.025	21713
886.15	21804
886.275	21717
886.4	21603
886.525	21728
886.65	21698
886.775	21614
886.9	21903
887.025	22017
887.149	21778
887.274	21583
887.399	21477
887.523	21481
887.648	21564
887.773	21405
887.897	21572
888.021	21557
888.146	21462
888.27	21671
888.395	21587
888.519	21595
888.643	21466
888.767	21580
888.891	21393
889.015	21272
889.139	21344
889.263	21249
889.387	21355
889.511	21580
889.635	21408
889.759	21252
889.883	21321
890.006	21313
890.13	21287
890.254	21237
890.377	21108
890.501	21039
890.624	21100
890.748	21055
890.871	20963
890.995	20788
891.118	20823
891.241	20998
891.364	20883
891.488	20967
891.611	20887
891.734	20883
891.857	20952
891.98	20914
892.103	20891
892.226	20864
892.349	20769
892.471	20568
892.594	20667
892.717	20785
892.839	20686
892.962	20708
893.085	20796
893.207	20735
893.33	20644
893.452	20663
893.575	20644
893.697	20689
893.819	20857
893.941	20868
894.064	20956
894.186	20697
894.308	20651
894.43	20891
894.552	20883
894.674	20773
894.796	20644
894.918	20663
895.04	20769
895.161	20792
895.283	20788
895.405	20697
895.526	20708
895.648	20651
895.769	20762
895.891	20891
896.012	20880
896.134	20887
896.255	20724
896.376	20606
896.498	20811
896.619	20727
896.74	20777
896.861	20746
896.982	21066
897.103	21043
897.224	21005
897.345	20918
897.466	20819
897.587	20975
897.708	21043
897.828	20986
897.949	20819
898.07	20648
898.19	20838
898.311	21024
898.431	20811
898.552	20895
898.672	20914
898.792	20967
898.913	20830
899.033	20861
899.153	20937
899.273	20617
899.393	20659
899.513	20705
899.633	20632
899.753	20701
899.873	20644
899.993	20686
900.113	20632
900.232	20674
900.352	20583
900.472	20393
900.591	20415
900.711	20476
900.83	20320
900.95	20511
901.069	20568
901.189	20233
901.308	20107
901.427	20024
901.546	20069
901.665	20035
901.784	20069
901.904	19860
902.023	19757
902.141	19472
902.26	19495
902.379	19491
902.498	19590
902.617	19502
902.735	19548
902.854	19518
902.973	19457
903.091	19247
903.21	19236
903.328	19168
903.446	19160
903.565	19061
903.683	18947
903.801	18894
903.919	18943
904.038	18935
904.156	18802
904.274	18890
904.392	18745
904.51	18665
904.627	18814
904.745	18779
904.863	18916
904.981	18525
905.098	18483
905.216	18426
905.334	18399
905.451	18521
905.569	18460
905.686	18509
905.803	18395
905.921	18239
906.038	18281
906.155	18186
906.272	18098
906.389	18117
906.506	17912
906.623	17882
906.74	17935
906.857	17836
906.974	17821
907.091	18076
907.208	18098
907.324	18095
907.441	17874
907.557	17802
907.674	17668
907.79	17532
907.907	17600
908.023	17729
908.139	17642
908.256	17566
908.372	17592
908.488	17512
908.604	17543
908.72	17265
908.836	17436
908.952	17315
909.068	17376
909.184	17490
909.3	17322
909.415	17391
909.531	17391
909.647	17124
909.762	17105
909.878	16957
909.993	17083
910.108	17090
910.224	17071
910.339	16965
910.454	16965
910.57	16881
910.685	16862
910.8	17022
910.915	16980
911.03	16835
911.145	16721
911.259	16706
911.374	16660
911.489	16664
911.604	16523
911.718	16436
911.833	16497
911.947	16295
912.062	16238
912.176	16242
912.291	16363
912.405	16394
912.519	16535
912.633	16637
912.748	16497
912.862	16310
912.976	16284
913.09	16074
913.204	16223
913.318	16226
913.431	16382
913.545	16329
913.659	16246
913.772	16067
913.886	16086
914	16112
914.113	16071
914.226	16105
914.34	16090
914.453	15831
914.566	16086
914.68	15960
914.793	15880
914.906	15690
915.019	15523
915.132	15606
915.245	15542
915.358	15603
915.47	15698
915.583	15599
915.696	15549
915.809	15755
915.921	15724
916.034	15523
916.146	15511
916.259	15542
916.371	15648
916.483	15644
916.595	15469
916.708	15439
916.82	15424
916.932	15401
917.044	15348
917.156	15272
917.268	15378
917.38	15275
917.491	15237
917.603	15268
917.715	15408
917.826	15325
917.938	15214
918.049	15207
918.161	15127
918.272	15287
918.384	15378
918.495	15222
918.606	15097
918.717	15009
918.828	15028
918.939	15135
919.05	14982
919.161	15017
919.272	14868
919.383	14773
919.494	14948
919.604	15260
919.715	15055
919.826	14868
919.936	14971
920.047	15123
920.157	14979
920.267	15062
920.378	15055
920.488	14975
920.598	15154
920.708	15302
920.818	15112
920.928	15157
921.038	15363
921.148	15291
921.258	14956
921.368	14823
921.477	14781
921.587	14727
921.697	14594
921.806	14781
921.916	14533
922.025	14461
922.134	14381
922.244	14366
922.353	14294
922.462	14313
922.571	14180
922.68	14020
922.789	13982
922.898	14020
923.007	14001
923.116	14092
923.224	13906
923.333	13955
923.442	13795
923.55	13807
923.659	13833
923.767	13928
923.876	13620
923.984	13784
924.092	13708
924.201	13708
924.309	13807
924.417	13734
924.525	13670
924.633	13670
924.741	14461
924.849	13472
924.956	13559
925.064	13514
925.172	13343
925.279	13365
925.387	13502
925.494	13308
925.602	13514
925.709	13483
925.816	13282
925.924	13350
926.031	13392
926.138	13270
926.245	13335
926.352	13198
926.459	13327
926.566	13365
926.673	13213
926.779	13179
926.886	13129
926.993	13000
927.099	12951
927.206	12859
927.312	12859
927.419	12981
927.525	13050
927.631	12947
927.737	12852
927.843	12776
927.95	12673
928.056	12681
928.162	12772
928.267	12707
928.373	13331
928.479	12871
928.585	12502
928.69	12711
928.796	12772
928.901	12555
929.007	12418
929.112	12635
929.218	12517
929.323	12426
929.428	12547
929.533	12574
929.638	12498
929.743	12418
929.848	12418
929.953	12315
930.058	12159
930.163	12155
930.267	12129
930.372	12334
930.477	12163
930.581	12292
930.685	12182
930.79	12076
930.894	12102
930.998	12007
931.103	12148
931.207	11760
931.311	11668
931.415	11619
931.519	11471
931.623	11395
