Data from test_V78500241_868.txt Node
Date: Fri Mar 25 15:47:48 CST 2022
User: usil
Spectrometer: V785-0024
Trigger mode: 0
Integration Time (sec): 4.000000E-1
Scans to average: 1
Nonlinearity correction enabled: false
Boxcar width: 0
Storing dark spectrum: false
XAxis mode: Wavelengths
Number of Pixels in Spectrum: 1024
>>>>>Begin Spectral Data<<<<<
801.071	27462
801.214	27367
801.356	27294
801.499	27032
801.641	26773
801.783	26876
801.926	26975
802.068	26982
802.211	26861
802.353	26689
802.496	26507
802.638	26530
802.78	26541
802.923	26453
803.065	26537
803.208	26568
803.35	26644
803.492	26583
803.635	26590
803.777	26602
803.919	26701
804.061	27032
804.204	26754
804.346	26640
804.488	26488
804.63	26613
804.773	26701
804.915	26807
805.057	26819
805.199	26842
805.341	26796
805.483	26864
805.626	26845
805.768	26705
805.91	26891
806.052	26887
806.194	26727
806.336	26963
806.478	26849
806.62	26887
806.762	26979
806.904	27237
807.046	27466
807.188	27275
807.33	27249
807.472	27329
807.614	27241
807.756	27188
807.898	27188
808.04	27074
808.182	27020
808.324	27108
808.465	27135
808.607	27351
808.749	27306
808.891	27507
809.033	27606
809.174	27519
809.316	27359
809.458	27477
809.6	27427
809.741	27439
809.883	27599
810.025	27774
810.166	27797
810.308	27781
810.45	27736
810.591	27679
810.733	27519
810.875	27363
811.016	27382
811.158	27420
811.299	27583
811.441	27599
811.582	27694
811.724	27447
811.865	27553
812.007	27549
812.148	27397
812.29	27629
812.431	27583
812.573	27888
812.714	27945
812.855	28002
812.997	28044
813.138	28265
813.279	28086
813.421	28025
813.562	27907
813.703	27789
813.845	27709
813.986	27462
814.127	27176
814.268	27123
814.41	27135
814.551	27070
814.692	27074
814.833	27207
814.974	27119
815.115	27233
815.256	27066
815.397	27070
815.539	26990
815.68	26918
815.821	26750
815.962	26975
816.103	26845
816.244	26910
816.385	26731
816.526	26716
816.666	26579
816.807	26415
816.948	26358
817.089	26476
817.23	26617
817.371	26438
817.512	26442
817.653	26488
817.793	26389
817.934	26374
818.075	26511
818.216	26533
818.356	26336
818.497	26240
818.638	26134
818.778	26202
818.919	26096
819.06	26180
819.2	26339
819.341	26473
819.481	26320
819.622	26541
819.762	26845
819.903	26667
820.043	26537
820.184	26465
820.324	26583
820.465	26488
820.605	26450
820.746	26545
820.886	26396
821.026	26419
821.167	26461
821.307	26625
821.447	26453
821.588	26404
821.728	26252
821.868	26157
822.008	25932
822.149	25822
822.289	25852
822.429	25658
822.569	25502
822.709	25578
822.849	25533
822.99	25491
823.13	25400
823.27	25282
823.41	25236
823.55	25099
823.69	25240
823.83	25168
823.97	25232
824.11	24920
824.25	24909
824.389	24920
824.529	25084
824.669	25076
824.809	25072
824.949	25168
825.089	25133
825.228	25019
825.368	24817
825.508	24715
825.648	24829
825.787	24863
825.927	24932
826.067	24935
826.206	24878
826.346	24992
826.485	24992
826.625	24905
826.765	24901
826.904	25004
827.044	24593
827.183	24703
827.323	24711
827.462	24646
827.601	24635
827.741	24486
827.88	24673
828.02	24475
828.159	24646
828.298	24616
828.437	24479
828.577	24540
828.716	24646
828.855	24528
828.994	24327
829.134	24201
829.273	24327
829.412	24346
829.551	24270
829.69	24433
829.829	24365
829.968	24388
830.107	24296
830.246	24342
830.385	24216
830.524	24262
830.663	24091
830.802	24003
830.941	23813
831.08	23961
831.219	23954
831.357	23954
831.496	24049
831.635	23832
831.774	23790
831.913	23786
832.051	23710
832.19	23771
832.329	23783
832.467	23630
832.606	23619
832.744	23429
832.883	23516
833.022	23452
833.16	23714
833.299	23608
833.437	23531
833.576	23547
833.714	23592
833.852	23611
833.991	23710
834.129	23710
834.267	23741
834.406	23577
834.544	23577
834.682	23630
834.821	23638
834.959	23729
835.097	23520
835.235	23687
835.373	23687
835.511	23471
835.65	23455
835.788	23539
835.926	23379
836.064	23227
836.202	23376
836.34	23501
836.478	23657
836.615	23379
836.753	23474
836.891	23463
837.029	23493
837.167	23410
837.305	23406
837.443	23448
837.58	23284
837.718	23421
837.856	23417
837.993	23315
838.131	23376
838.269	23162
838.406	23197
838.544	23140
838.681	22919
838.819	22889
838.956	22858
839.094	22755
839.231	22850
839.369	23018
839.506	23136
839.643	22968
839.781	22706
839.918	22809
840.055	22831
840.193	22660
840.33	22763
840.467	22778
840.604	22828
840.742	23083
840.879	22519
841.016	22592
841.153	22626
841.29	22706
841.427	22668
841.564	22713
841.701	22721
841.838	22740
841.975	22630
842.112	22713
842.249	22607
842.385	22459
842.522	22713
842.659	22630
842.796	22459
842.933	22573
843.069	22344
843.206	22504
843.343	22462
843.479	22432
843.616	22333
843.752	22226
843.889	22242
844.025	22344
844.162	22185
844.298	22261
844.435	22192
844.571	22158
844.708	22261
844.844	22413
844.98	22356
845.117	22333
845.253	22173
845.389	22051
845.525	22185
845.661	22128
845.798	22021
845.934	22082
846.07	22074
846.206	21991
846.342	22112
846.478	21865
846.614	21724
846.75	21762
846.886	21553
847.022	21694
847.158	21705
847.294	21789
847.429	21797
847.565	21568
847.701	21930
847.837	21431
847.972	21443
848.108	21378
848.244	21450
848.379	21405
848.515	21245
848.65	21279
848.786	21336
848.921	21355
849.057	21416
849.192	21313
849.328	21351
849.463	21317
849.598	21249
849.734	21138
849.869	21116
850.004	21154
850.14	21165
850.275	21096
850.41	20952
850.545	20948
850.68	21043
850.815	20944
850.95	21024
851.085	21154
851.22	21074
851.355	21024
851.49	20948
851.625	20982
851.76	21051
851.895	21017
852.03	21001
852.165	20982
852.299	21085
852.434	21100
852.569	21020
852.703	21039
852.838	21074
852.973	21241
853.107	21237
853.242	21020
853.376	20864
853.511	20777
853.645	20857
853.78	20990
853.914	20990
854.048	20883
854.183	20838
854.317	20906
854.451	21131
854.585	20861
854.72	20887
854.854	21013
854.988	20857
855.122	20838
855.256	20754
855.39	20902
855.524	21020
855.658	20967
855.792	20982
855.926	20910
856.06	20891
856.194	20941
856.327	20853
856.461	20773
856.595	20746
856.729	20815
856.862	20952
856.996	20785
857.13	20963
857.263	20941
857.397	21047
857.53	20933
857.664	21020
857.797	20952
857.931	20979
858.064	20929
858.197	21032
858.331	20902
858.464	20826
858.597	20773
858.731	20807
858.864	20952
858.997	20853
859.13	20902
859.263	20971
859.396	20986
859.529	20796
859.662	20746
859.795	20735
859.928	20929
860.061	20986
860.194	21116
860.327	20845
860.46	20891
860.592	20834
860.725	21013
860.858	21077
860.99	20845
861.123	20762
861.256	20830
861.388	20929
861.521	21469
861.653	20815
861.786	20598
861.918	20754
862.05	20800
862.183	20807
862.315	20876
862.447	20811
862.58	20731
862.712	20552
862.844	20480
862.976	20731
863.108	20663
863.24	20929
863.372	20469
863.504	20655
863.636	20667
863.768	20644
863.9	20644
864.032	20594
864.164	20556
864.296	20686
864.428	20636
864.559	20701
864.691	20632
864.823	20659
864.954	20651
865.086	20621
865.217	20568
865.349	20328
865.48	20499
865.612	20457
865.743	20659
865.875	20568
866.006	20351
866.137	20526
866.269	20461
866.4	20442
866.531	20457
866.662	20393
866.793	20446
866.924	20492
867.055	20465
867.186	20400
867.317	20351
867.448	20438
867.579	20404
867.71	20408
867.841	20263
867.972	20484
868.103	20393
868.233	20492
868.364	20427
868.495	20556
868.625	20648
868.756	20602
868.886	20568
869.017	20640
869.147	20705
869.278	20921
869.408	20705
869.539	20746
869.669	20746
869.799	20686
869.929	20788
870.06	20861
870.19	21047
870.32	20921
870.45	21017
870.58	21081
870.71	21207
870.84	21062
870.97	21047
871.1	21058
871.23	21260
871.36	21291
871.489	21184
871.619	21340
871.749	21264
871.879	21340
872.008	21389
872.138	21268
872.267	21359
872.397	21127
872.526	21116
872.656	21123
872.785	21096
872.915	21431
873.044	21348
873.173	21226
873.303	21283
873.432	21389
873.561	21519
873.69	21249
873.819	21458
873.948	21428
874.077	21473
874.206	21355
874.335	21260
874.464	21443
874.593	21625
874.722	21656
874.851	21641
874.979	21686
875.108	21625
875.237	21633
875.365	21416
875.494	21652
875.623	21633
875.751	21488
875.88	21606
876.008	21625
876.136	21766
876.265	21968
876.393	22177
876.521	21865
876.65	22059
876.778	21941
876.906	21972
877.034	21876
877.162	21800
877.29	21873
877.418	21884
877.546	21857
877.674	21956
877.802	21876
877.93	21903
878.058	21831
878.185	21812
878.313	22036
878.441	21994
878.568	21759
878.696	21892
878.824	22192
878.951	22067
879.079	22078
879.206	22253
879.333	22078
879.461	21903
879.588	21983
879.715	22078
879.842	22185
879.97	22120
880.097	21774
880.224	21785
880.351	21869
880.478	21812
880.605	21724
880.732	21682
880.859	21956
880.986	21774
881.112	21770
881.239	21675
881.366	21572
881.493	21568
881.619	21329
881.746	21447
881.872	21386
881.999	21192
882.125	21325
882.252	21294
882.378	21378
882.505	21447
882.631	21127
882.757	20990
882.883	21077
883.01	21089
883.136	20906
883.262	20883
883.388	20929
883.514	21047
883.64	20975
883.766	20883
883.892	20804
884.018	20842
884.143	20948
884.269	21131
884.395	20750
884.52	20678
884.646	20659
884.772	20648
884.897	20640
885.023	20625
885.148	20796
885.274	20739
885.399	20792
885.524	20693
885.65	20712
885.775	20712
885.9	20697
886.025	20861
886.15	20762
886.275	20518
886.4	20602
886.525	20701
886.65	20587
886.775	20598
886.9	20651
887.025	20777
887.149	20640
887.274	20484
887.399	20381
887.523	20469
887.648	20431
887.773	20400
887.897	20533
888.021	20400
888.146	20484
888.27	20507
888.395	20609
888.519	20434
888.643	20446
888.767	20438
888.891	20381
889.015	20275
889.139	20233
889.263	20328
889.387	20362
889.511	20457
889.635	20328
889.759	20153
889.883	20259
890.006	20282
890.13	20339
890.254	20195
890.377	20157
890.501	19986
890.624	20012
890.748	19993
890.871	20016
890.995	19814
891.118	19769
891.241	19947
891.364	19791
891.488	20008
891.611	19849
891.734	19818
891.857	19849
891.98	19765
892.103	19967
892.226	19830
892.349	19666
892.471	19548
892.594	19776
892.717	19719
892.839	19772
892.962	19666
893.085	19856
893.207	19818
893.33	19563
893.452	19677
893.575	19849
893.697	19734
893.819	20039
893.941	19890
894.064	19757
894.186	19826
894.308	19571
894.43	19704
894.552	19902
894.674	19765
894.796	19643
894.918	19689
895.04	19662
895.161	19826
895.283	19765
895.405	19662
895.526	19719
895.648	19830
895.769	19738
895.891	19795
896.012	19788
896.134	19791
896.255	19769
896.376	19666
896.498	19693
896.619	19696
896.74	19723
896.861	19818
896.982	20092
897.103	20183
897.224	20115
897.345	19970
897.466	19887
897.587	20001
897.708	20100
897.828	20054
897.949	19887
898.07	19932
898.19	19986
898.311	20134
898.431	19928
898.552	20020
898.672	20054
898.792	20058
898.913	20012
899.033	19856
899.153	19784
899.273	19696
899.393	19795
899.513	19750
899.633	19693
899.753	19674
899.873	19567
899.993	19780
900.113	19670
900.232	19780
900.352	19734
900.472	19586
900.591	19635
900.711	19582
900.83	19422
900.95	19655
901.069	19715
901.189	19381
901.308	19232
901.427	19171
901.546	19145
901.665	19152
901.784	19061
901.904	18935
902.023	18871
902.141	18642
902.26	18669
902.379	18772
902.498	18597
902.617	18528
902.735	18738
902.854	18566
902.973	18536
903.091	18315
903.21	18395
903.328	18384
903.446	18190
903.565	18167
903.683	18155
903.801	17996
903.919	18003
904.038	18079
904.156	17908
904.274	17935
904.392	17882
904.51	17790
904.627	17889
904.745	17942
904.863	17912
904.981	17684
905.098	17577
905.216	17535
905.334	17672
905.451	17505
905.569	17600
905.686	17608
905.803	17554
905.921	17334
906.038	17497
906.155	17421
906.272	17197
906.389	17315
906.506	17098
906.623	17124
906.74	17090
906.857	16938
906.974	17052
907.091	17041
907.208	17242
907.324	17109
907.441	16961
907.557	16885
907.674	16828
907.79	16694
907.907	16816
908.023	16790
908.139	16752
908.256	16790
908.372	16615
908.488	16588
908.604	16599
908.72	16535
908.836	16569
908.952	16481
909.068	16546
909.184	16599
909.3	16538
909.415	16516
909.531	16599
909.647	16287
909.762	16139
909.878	16242
909.993	16257
910.108	16192
910.224	16162
910.339	16249
910.454	16211
910.57	16082
910.685	16055
910.8	16219
910.915	16226
911.03	16063
911.145	15850
911.259	15835
911.374	15774
911.489	15892
911.604	15618
911.718	15587
911.833	15595
911.947	15473
912.062	15443
912.176	15507
912.291	15622
912.405	15542
912.519	15751
912.633	15766
912.748	15610
912.862	15652
912.976	15473
913.09	15298
913.204	15329
913.318	15401
913.431	15492
913.545	15424
913.659	15557
913.772	15389
913.886	15344
914	15207
914.113	15287
914.226	15386
914.34	15199
914.453	15074
914.566	15165
914.68	15077
914.793	15055
914.906	14815
915.019	14963
915.132	14773
915.245	14758
915.358	14921
915.47	14842
915.583	14849
915.696	14864
915.809	14880
915.921	14883
916.034	14746
916.146	14674
916.259	14750
916.371	14849
916.483	14724
916.595	14693
916.708	14701
916.82	14594
916.932	14655
917.044	14568
917.156	14606
917.268	14370
917.38	14533
917.491	14381
917.603	14389
917.715	14583
917.826	14564
917.938	14351
918.049	14324
918.161	14507
918.272	14625
918.384	14579
918.495	14400
918.606	14259
918.717	14180
918.828	14313
918.939	14233
919.05	14153
919.161	14309
919.272	14054
919.383	14073
919.494	14339
919.604	14488
919.715	14351
919.826	14187
919.936	14183
920.047	14248
920.157	14191
920.267	14526
920.378	14339
920.488	14138
920.598	14339
920.708	14522
920.818	14408
920.928	14461
921.038	14556
921.148	14503
921.258	14191
921.368	14107
921.477	13944
921.587	14058
921.697	13799
921.806	13978
921.916	13837
922.025	13727
922.134	13586
922.244	13643
922.353	13609
922.462	13582
922.571	13430
922.68	13354
922.789	13331
922.898	13240
923.007	13259
923.116	13316
923.224	13232
923.333	13228
923.442	13072
923.55	13107
923.659	13183
923.767	13149
923.876	13027
923.984	13156
924.092	12928
924.201	13110
924.309	13004
924.417	13031
924.525	12859
924.633	12966
924.741	13841
924.849	12825
924.956	12958
925.064	12703
925.172	12646
925.279	12627
925.387	12703
925.494	12646
925.602	12802
925.709	12783
925.816	12631
925.924	12745
926.031	12768
926.138	12684
926.245	12757
926.352	12517
926.459	12722
926.566	12715
926.673	12502
926.779	12410
926.886	12410
926.993	12388
927.099	12311
927.206	12125
927.312	12273
927.419	12327
927.525	12243
927.631	12350
927.737	12163
927.843	12155
927.95	12007
928.056	12144
928.162	12102
928.267	12136
928.373	12730
928.479	12159
928.585	11939
928.69	11999
928.796	12041
928.901	12034
929.007	11855
929.112	11958
929.218	11999
929.323	11958
929.428	11775
929.533	11878
929.638	11741
929.743	11809
929.848	11901
929.953	11752
930.058	11676
930.163	11554
930.267	11573
930.372	11672
930.477	11535
930.581	11699
930.685	11642
930.79	11398
930.894	11520
930.998	11455
931.103	11570
931.207	11185
931.311	11124
931.415	11056
931.519	10812
931.623	10801
