Data from test_V78500241_2795.txt Node
Date: Fri Mar 25 16:01:09 CST 2022
User: usil
Spectrometer: V785-0024
Trigger mode: 0
Integration Time (sec): 4.000000E-1
Scans to average: 1
Nonlinearity correction enabled: false
Boxcar width: 0
Storing dark spectrum: false
XAxis mode: Wavelengths
Number of Pixels in Spectrum: 1024
>>>>>Begin Spectral Data<<<<<
801.071	29239
801.214	29083
801.356	28987
801.499	28900
801.641	28771
801.783	28755
801.926	28843
802.068	28774
802.211	28592
802.353	28691
802.496	28599
802.638	28584
802.78	28538
802.923	28447
803.065	28360
803.208	28508
803.35	28596
803.492	28653
803.635	28713
803.777	28668
803.919	28694
804.061	29159
804.204	28679
804.346	28626
804.488	28584
804.63	28725
804.773	28660
804.915	28881
805.057	28839
805.199	28763
805.341	28862
805.483	28961
805.626	28987
805.768	28839
805.91	28873
806.052	29029
806.194	28869
806.336	29060
806.478	28953
806.62	28942
806.762	29075
806.904	29212
807.046	29387
807.188	29265
807.33	29368
807.472	29474
807.614	29364
807.756	29356
807.898	29102
808.04	29212
808.182	29098
808.324	29159
808.465	29307
808.607	29463
808.749	29558
808.891	29520
809.033	29783
809.174	29653
809.316	29726
809.458	29653
809.6	29573
809.741	29756
809.883	29775
810.025	29893
810.166	29946
810.308	29866
810.45	29828
810.591	29859
810.733	29722
810.875	29490
811.016	29573
811.158	29509
811.299	29813
811.441	29794
811.582	29775
811.724	29623
811.865	29592
812.007	29665
812.148	29722
812.29	29676
812.431	29779
812.573	30026
812.714	30087
812.855	30140
812.997	30216
813.138	30433
813.279	30273
813.421	30239
813.562	30114
813.703	30022
813.845	29862
813.986	29615
814.127	29471
814.268	29379
814.41	29379
814.551	29220
814.692	29417
814.833	29277
814.974	29315
815.115	29436
815.256	29360
815.397	29258
815.539	29185
815.68	29166
815.821	29185
815.962	29216
816.103	29254
816.244	29269
816.385	28927
816.526	28923
816.666	28892
816.807	28801
816.948	28744
817.089	28706
817.23	28721
817.371	28725
817.512	28683
817.653	28634
817.793	28721
817.934	28706
818.075	28733
818.216	28790
818.356	28599
818.497	28645
818.638	28519
818.778	28333
818.919	28348
819.06	28485
819.2	28603
819.341	28683
819.481	28725
819.622	28968
819.762	29071
819.903	28869
820.043	28953
820.184	28797
820.324	28896
820.465	29014
820.605	28873
820.746	28839
820.886	28535
821.026	28915
821.167	28702
821.307	28908
821.447	28694
821.588	28717
821.728	28478
821.868	28386
822.008	28249
822.149	28196
822.289	28253
822.429	27934
822.569	27937
822.709	27907
822.849	27690
822.99	27694
823.13	27770
823.27	27622
823.41	27397
823.55	27724
823.69	27576
823.83	27530
823.97	27466
824.11	27340
824.25	27192
824.389	27488
824.529	27374
824.669	27355
824.809	27401
824.949	27401
825.089	27408
825.228	27427
825.368	27291
825.508	27165
825.648	27218
825.787	27424
825.927	27332
826.067	27279
826.206	27252
826.346	27317
826.485	27294
826.625	27222
826.765	27287
826.904	27214
827.044	27116
827.183	27127
827.323	27024
827.462	27020
827.601	26937
827.741	26967
827.88	27096
828.02	26796
828.159	26849
828.298	26963
828.437	26914
828.577	26979
828.716	26998
828.855	26804
828.994	26727
829.134	26678
829.273	26800
829.412	26750
829.551	26632
829.69	26689
829.829	26773
829.968	26670
830.107	26743
830.246	26701
830.385	26545
830.524	26590
830.663	26469
830.802	26381
830.941	26267
831.08	26240
831.219	26301
831.357	26332
831.496	26343
831.635	26278
831.774	26065
831.913	26153
832.051	26100
832.19	26043
832.329	26130
832.467	26008
832.606	25925
832.744	25879
832.883	25906
833.022	25928
833.16	25986
833.299	26016
833.437	25890
833.576	26024
833.714	25951
833.852	26172
833.991	26119
834.129	26172
834.267	26043
834.406	25925
834.544	26077
834.682	26008
834.821	26035
834.959	26103
835.097	25894
835.235	25993
835.373	26092
835.511	26039
835.65	25902
835.788	25807
835.926	25616
836.064	25605
836.202	25674
836.34	25807
836.478	25788
836.615	25856
836.753	25807
836.891	25830
837.029	25811
837.167	25780
837.305	25681
837.443	25681
837.58	25681
837.718	25715
837.856	25757
837.993	25609
838.131	25582
838.269	25377
838.406	25529
838.544	25434
838.681	25419
838.819	25206
838.956	25183
839.094	25156
839.231	25228
839.369	25339
839.506	25559
839.643	25384
839.781	25000
839.918	25065
840.055	25103
840.193	25034
840.33	24932
840.467	25042
840.604	25008
840.742	25209
840.879	24966
841.016	24871
841.153	24970
841.29	25099
841.427	25038
841.564	24951
841.701	24943
841.838	24924
841.975	24734
842.112	24909
842.249	24738
842.385	24570
842.522	25019
842.659	24810
842.796	24795
842.933	24741
843.069	24776
843.206	24639
843.343	24947
843.479	24703
843.616	24753
843.752	24555
843.889	24642
844.025	24757
844.162	24555
844.298	24559
844.435	24566
844.571	24494
844.708	24547
844.844	24772
844.98	24642
845.117	24738
845.253	24509
845.389	24277
845.525	24475
845.661	24464
845.798	24277
845.934	24330
846.07	24277
846.206	24304
846.342	24414
846.478	24232
846.614	24060
846.75	23920
846.886	23988
847.022	23958
847.158	24015
847.294	24049
847.429	23904
847.565	23977
847.701	24327
847.837	23634
847.972	23687
848.108	23741
848.244	23760
848.379	23611
848.515	23611
848.65	23585
848.786	23547
848.921	23551
849.057	23649
849.192	23566
849.328	23649
849.463	23592
849.598	23436
849.734	23433
849.869	23402
850.004	23452
850.14	23277
850.275	23315
850.41	23296
850.545	23372
850.68	23288
850.815	23307
850.95	23246
851.085	23558
851.22	23414
851.355	23280
851.49	23265
851.625	23193
851.76	23433
851.895	23181
852.03	23235
852.165	23341
852.299	23444
852.434	23364
852.569	23372
852.703	23299
852.838	23341
852.973	23421
853.107	23436
853.242	23303
853.376	23216
853.511	23010
853.645	23102
853.78	23178
853.914	23052
854.048	22995
854.183	23025
854.317	23143
854.451	23372
854.585	23121
854.72	23155
854.854	23383
854.988	23102
855.122	23113
855.256	23056
855.39	23071
855.524	23143
855.658	23181
855.792	23235
855.926	23128
856.06	23140
856.194	23277
856.327	23086
856.461	23033
856.595	23025
856.729	23136
856.862	23216
856.996	23151
857.13	23166
857.263	23178
857.397	23136
857.53	23105
857.664	23303
857.797	23178
857.931	23254
858.064	23197
858.197	23273
858.331	23151
858.464	23109
858.597	23121
858.731	23018
858.864	23113
858.997	23094
859.13	23197
859.263	23083
859.396	23193
859.529	23067
859.662	23117
859.795	23143
859.928	23155
860.061	23223
860.194	23265
860.327	23147
860.46	23075
860.592	23239
860.725	23318
860.858	23258
860.99	23151
861.123	23014
861.256	23121
861.388	23083
861.521	23878
861.653	23006
861.786	22934
861.918	23029
862.05	23025
862.183	23079
862.315	23181
862.447	23102
862.58	22972
862.712	22816
862.844	22828
862.976	22942
863.108	22938
863.24	23307
863.372	22755
863.504	22771
863.636	22873
863.768	22930
863.9	22854
864.032	22755
864.164	22843
864.296	22839
864.428	22862
864.559	22927
864.691	22858
864.823	22908
864.954	22843
865.086	22835
865.217	22835
865.349	22660
865.48	22744
865.612	22668
865.743	22812
865.875	22896
866.006	22702
866.137	22664
866.269	22698
866.4	22706
866.531	22679
866.662	22466
866.793	22672
866.924	22618
867.055	22698
867.186	22698
867.317	22733
867.448	22409
867.579	22615
867.71	22618
867.841	22443
867.972	22577
868.103	22626
868.233	22489
868.364	22774
868.495	22713
868.625	22809
868.756	22976
868.886	22752
869.017	22759
869.147	23060
869.278	22968
869.408	22908
869.539	22911
869.669	22953
869.799	22965
869.929	23086
870.06	23010
870.19	23208
870.32	23136
870.45	23265
870.58	23330
870.71	23410
870.84	23356
870.97	23277
871.1	23254
871.23	23395
871.36	23482
871.489	23315
871.619	23383
871.749	23463
871.879	23482
872.008	23657
872.138	23615
872.267	23558
872.397	23379
872.526	23299
872.656	23330
872.785	23242
872.915	23501
873.044	23547
873.173	23528
873.303	23322
873.432	23604
873.561	23619
873.69	23448
873.819	23425
873.948	23585
874.077	23619
874.206	23414
874.335	23341
874.464	23726
874.593	23703
874.722	23748
874.851	23802
874.979	23790
875.108	23630
875.237	23600
875.365	23691
875.494	23630
875.623	23882
875.751	23714
875.88	23745
876.008	23718
876.136	23882
876.265	24049
876.393	24285
876.521	24041
876.65	24098
876.778	24197
876.906	23999
877.034	24018
877.162	24144
877.29	24068
877.418	23992
877.546	24022
877.674	24049
877.802	24022
877.93	24068
878.058	23977
878.185	24072
878.313	23992
878.441	23958
878.568	23798
878.696	23863
878.824	23897
878.951	24060
879.079	24152
879.206	24407
879.333	24155
879.461	24129
879.588	24095
879.715	24125
879.842	24216
879.97	23988
880.097	23920
880.224	23870
880.351	23893
880.478	23984
880.605	23836
880.732	23832
880.859	24087
880.986	23764
881.112	23882
881.239	23756
881.366	23718
881.493	23577
881.619	23452
881.746	23356
881.872	23372
881.999	23353
882.125	23433
882.252	23318
882.378	23433
882.505	23364
882.631	23200
882.757	23075
882.883	23197
883.01	23033
883.136	23056
883.262	23086
883.388	22961
883.514	23102
883.64	23041
883.766	22934
883.892	22831
884.018	22908
884.143	22995
884.269	23037
884.395	22778
884.52	22668
884.646	22630
884.772	22641
884.897	22508
885.023	22816
885.148	22725
885.274	22877
885.399	22835
885.524	22683
885.65	22755
885.775	22698
885.9	22660
886.025	22702
886.15	22771
886.275	22649
886.4	22550
886.525	22615
886.65	22512
886.775	22637
886.9	22835
887.025	22858
887.149	22637
887.274	22561
887.399	22569
887.523	22466
887.648	22535
887.773	22333
887.897	22546
888.021	22451
888.146	22333
888.27	22546
888.395	22508
888.519	22481
888.643	22417
888.767	22538
888.891	22462
889.015	22116
889.139	22424
889.263	22150
889.387	22276
889.511	22440
889.635	22356
889.759	22265
889.883	22169
890.006	22192
890.13	22265
890.254	22017
890.377	22154
890.501	21838
890.624	21991
890.748	21926
890.871	21774
890.995	21732
891.118	21747
891.241	21660
891.364	21827
891.488	21739
891.611	21789
891.734	21747
891.857	21804
891.98	21739
892.103	21717
892.226	21682
892.349	21671
892.471	21462
892.594	21610
892.717	21675
892.839	21561
892.962	21618
893.085	21656
893.207	21671
893.33	21431
893.452	21583
893.575	21686
893.697	21629
893.819	21583
893.941	21865
894.064	21835
894.186	21701
894.308	21511
894.43	21705
894.552	21884
894.674	21625
894.796	21477
894.918	21614
895.04	21644
895.161	21614
895.283	21618
895.405	21545
895.526	21671
895.648	21656
895.769	21622
895.891	21682
896.012	21762
896.134	21644
896.255	21542
896.376	21686
896.498	21572
896.619	21538
896.74	21603
896.861	21717
896.982	21835
897.103	22166
897.224	21873
897.345	21903
897.466	21694
897.587	21804
897.708	21937
897.828	21808
897.949	21739
898.07	21686
898.19	21629
898.311	21770
898.431	21762
898.552	21823
898.672	21751
898.792	21838
898.913	21762
899.033	21652
899.153	21568
899.273	21424
899.393	21504
899.513	21542
899.633	21530
899.753	21473
899.873	21466
899.993	21454
900.113	21580
900.232	21462
900.352	21374
900.472	21165
900.591	21283
900.711	21443
900.83	21287
900.95	21458
901.069	21298
901.189	21203
901.308	20918
901.427	20815
901.546	20914
901.665	20823
901.784	20807
901.904	20613
902.023	20678
902.141	20347
902.26	20431
902.379	20454
902.498	20385
902.617	20252
902.735	20450
902.854	20328
902.973	20252
903.091	20084
903.21	20035
903.328	19993
903.446	19890
903.565	19811
903.683	19776
903.801	19693
903.919	19689
904.038	19624
904.156	19605
904.274	19605
904.392	19426
904.51	19529
904.627	19491
904.745	19537
904.863	19586
904.981	19449
905.098	19213
905.216	19190
905.334	19190
905.451	19304
905.569	19209
905.686	19289
905.803	19156
905.921	19027
906.038	19034
906.155	19019
906.272	18783
906.389	18859
906.506	18787
906.623	18582
906.74	18791
906.857	18665
906.974	18665
907.091	18703
907.208	18852
907.324	18757
907.441	18646
907.557	18513
907.674	18380
907.79	18384
907.907	18365
908.023	18391
908.139	18422
908.256	18391
908.372	18262
908.488	18304
908.604	18285
908.72	18079
908.836	18133
908.952	18106
909.068	18182
909.184	18197
909.3	18106
909.415	18190
909.531	18114
909.647	17863
909.762	17752
909.878	17847
909.993	17840
910.108	17733
910.224	17840
910.339	17863
910.454	17775
910.57	17676
910.685	17558
910.8	17699
910.915	17691
911.03	17623
911.145	17406
911.259	17406
911.374	17326
911.489	17307
911.604	17220
911.718	17307
911.833	17197
911.947	17086
912.062	16987
912.176	17140
912.291	17155
912.405	17155
912.519	17273
912.633	17288
912.748	17151
912.862	17075
912.976	16854
913.09	16820
913.204	16953
913.318	16995
913.431	16953
913.545	17048
913.659	17086
913.772	16911
913.886	16668
914	16725
914.113	16793
914.226	16752
914.34	16816
914.453	16592
914.566	16801
914.68	16649
914.793	16580
914.906	16421
915.019	16272
915.132	16268
915.245	16390
915.358	16276
915.47	16322
915.583	16295
915.696	16280
915.809	16436
915.921	16352
916.034	16158
916.146	16207
916.259	16124
916.371	16223
916.483	16158
916.595	16181
916.708	16017
916.82	16147
916.932	16116
917.044	16059
917.156	15991
917.268	15892
917.38	15949
917.491	15934
917.603	15960
917.715	16055
917.826	15987
917.938	15793
918.049	15789
918.161	15751
918.272	15991
918.384	16017
918.495	15816
918.606	15732
918.717	15610
918.828	15572
918.939	15591
919.05	15515
919.161	15614
919.272	15549
919.383	15572
919.494	15694
919.604	15739
919.715	15519
919.826	15504
919.936	15584
920.047	15717
920.157	15591
920.267	15713
920.378	15504
920.488	15473
920.598	15743
920.708	15838
920.818	15736
920.928	15660
921.038	15926
921.148	15800
921.258	15492
921.368	15348
921.477	15241
921.587	15275
921.697	15150
921.806	15279
921.916	15066
922.025	15081
922.134	14941
922.244	14876
922.353	14994
922.462	14724
922.571	14743
922.68	14575
922.789	14594
922.898	14507
923.007	14537
923.116	14579
923.224	14434
923.333	14480
923.442	14385
923.55	14385
923.659	14415
923.767	14396
923.876	14358
923.984	14358
924.092	14202
924.201	14275
924.309	14252
924.417	14183
924.525	14145
924.633	14187
924.741	15146
924.849	13921
924.956	14027
925.064	14035
925.172	13860
925.279	13898
925.387	13955
925.494	13902
925.602	14012
925.709	13871
925.816	13746
925.924	13879
926.031	13871
926.138	13826
926.245	13833
926.352	13662
926.459	13936
926.566	13826
926.673	13715
926.779	13544
926.886	13616
926.993	13514
927.099	13441
927.206	13403
927.312	13381
927.419	13449
927.525	13411
927.631	13464
927.737	13289
927.843	13255
927.95	13110
928.056	13122
928.162	13301
928.267	13285
928.373	13803
928.479	13365
928.585	13046
928.69	13160
928.796	13266
928.901	13133
929.007	12856
929.112	13133
929.218	13053
929.323	12951
929.428	12924
929.533	13095
929.638	12905
929.743	12878
929.848	12928
929.953	12833
930.058	12734
930.163	12513
930.267	12684
930.372	12719
930.477	12612
930.581	12776
930.685	12623
930.79	12551
930.894	12494
930.998	12395
931.103	12582
931.207	12186
931.311	12076
931.415	12049
931.519	11908
931.623	11813
