Data from test_V78500241_1573.txt Node
Date: Fri Mar 25 15:52:41 CST 2022
User: usil
Spectrometer: V785-0024
Trigger mode: 0
Integration Time (sec): 4.000000E-1
Scans to average: 1
Nonlinearity correction enabled: false
Boxcar width: 0
Storing dark spectrum: false
XAxis mode: Wavelengths
Number of Pixels in Spectrum: 1024
>>>>>Begin Spectral Data<<<<<
801.071	28257
801.214	27991
801.356	28006
801.499	27880
801.641	27804
801.783	27876
801.926	27705
802.068	27934
802.211	27728
802.353	27793
802.496	27557
802.638	27568
802.78	27526
802.923	27450
803.065	27416
803.208	27378
803.35	27435
803.492	27675
803.635	27580
803.777	27580
803.919	27720
804.061	27979
804.204	27652
804.346	27671
804.488	27629
804.63	27648
804.773	27637
804.915	27743
805.057	27838
805.199	27629
805.341	27759
805.483	27831
805.626	27956
805.768	27622
805.91	27793
806.052	27865
806.194	27660
806.336	27937
806.478	27914
806.62	27892
806.762	27930
806.904	28154
807.046	28478
807.188	28337
807.33	28162
807.472	28333
807.614	28306
807.756	28337
807.898	28147
808.04	28109
808.182	28013
808.324	28124
808.465	28207
808.607	28382
808.749	28470
808.891	28485
809.033	28500
809.174	28546
809.316	28474
809.458	28466
809.6	28451
809.741	28675
809.883	28634
810.025	28908
810.166	28721
810.308	28820
810.45	28736
810.591	28736
810.733	28527
810.875	28474
811.016	28363
811.158	28333
811.299	28611
811.441	28706
811.582	28592
811.724	28645
811.865	28527
812.007	28405
812.148	28382
812.29	28523
812.431	28611
812.573	28835
812.714	28927
812.855	29098
812.997	28968
813.138	29200
813.279	29132
813.421	28991
813.562	28938
813.703	28820
813.845	28805
813.986	28462
814.127	28310
814.268	28242
814.41	28329
814.551	28158
814.692	28200
814.833	28211
814.974	28086
815.115	28249
815.256	28048
815.397	28006
815.539	27975
815.68	28036
815.821	27911
815.962	27911
816.103	28010
816.244	27816
816.385	27618
816.526	27781
816.666	27728
816.807	27564
816.948	27618
817.089	27542
817.23	27545
817.371	27610
817.512	27549
817.653	27492
817.793	27424
817.934	27595
818.075	27466
818.216	27504
818.356	27439
818.497	27408
818.638	27237
818.778	27230
818.919	27363
819.06	27321
819.2	27424
819.341	27637
819.481	27507
819.622	27580
819.762	27751
819.903	27656
820.043	27572
820.184	27656
820.324	27534
820.465	27656
820.605	27561
820.746	27595
820.886	27401
821.026	27625
821.167	27667
821.307	27618
821.447	27507
821.588	27466
821.728	27332
821.868	27169
822.008	27256
822.149	27058
822.289	26842
822.429	26838
822.569	26701
822.709	26735
822.849	26484
822.99	26457
823.13	26423
823.27	26465
823.41	26404
823.55	26324
823.69	26282
823.83	26355
823.97	26290
824.11	26142
824.25	25989
824.389	26259
824.529	26157
824.669	26058
824.809	26218
824.949	26062
825.089	26233
825.228	26096
825.368	26001
825.508	25883
825.648	25906
825.787	25989
825.927	26081
826.067	26027
826.206	26111
826.346	26046
826.485	26031
826.625	25902
826.765	26138
826.904	26073
827.044	25704
827.183	25772
827.323	25597
827.462	25830
827.601	25750
827.741	25723
827.88	25696
828.02	25765
828.159	25719
828.298	25883
828.437	25681
828.577	25753
828.716	25852
828.855	25734
828.994	25449
829.134	25464
829.273	25445
829.412	25438
829.551	25403
829.69	25377
829.829	25403
829.968	25445
830.107	25495
830.246	25518
830.385	25282
830.524	25479
830.663	25145
830.802	25050
830.941	24962
831.08	25095
831.219	25107
831.357	25057
831.496	25228
831.635	25156
831.774	24951
831.913	24962
832.051	24886
832.19	24806
832.329	24757
832.467	24700
832.606	24700
832.744	24547
832.883	24650
833.022	24707
833.16	24734
833.299	24688
833.437	24745
833.576	24852
833.714	24852
833.852	24707
833.991	24856
834.129	24772
834.267	24920
834.406	24829
834.544	24837
834.682	24791
834.821	24734
834.959	25038
835.097	24684
835.235	24753
835.373	24650
835.511	24760
835.65	24578
835.788	24658
835.926	24547
836.064	24540
836.202	24426
836.34	24532
836.478	24821
836.615	24669
836.753	24490
836.891	24547
837.029	24627
837.167	24547
837.305	24593
837.443	24532
837.58	24395
837.718	24494
837.856	24327
837.993	24509
838.131	24395
838.269	24262
838.406	24281
838.544	24232
838.681	24102
838.819	23965
838.956	23927
839.094	23935
839.231	24072
839.369	24038
839.506	24350
839.643	24178
839.781	23813
839.918	23657
840.055	23813
840.193	23901
840.33	23798
840.467	23764
840.604	23939
840.742	24140
840.879	23592
841.016	23775
841.153	23779
841.29	23794
841.427	23767
841.564	23783
841.701	23859
841.838	23802
841.975	23737
842.112	23745
842.249	23676
842.385	23646
842.522	23836
842.659	23573
842.796	23554
842.933	23512
843.069	23558
843.206	23501
843.343	23710
843.479	23501
843.616	23551
843.752	23315
843.889	23326
844.025	23433
844.162	23311
844.298	23288
844.435	23345
844.571	23261
844.708	23337
844.844	23528
844.98	23318
845.117	23455
845.253	23311
845.389	23299
845.525	23246
845.661	23159
845.798	23189
845.934	23048
846.07	22987
846.206	23064
846.342	23212
846.478	23117
846.614	22812
846.75	22706
846.886	22782
847.022	22877
847.158	22923
847.294	22713
847.429	22904
847.565	22858
847.701	23048
847.837	22557
847.972	22485
848.108	22672
848.244	22508
848.379	22455
848.515	22462
848.65	22325
848.786	22352
848.921	22516
849.057	22497
849.192	22447
849.328	22504
849.463	22379
849.598	22287
849.734	22371
849.869	22295
850.004	22147
850.14	22128
850.275	22196
850.41	22067
850.545	22002
850.68	22055
850.815	22192
850.95	22093
851.085	22249
851.22	22253
851.355	22135
851.49	22105
851.625	22116
851.76	22097
851.895	22006
852.03	22097
852.165	22120
852.299	22223
852.434	22188
852.569	22223
852.703	22074
852.838	22116
852.973	22314
853.107	22249
853.242	22048
853.376	21979
853.511	21934
853.645	21953
853.78	22093
853.914	22105
854.048	21915
854.183	22048
854.317	21865
854.451	22120
854.585	22082
854.72	21907
854.854	22143
854.988	21816
855.122	22002
855.256	21918
855.39	21861
855.524	22048
855.658	21937
855.792	22029
855.926	22063
856.06	22048
856.194	22010
856.327	21953
856.461	21930
856.595	21865
856.729	22105
856.862	22074
856.996	22032
857.13	22036
857.263	22036
857.397	22013
857.53	21907
857.664	22021
857.797	22002
857.931	22036
858.064	21945
858.197	22055
858.331	22017
858.464	21926
858.597	21800
858.731	21903
858.864	21964
858.997	21835
859.13	22029
859.263	21979
859.396	22090
859.529	21892
859.662	21960
859.795	21953
859.928	21895
860.061	22166
860.194	22074
860.327	21994
860.46	21964
860.592	22135
860.725	22101
860.858	22078
860.99	21937
861.123	21827
861.256	21979
861.388	21857
861.521	22462
861.653	21861
861.786	21736
861.918	21865
862.05	21846
862.183	21812
862.315	21934
862.447	21994
862.58	21945
862.712	21816
862.844	21599
862.976	21732
863.108	21656
863.24	22109
863.372	21622
863.504	21690
863.636	21728
863.768	21564
863.9	21701
864.032	21591
864.164	21701
864.296	21709
864.428	21842
864.559	21743
864.691	21652
864.823	21576
864.954	21690
865.086	21564
865.217	21591
865.349	21397
865.48	21526
865.612	21534
865.743	21717
865.875	21526
866.006	21583
866.137	21633
866.269	21481
866.4	21614
866.531	21481
866.662	21458
866.793	21466
866.924	21386
867.055	21553
867.186	21564
867.317	21545
867.448	21473
867.579	21488
867.71	21416
867.841	21439
867.972	21435
868.103	21481
868.233	21420
868.364	21492
868.495	21656
868.625	21743
868.756	21800
868.886	21610
869.017	21732
869.147	21701
869.278	22032
869.408	21774
869.539	21694
869.669	21842
869.799	21861
869.929	21895
870.06	21774
870.19	21991
870.32	21949
870.45	22154
870.58	22097
870.71	22246
870.84	22173
870.97	22105
871.1	22154
871.23	22265
871.36	22246
871.489	22200
871.619	22284
871.749	22375
871.879	22306
872.008	22405
872.138	22382
872.267	22246
872.397	22226
872.526	22112
872.656	22325
872.785	22010
872.915	22428
873.044	22367
873.173	22348
873.303	22447
873.432	22424
873.561	22569
873.69	22352
873.819	22352
873.948	22360
874.077	22440
874.206	22226
874.335	22348
874.464	22417
874.593	22569
874.722	22569
874.851	22653
874.979	22618
875.108	22641
875.237	22485
875.365	22478
875.494	22504
875.623	22592
875.751	22531
875.88	22440
876.008	22733
876.136	22744
876.265	23044
876.393	23170
876.521	23029
876.65	22995
876.778	22885
876.906	22904
877.034	22797
877.162	22923
877.29	22987
877.418	22995
877.546	22938
877.674	22900
877.802	22942
877.93	22908
878.058	22805
878.185	22839
878.313	22786
878.441	22862
878.568	22831
878.696	22793
878.824	22949
878.951	23147
879.079	23056
879.206	23193
879.333	23075
879.461	22949
879.588	23041
879.715	23044
879.842	23132
879.97	22984
880.097	22847
880.224	22744
880.351	22866
880.478	22713
880.605	22725
880.732	22763
880.859	22968
880.986	22660
881.112	22675
881.239	22630
881.366	22497
881.493	22405
881.619	22272
881.746	22371
881.872	22325
881.999	22158
882.125	22272
882.252	22360
882.378	22242
882.505	22196
882.631	22162
882.757	22078
882.883	22082
883.01	22010
883.136	21968
883.262	21812
883.388	21747
883.514	21945
883.64	21949
883.766	21918
883.892	21732
884.018	21770
884.143	21812
884.269	21994
884.395	21625
884.52	21496
884.646	21599
884.772	21564
884.897	21625
885.023	21511
885.148	21720
885.274	21766
885.399	21728
885.524	21694
885.65	21553
885.775	21686
885.9	21553
886.025	21732
886.15	21720
886.275	21637
886.4	21526
886.525	21614
886.65	21587
886.775	21534
886.9	21857
887.025	21717
887.149	21606
887.274	21431
887.399	21420
887.523	21428
887.648	21256
887.773	21279
887.897	21458
888.021	21496
888.146	21321
888.27	21298
888.395	21401
888.519	21488
888.643	21488
888.767	21507
888.891	21351
889.015	21131
889.139	21272
889.263	21173
889.387	21222
889.511	21485
889.635	21370
889.759	21252
889.883	21005
890.006	21180
890.13	21165
890.254	21104
890.377	21093
890.501	20979
890.624	20918
890.748	21009
890.871	20716
890.995	20792
891.118	20705
891.241	20811
891.364	20864
891.488	20815
891.611	20788
891.734	20758
891.857	20693
891.98	20724
892.103	20800
892.226	20594
892.349	20590
892.471	20537
892.594	20670
892.717	20617
892.839	20537
892.962	20644
893.085	20659
893.207	20636
893.33	20476
893.452	20427
893.575	20644
893.697	20575
893.819	20708
893.941	20659
894.064	20781
894.186	20583
894.308	20511
894.43	20724
894.552	20720
894.674	20682
894.796	20552
894.918	20492
895.04	20583
895.161	20568
895.283	20644
895.405	20495
895.526	20602
895.648	20651
895.769	20648
895.891	20632
896.012	20689
896.134	20549
896.255	20640
896.376	20514
896.498	20602
896.619	20686
896.74	20583
896.861	20697
896.982	20948
897.103	20975
897.224	20899
897.345	20861
897.466	20762
897.587	20872
897.708	21009
897.828	20906
897.949	20743
898.07	20777
898.19	20754
898.311	20861
898.431	20735
898.552	20773
898.672	20864
898.792	20773
898.913	20777
899.033	20739
899.153	20632
899.273	20568
899.393	20598
899.513	20606
899.633	20617
899.753	20575
899.873	20503
899.993	20583
900.113	20442
900.232	20499
900.352	20438
900.472	20347
900.591	20240
900.711	20374
900.83	20202
900.95	20461
901.069	20488
901.189	20191
901.308	19875
901.427	19814
901.546	19871
901.665	19982
901.784	19890
901.904	19879
902.023	19734
902.141	19422
902.26	19525
902.379	19616
902.498	19445
902.617	19400
902.735	19457
902.854	19392
902.973	19270
903.091	19118
903.21	19012
903.328	18932
903.446	18939
903.565	18897
903.683	18886
903.801	18730
903.919	18859
904.038	18909
904.156	18665
904.274	18745
904.392	18654
904.51	18658
904.627	18585
904.745	18597
904.863	18616
904.981	18498
905.098	18384
905.216	18300
905.334	18388
905.451	18292
905.569	18338
905.686	18308
905.803	18327
905.921	18053
906.038	18232
906.155	18049
906.272	18045
906.389	18019
906.506	17805
906.623	17832
906.74	17824
906.857	17741
906.974	17722
907.091	17798
907.208	17950
907.324	17786
907.441	17832
907.557	17589
907.674	17482
907.79	17493
907.907	17501
908.023	17543
908.139	17577
908.256	17619
908.372	17512
908.488	17425
908.604	17322
908.72	17265
908.836	17429
908.952	17079
909.068	17284
909.184	17349
909.3	17277
909.415	17250
909.531	17315
909.647	16984
909.762	17014
909.878	16908
909.993	17041
910.108	16965
910.224	16919
910.339	16930
910.454	16828
910.57	16744
910.685	16721
910.8	16938
910.915	16995
911.03	16759
911.145	16531
911.259	16577
911.374	16588
911.489	16531
911.604	16504
911.718	16268
911.833	16344
911.947	16150
912.062	16067
912.176	16375
912.291	16390
912.405	16295
912.519	16531
912.633	16489
912.748	16405
912.862	16249
912.976	16166
913.09	15945
913.204	16078
913.318	16029
913.431	16162
913.545	16215
913.659	16188
913.772	16017
913.886	15979
914	15937
914.113	16021
914.226	15983
914.34	16021
914.453	15857
914.566	15979
914.68	15690
914.793	15713
914.906	15606
915.019	15568
915.132	15488
915.245	15519
915.358	15519
915.47	15515
915.583	15523
915.696	15622
915.809	15671
915.921	15660
916.034	15439
916.146	15435
916.259	15424
916.371	15466
916.483	15458
916.595	15298
916.708	15348
916.82	15249
916.932	15287
917.044	15275
917.156	15230
917.268	15127
917.38	15100
917.491	15093
917.603	15241
917.715	15294
917.826	15142
917.938	15097
918.049	15039
918.161	15116
918.272	15207
918.384	15237
918.495	15085
918.606	14925
918.717	14826
918.828	14967
918.939	14929
919.05	14838
919.161	14944
919.272	14556
919.383	14842
919.494	14853
919.604	15081
919.715	14834
919.826	14708
919.936	14819
920.047	14937
920.157	14804
920.267	15047
920.378	14804
920.488	14830
920.598	14868
920.708	15135
920.818	15028
920.928	15055
921.038	15150
921.148	15051
921.258	14838
921.368	14689
921.477	14484
921.587	14579
921.697	14503
921.806	14579
921.916	14370
922.025	14320
922.134	14202
922.244	14115
922.353	14157
922.462	14024
922.571	14069
922.68	13917
922.789	13845
922.898	13860
923.007	13864
923.116	13913
923.224	13784
923.333	13803
923.442	13609
923.55	13784
923.659	13658
923.767	13719
923.876	13643
923.984	13757
924.092	13586
924.201	13559
924.309	13616
924.417	13575
924.525	13502
924.633	13506
924.741	14450
924.849	13324
924.956	13552
925.064	13297
925.172	13282
925.279	13194
925.387	13304
925.494	13312
925.602	13381
925.709	13304
925.816	13091
925.924	13228
926.031	13270
926.138	13217
926.245	13255
926.352	13091
926.459	13202
926.566	13247
926.673	13126
926.779	13008
926.886	13023
926.993	12951
927.099	12825
927.206	12768
927.312	12719
927.419	12875
927.525	12776
927.631	12840
927.737	12745
927.843	12639
927.95	12532
928.056	12623
928.162	12639
928.267	12570
928.373	13308
928.479	12707
928.585	12517
928.69	12536
928.796	12608
928.901	12506
929.007	12304
929.112	12479
929.218	12544
929.323	12433
929.428	12350
929.533	12532
929.638	12266
929.743	12270
929.848	12346
929.953	12296
930.058	12175
930.163	12098
930.267	12022
930.372	12144
930.477	12064
930.581	12209
930.685	12110
930.79	11897
930.894	11973
930.998	11950
931.103	12030
931.207	11623
931.311	11615
931.415	11467
931.519	11261
931.623	11208
