Data from test_V78500241_1343.txt Node
Date: Fri Mar 25 15:51:06 CST 2022
User: usil
Spectrometer: V785-0024
Trigger mode: 0
Integration Time (sec): 4.000000E-1
Scans to average: 1
Nonlinearity correction enabled: false
Boxcar width: 0
Storing dark spectrum: false
XAxis mode: Wavelengths
Number of Pixels in Spectrum: 1024
>>>>>Begin Spectral Data<<<<<
801.071	28230
801.214	28135
801.356	27876
801.499	27865
801.641	27793
801.783	27686
801.926	27686
802.068	27694
802.211	27572
802.353	27743
802.496	27382
802.638	27374
802.78	27500
802.923	27317
803.065	27237
803.208	27222
803.35	27382
803.492	27473
803.635	27507
803.777	27462
803.919	27736
804.061	27907
804.204	27610
804.346	27576
804.488	27549
804.63	27572
804.773	27557
804.915	27629
805.057	27743
805.199	27519
805.341	27762
805.483	27804
805.626	27686
805.768	27694
805.91	27679
806.052	27831
806.194	27736
806.336	27857
806.478	27812
806.62	27755
806.762	27812
806.904	28093
807.046	28303
807.188	28055
807.33	28143
807.472	28242
807.614	28093
807.756	28173
807.898	27972
808.04	27960
808.182	28078
808.324	28074
808.465	28169
808.607	28295
808.749	28428
808.891	28375
809.033	28557
809.174	28424
809.316	28356
809.458	28401
809.6	28413
809.741	28550
809.883	28577
810.025	28706
810.166	28763
810.308	28694
810.45	28622
810.591	28622
810.733	28497
810.875	28291
811.016	28382
811.158	28428
811.299	28497
811.441	28630
811.582	28455
811.724	28367
811.865	28360
812.007	28382
812.148	28417
812.29	28447
812.431	28630
812.573	28733
812.714	28740
812.855	28957
812.997	29071
813.138	29067
813.279	28991
813.421	28881
813.562	28820
813.703	28786
813.845	28588
813.986	28356
814.127	28284
814.268	28238
814.41	28078
814.551	27991
814.692	28169
814.833	28021
814.974	28109
815.115	28063
815.256	28006
815.397	28006
815.539	28036
815.68	28086
815.821	27907
815.962	27755
816.103	27785
816.244	27781
816.385	27622
816.526	27747
816.666	27435
816.807	27424
816.948	27466
817.089	27420
817.23	27408
817.371	27431
817.512	27382
817.653	27351
817.793	27420
817.934	27389
818.075	27458
818.216	27329
818.356	27401
818.497	27329
818.638	27043
818.778	27329
818.919	27119
819.06	27131
819.2	27252
819.341	27477
819.481	27382
819.622	27439
819.762	27789
819.903	27591
820.043	27572
820.184	27523
820.324	27523
820.465	27618
820.605	27599
820.746	27473
820.886	27401
821.026	27507
821.167	27492
821.307	27591
821.447	27393
821.588	27397
821.728	27256
821.868	27093
822.008	26785
822.149	26902
822.289	26807
822.429	26629
822.569	26571
822.709	26511
822.849	26564
822.99	26419
823.13	26370
823.27	26385
823.41	26221
823.55	26130
823.69	26142
823.83	26290
823.97	26206
824.11	26065
824.25	26016
824.389	26058
824.529	26054
824.669	26043
824.809	26088
824.949	26142
825.089	26088
825.228	25986
825.368	25955
825.508	25955
825.648	26001
825.787	25932
825.927	26008
826.067	25906
826.206	26020
826.346	25925
826.485	25928
826.625	25951
826.765	26168
826.904	25879
827.044	25772
827.183	25689
827.323	25533
827.462	25784
827.601	25537
827.741	25563
827.88	25624
828.02	25506
828.159	25518
828.298	25670
828.437	25639
828.577	25483
828.716	25685
828.855	25460
828.994	25293
829.134	25468
829.273	25247
829.412	25228
829.551	25297
829.69	25285
829.829	25282
829.968	25285
830.107	25362
830.246	25213
830.385	25221
830.524	25126
830.663	25099
830.802	25084
830.941	24833
831.08	24913
831.219	25061
831.357	25110
831.496	25110
831.635	24802
831.774	24817
831.913	24829
832.051	24688
832.19	24677
832.329	24681
832.467	24601
832.606	24551
832.744	24521
832.883	24593
833.022	24547
833.16	24505
833.299	24536
833.437	24604
833.576	24646
833.714	24608
833.852	24726
833.991	24623
834.129	24707
834.267	24719
834.406	24612
834.544	24719
834.682	24536
834.821	24585
834.959	24734
835.097	24563
835.235	24665
835.373	24627
835.511	24528
835.65	24540
835.788	24433
835.926	24369
836.064	24330
836.202	24353
836.34	24452
836.478	24631
836.615	24471
836.753	24441
836.891	24509
837.029	24525
837.167	24323
837.305	24292
837.443	24273
837.58	24209
837.718	24338
837.856	24311
837.993	24182
838.131	24300
838.269	24159
838.406	24159
838.544	24049
838.681	23920
838.819	23965
838.956	23813
839.094	23764
839.231	23920
839.369	23855
839.506	24148
839.643	23984
839.781	23764
839.918	23832
840.055	23775
840.193	23745
840.33	23703
840.467	23752
840.604	23672
840.742	24064
840.879	23718
841.016	23566
841.153	23585
841.29	23828
841.427	23809
841.564	23764
841.701	23684
841.838	23676
841.975	23581
842.112	23608
842.249	23501
842.385	23376
842.522	23680
842.659	23577
842.796	23391
842.933	23463
843.069	23448
843.206	23345
843.343	23543
843.479	23539
843.616	23452
843.752	23402
843.889	23170
844.025	23414
844.162	23284
844.298	23284
844.435	23254
844.571	23280
844.708	23280
844.844	23349
844.98	23341
845.117	23269
845.253	23193
845.389	23071
845.525	23155
845.661	23060
845.798	22968
845.934	23052
846.07	23018
846.206	23113
846.342	23044
846.478	22900
846.614	22744
846.75	22664
846.886	22557
847.022	22759
847.158	22653
847.294	22816
847.429	22824
847.565	22668
847.701	22877
847.837	22474
847.972	22402
848.108	22413
848.244	22519
848.379	22329
848.515	22360
848.65	22398
848.786	22398
848.921	22348
849.057	22413
849.192	22344
849.328	22238
849.463	22272
849.598	22265
849.734	22131
849.869	21972
850.004	22090
850.14	21964
850.275	22070
850.41	21998
850.545	22032
850.68	22021
850.815	21998
850.95	21991
851.085	22135
851.22	22196
851.355	22036
851.49	22029
851.625	22105
851.76	21953
851.895	21899
852.03	22040
852.165	22131
852.299	22074
852.434	22051
852.569	22029
852.703	22086
852.838	22044
852.973	22147
853.107	22185
853.242	21972
853.376	21880
853.511	21766
853.645	21804
853.78	21972
853.914	21854
854.048	21915
854.183	21850
854.317	21937
854.451	21991
854.585	21918
854.72	21865
854.854	21911
854.988	21770
855.122	21854
855.256	21690
855.39	21838
855.524	21876
855.658	21800
855.792	21895
855.926	21831
856.06	21903
856.194	21838
856.327	21831
856.461	21808
856.595	21755
856.729	21903
856.862	22006
856.996	21888
857.13	21930
857.263	22036
857.397	22029
857.53	21892
857.664	21899
857.797	21903
857.931	21983
858.064	21907
858.197	21861
858.331	21808
858.464	21804
858.597	21652
858.731	21808
858.864	21816
858.997	21701
859.13	21789
859.263	21964
859.396	21922
859.529	21892
859.662	21838
859.795	21739
859.928	21869
860.061	22059
860.194	22051
860.327	21915
860.46	21895
860.592	21857
860.725	22029
860.858	22010
860.99	21937
861.123	21720
861.256	21812
861.388	21816
861.521	22500
861.653	21739
861.786	21709
861.918	21618
862.05	21694
862.183	21781
862.315	21808
862.447	21846
862.58	21846
862.712	21629
862.844	21553
862.976	21507
863.108	21625
863.24	22112
863.372	21549
863.504	21644
863.636	21492
863.768	21667
863.9	21637
864.032	21485
864.164	21523
864.296	21507
864.428	21717
864.559	21667
864.691	21679
864.823	21568
864.954	21504
865.086	21435
865.217	21428
865.349	21268
865.48	21458
865.612	21435
865.743	21576
865.875	21458
866.006	21431
866.137	21504
866.269	21485
866.4	21386
866.531	21393
866.662	21260
866.793	21386
866.924	21408
867.055	21336
867.186	21462
867.317	21393
867.448	21214
867.579	21416
867.71	21275
867.841	21370
867.972	21302
868.103	21443
868.233	21287
868.364	21287
868.495	21511
868.625	21591
868.756	21686
868.886	21599
869.017	21778
869.147	21732
869.278	21724
869.408	21618
869.539	21564
869.669	21713
869.799	21633
869.929	21739
870.06	21736
870.19	21930
870.32	21873
870.45	21949
870.58	22025
870.71	22135
870.84	22143
870.97	21949
871.1	21949
871.23	22196
871.36	22238
871.489	22128
871.619	22306
871.749	22067
871.879	22322
872.008	22284
872.138	22120
872.267	22299
872.397	22105
872.526	22055
872.656	22143
872.785	21968
872.915	22261
873.044	22382
873.173	22246
873.303	22265
873.432	22303
873.561	22291
873.69	22249
873.819	22223
873.948	22402
874.077	22135
874.206	22101
874.335	22192
874.464	22333
874.593	22478
874.722	22500
874.851	22569
874.979	22538
875.108	22481
875.237	22489
875.365	22436
875.494	22531
875.623	22538
875.751	22356
875.88	22516
876.008	22554
876.136	22577
876.265	22866
876.393	22934
876.521	22869
876.65	22778
876.778	22816
876.906	22885
877.034	22805
877.162	22866
877.29	22687
877.418	22828
877.546	22858
877.674	22835
877.802	22744
877.93	22809
878.058	22679
878.185	22615
878.313	22683
878.441	22698
878.568	22675
878.696	22713
878.824	22805
878.951	22881
879.079	23010
879.206	22968
879.333	23014
879.461	22858
879.588	22877
879.715	22904
879.842	23102
879.97	22938
880.097	22618
880.224	22618
880.351	22694
880.478	22653
880.605	22672
880.732	22493
880.859	22782
880.986	22649
881.112	22710
881.239	22527
881.366	22352
881.493	22219
881.619	22329
881.746	22067
881.872	22158
881.999	22219
882.125	22200
882.252	22162
882.378	22219
882.505	22234
882.631	21945
882.757	21972
882.883	21930
883.01	21892
883.136	21869
883.262	21728
883.388	21671
883.514	21869
883.64	21964
883.766	21759
883.892	21641
884.018	21618
884.143	21770
884.269	21778
884.395	21599
884.52	21462
884.646	21549
884.772	21454
884.897	21363
885.023	21496
885.148	21637
885.274	21686
885.399	21564
885.524	21553
885.65	21618
885.775	21701
885.9	21538
886.025	21644
886.15	21557
886.275	21557
886.4	21443
886.525	21405
886.65	21439
886.775	21336
886.9	21591
887.025	21755
887.149	21496
887.274	21363
887.399	21378
887.523	21192
887.648	21237
887.773	21165
887.897	21359
888.021	21154
888.146	21264
888.27	21393
888.395	21488
888.519	21275
888.643	21329
888.767	21329
888.891	21165
889.015	21222
889.139	21157
889.263	20998
889.387	21112
889.511	21340
889.635	21135
889.759	20933
889.883	21043
890.006	21116
890.13	21252
890.254	21020
890.377	21081
890.501	20781
890.624	20975
890.748	20849
890.871	20754
890.995	20754
891.118	20648
891.241	20655
891.364	20644
891.488	20693
891.611	20621
891.734	20720
891.857	20617
891.98	20613
892.103	20648
892.226	20670
892.349	20549
892.471	20484
892.594	20632
892.717	20575
892.839	20598
892.962	20552
893.085	20602
893.207	20495
893.33	20396
893.452	20404
893.575	20507
893.697	20530
893.819	20758
893.941	20727
894.064	20678
894.186	20545
894.308	20389
894.43	20609
894.552	20636
894.674	20579
894.796	20427
894.918	20514
895.04	20594
895.161	20537
895.283	20571
895.405	20450
895.526	20549
895.648	20465
895.769	20606
895.891	20613
896.012	20632
896.134	20613
896.255	20393
896.376	20518
896.498	20484
896.619	20431
896.74	20522
896.861	20549
896.982	20800
897.103	20834
897.224	20842
897.345	20777
897.466	20674
897.587	20712
897.708	20864
897.828	20739
897.949	20697
898.07	20503
898.19	20708
898.311	20754
898.431	20762
898.552	20731
898.672	20689
898.792	20830
898.913	20708
899.033	20564
899.153	20530
899.273	20499
899.393	20552
899.513	20552
899.633	20507
899.753	20579
899.873	20480
899.993	20575
900.113	20438
900.232	20541
900.352	20438
900.472	20259
900.591	20161
900.711	20225
900.83	20202
900.95	20415
901.069	20358
901.189	20149
901.308	20027
901.427	19818
901.546	19928
901.665	19746
901.784	19887
901.904	19826
902.023	19628
902.141	19327
902.26	19487
902.379	19426
902.498	19373
902.617	19346
902.735	19415
902.854	19274
902.973	19179
903.091	19019
903.21	18909
903.328	19023
903.446	18958
903.565	18882
903.683	18840
903.801	18589
903.919	18791
904.038	18711
904.156	18521
904.274	18589
904.392	18593
904.51	18445
904.627	18475
904.745	18669
904.863	18574
904.981	18498
905.098	18159
905.216	18201
905.334	18266
905.451	18308
905.569	18197
905.686	18254
905.803	18167
905.921	18007
906.038	18144
906.155	18022
906.272	17874
906.389	17999
906.506	17798
906.623	17756
906.74	17786
906.857	17646
906.974	17592
907.091	17897
907.208	17847
907.324	17790
907.441	17642
907.557	17535
907.674	17512
907.79	17509
907.907	17356
908.023	17512
908.139	17421
908.256	17383
908.372	17406
908.488	17337
908.604	17265
908.72	17075
908.836	17235
908.952	17204
909.068	17231
909.184	17284
909.3	17204
909.415	17208
909.531	17181
909.647	16927
909.762	16904
909.878	16930
909.993	16949
910.108	16896
910.224	16946
910.339	16805
910.454	16869
910.57	16710
910.685	16634
910.8	16892
910.915	16862
911.03	16752
911.145	16538
911.259	16402
911.374	16341
911.489	16382
911.604	16367
911.718	16246
911.833	16322
911.947	16135
912.062	16147
912.176	16135
912.291	16310
912.405	16257
912.519	16348
912.633	16462
912.748	16291
912.862	16147
912.976	16051
913.09	15888
913.204	16131
913.318	16017
913.431	16162
913.545	16082
913.659	16147
913.772	16067
913.886	15903
914	15819
914.113	15945
914.226	15876
914.34	15941
914.453	15663
914.566	15865
914.68	15819
914.793	15778
914.906	15542
915.019	15412
915.132	15374
915.245	15405
915.358	15496
915.47	15462
915.583	15420
915.696	15370
915.809	15614
915.921	15622
916.034	15454
916.146	15264
916.259	15218
916.371	15447
916.483	15370
916.595	15192
916.708	15226
916.82	15355
916.932	15195
917.044	15260
917.156	15058
917.268	15070
917.38	15127
917.491	15074
917.603	15108
917.715	15180
917.826	15207
917.938	14963
918.049	14880
918.161	15066
918.272	15116
918.384	15066
918.495	14998
918.606	14895
918.717	14754
918.828	14868
918.939	14765
919.05	14701
919.161	14914
919.272	14689
919.383	14670
919.494	14902
919.604	15001
919.715	14853
919.826	14708
919.936	14720
920.047	14834
920.157	14762
920.267	15013
920.378	14891
920.488	14781
920.598	14998
920.708	15112
920.818	14937
920.928	14891
921.038	15062
921.148	14937
921.258	14788
921.368	14701
921.477	14537
921.587	14427
921.697	14404
921.806	14450
921.916	14404
922.025	14183
922.134	14145
922.244	14008
922.353	14206
922.462	14084
922.571	13986
922.68	13833
922.789	13811
922.898	13784
923.007	13772
923.116	13818
923.224	13807
923.333	13860
923.442	13616
923.55	13628
923.659	13636
923.767	13597
923.876	13548
923.984	13582
924.092	13552
924.201	13590
924.309	13476
924.417	13544
924.525	13480
924.633	13495
924.741	14438
924.849	13240
924.956	13426
925.064	13255
925.172	13228
925.279	13133
925.387	13263
925.494	13202
925.602	13392
925.709	13274
925.816	13038
925.924	13213
926.031	13236
926.138	13152
926.245	13225
926.352	13141
926.459	13175
926.566	13183
926.673	13031
926.779	12954
926.886	12939
926.993	12711
927.099	12795
927.206	12787
927.312	12753
927.419	12776
927.525	12768
927.631	12760
927.737	12658
927.843	12616
927.95	12494
928.056	12563
928.162	12490
928.267	12700
928.373	13236
928.479	12642
928.585	12346
928.69	12593
928.796	12551
928.901	12410
929.007	12308
929.112	12471
929.218	12365
929.323	12319
929.428	12254
929.533	12346
929.638	12152
929.743	12243
929.848	12323
929.953	12125
930.058	12140
930.163	11973
930.267	12019
930.372	12125
930.477	11840
930.581	12152
930.685	11980
930.79	11855
930.894	11996
930.998	11813
931.103	11988
931.207	11653
931.311	11459
931.415	11448
931.519	11368
931.623	11220
