Data from test_V78500241_2132.txt Node
Date: Fri Mar 25 15:56:34 CST 2022
User: usil
Spectrometer: V785-0024
Trigger mode: 0
Integration Time (sec): 4.000000E-1
Scans to average: 1
Nonlinearity correction enabled: false
Boxcar width: 0
Storing dark spectrum: false
XAxis mode: Wavelengths
Number of Pixels in Spectrum: 1024
>>>>>Begin Spectral Data<<<<<
801.071	29044
801.214	28934
801.356	28649
801.499	28694
801.641	28565
801.783	28481
801.926	28736
802.068	28546
802.211	28626
802.353	28485
802.496	28504
802.638	28386
802.78	28333
802.923	28276
803.065	28192
803.208	28230
803.35	28455
803.492	28535
803.635	28550
803.777	28561
803.919	28596
804.061	28820
804.204	28721
804.346	28516
804.488	28432
804.63	28584
804.773	28577
804.915	28656
805.057	28615
805.199	28557
805.341	28588
805.483	28721
805.626	28740
805.768	28664
805.91	28664
806.052	28698
806.194	28649
806.336	28755
806.478	28782
806.62	28603
806.762	28866
806.904	29170
807.046	29387
807.188	29193
807.33	29288
807.472	29231
807.614	29170
807.756	29242
807.898	28991
808.04	28938
808.182	28980
808.324	28987
808.465	29147
808.607	29231
808.749	29596
808.891	29429
809.033	29680
809.174	29463
809.316	29520
809.458	29452
809.6	29391
809.741	29566
809.883	29554
810.025	29691
810.166	29642
810.308	29543
810.45	29577
810.591	29653
810.733	29528
810.875	29417
811.016	29330
811.158	29368
811.299	29501
811.441	29634
811.582	29478
811.724	29482
811.865	29398
812.007	29531
812.148	29486
812.29	29539
812.431	29566
812.573	29901
812.714	29672
812.855	29920
812.997	30045
813.138	30338
813.279	30060
813.421	30060
813.562	30007
813.703	29882
813.845	29824
813.986	29440
814.127	29200
814.268	29208
814.41	29071
814.551	29102
814.692	29178
814.833	29159
814.974	29159
815.115	29189
815.256	28888
815.397	29037
815.539	29014
815.68	29018
815.821	28805
815.962	29006
816.103	28873
816.244	28888
816.385	28691
816.526	28740
816.666	28626
816.807	28493
816.948	28497
817.089	28417
817.23	28615
817.371	28474
817.512	28531
817.653	28291
817.793	28314
817.934	28523
818.075	28573
818.216	28405
818.356	28531
818.497	28390
818.638	28291
818.778	28147
818.919	28295
819.06	28379
819.2	28421
819.341	28516
819.481	28344
819.622	28725
819.762	28892
819.903	28672
820.043	28683
820.184	28573
820.324	28660
820.465	28672
820.605	28706
820.746	28694
820.886	28436
821.026	28668
821.167	28538
821.307	28679
821.447	28466
821.588	28516
821.728	28265
821.868	28101
822.008	28040
822.149	28006
822.289	27994
822.429	27713
822.569	27481
822.709	27618
822.849	27511
822.99	27481
823.13	27545
823.27	27435
823.41	27416
823.55	27272
823.69	27420
823.83	27264
823.97	27241
824.11	27173
824.25	27123
824.389	27142
824.529	27233
824.669	27062
824.809	27214
824.949	27207
825.089	27230
825.228	27119
825.368	27028
825.508	26956
825.648	26952
825.787	27017
825.927	27119
826.067	27062
826.206	27009
826.346	27116
826.485	26990
826.625	27081
826.765	27275
826.904	27127
827.044	26705
827.183	26838
827.323	26678
827.462	26925
827.601	26727
827.741	26743
827.88	26632
828.02	26594
828.159	26857
828.298	26807
828.437	26625
828.577	26743
828.716	26762
828.855	26594
828.994	26488
829.134	26305
829.273	26526
829.412	26442
829.551	26366
829.69	26404
829.829	26530
829.968	26442
830.107	26625
830.246	26343
830.385	26374
830.524	26358
830.663	26282
830.802	26111
830.941	26062
831.08	26020
831.219	26012
831.357	26088
831.496	26275
831.635	25963
831.774	26016
831.913	25932
832.051	25856
832.19	25833
832.329	25837
832.467	25750
832.606	25613
832.744	25761
832.883	25635
833.022	25605
833.16	25696
833.299	25807
833.437	25818
833.576	25727
833.714	25708
833.852	25856
833.991	25841
834.129	25753
834.267	25925
834.406	25715
834.544	25795
834.682	25681
834.821	25803
834.959	25837
835.097	25757
835.235	25772
835.373	25746
835.511	25769
835.65	25556
835.788	25738
835.926	25369
836.064	25301
836.202	25411
836.34	25643
836.478	25727
836.615	25613
836.753	25624
836.891	25567
837.029	25502
837.167	25495
837.305	25499
837.443	25419
837.58	25369
837.718	25354
837.856	25411
837.993	25369
838.131	25468
838.269	25213
838.406	25316
838.544	25236
838.681	25069
838.819	24909
838.956	24829
839.094	24791
839.231	24863
839.369	25118
839.506	25274
839.643	25084
839.781	24871
839.918	24871
840.055	24989
840.193	24688
840.33	24741
840.467	24806
840.604	24730
840.742	24996
840.879	24665
841.016	24623
841.153	24658
841.29	24932
841.427	24779
841.564	24878
841.701	24757
841.838	24631
841.975	24601
842.112	24734
842.249	24570
842.385	24494
842.522	24681
842.659	24726
842.796	24555
842.933	24555
843.069	24445
843.206	24414
843.343	24426
843.479	24597
843.616	24544
843.752	24346
843.889	24273
844.025	24448
844.162	24334
844.298	24380
844.435	24365
844.571	24334
844.708	24445
844.844	24460
844.98	24471
845.117	24342
845.253	24155
845.389	24178
845.525	24251
845.661	24182
845.798	24011
845.934	24057
846.07	24015
846.206	24053
846.342	24068
846.478	23958
846.614	23882
846.75	23638
846.886	23760
847.022	23885
847.158	23855
847.294	23771
847.429	23676
847.565	23668
847.701	23992
847.837	23535
847.972	23463
848.108	23459
848.244	23535
848.379	23410
848.515	23368
848.65	23341
848.786	23299
848.921	23273
849.057	23440
849.192	23486
849.328	23334
849.463	23242
849.598	23246
849.734	23311
849.869	23277
850.004	23140
850.14	23212
850.275	23060
850.41	22980
850.545	22877
850.68	23041
850.815	23060
850.95	23033
851.085	23299
851.22	23140
851.355	23094
851.49	23094
851.625	23117
851.76	23117
851.895	22972
852.03	23010
852.165	23113
852.299	23136
852.434	23185
852.569	23075
852.703	23269
852.838	23155
852.973	23117
853.107	23235
853.242	22965
853.376	22995
853.511	22809
853.645	22942
853.78	22949
853.914	22915
854.048	22961
854.183	22847
854.317	22995
854.451	23083
854.585	22965
854.72	22850
854.854	22908
854.988	22919
855.122	22847
855.256	22641
855.39	22881
855.524	22976
855.658	22980
855.792	22877
855.926	22984
856.06	22927
856.194	22965
856.327	22889
856.461	22843
856.595	22923
856.729	22957
856.862	23098
856.996	22972
857.13	22885
857.263	22976
857.397	22965
857.53	22835
857.664	22904
857.797	22995
857.931	23060
858.064	22854
858.197	23022
858.331	22858
858.464	22740
858.597	22862
858.731	22991
858.864	22900
858.997	22831
859.13	22858
859.263	22854
859.396	22915
859.529	22866
859.662	22774
859.795	22805
859.928	22915
860.061	22980
860.194	23071
860.327	22904
860.46	22911
860.592	23060
860.725	23003
860.858	23109
860.99	22972
861.123	22858
861.256	22755
861.388	22816
861.521	23543
861.653	22755
861.786	22759
861.918	22698
862.05	22679
862.183	22725
862.315	22797
862.447	22953
862.58	22843
862.712	22660
862.844	22622
862.976	22702
863.108	22744
863.24	23102
863.372	22550
863.504	22588
863.636	22664
863.768	22630
863.9	22588
864.032	22519
864.164	22527
864.296	22641
864.428	22603
864.559	22733
864.691	22660
864.823	22569
864.954	22584
865.086	22584
865.217	22569
865.349	22402
865.48	22504
865.612	22451
865.743	22694
865.875	22493
866.006	22409
866.137	22546
866.269	22523
866.4	22341
866.531	22367
866.662	22375
866.793	22436
866.924	22405
867.055	22447
867.186	22379
867.317	22379
867.448	22249
867.579	22329
867.71	22440
867.841	22280
867.972	22348
868.103	22371
868.233	22519
868.364	22337
868.495	22580
868.625	22618
868.756	22755
868.886	22565
869.017	22656
869.147	22694
869.278	22752
869.408	22660
869.539	22649
869.669	22618
869.799	22729
869.929	22752
870.06	22622
870.19	22839
870.32	22938
870.45	23044
870.58	22957
870.71	23181
870.84	23143
870.97	22934
871.1	23037
871.23	23318
871.36	23242
871.489	23052
871.619	23246
871.749	23296
871.879	23159
872.008	23337
872.138	23288
872.267	23159
872.397	23079
872.526	23037
872.656	23113
872.785	23136
872.915	23288
873.044	23208
873.173	23242
873.303	23231
873.432	23280
873.561	23356
873.69	23318
873.819	23318
873.948	23223
874.077	23246
874.206	23235
874.335	23246
874.464	23284
874.593	23551
874.722	23539
874.851	23516
874.979	23455
875.108	23531
875.237	23547
875.365	23490
875.494	23433
875.623	23547
875.751	23334
875.88	23570
876.008	23528
876.136	23627
876.265	23935
876.393	23999
876.521	24018
876.65	24053
876.778	24041
876.906	23649
877.034	23714
877.162	23802
877.29	23672
877.418	23843
877.546	23805
877.674	23756
877.802	23874
877.93	23946
878.058	23859
878.185	23661
878.313	23767
878.441	23760
878.568	23672
878.696	23760
878.824	23855
878.951	23942
879.079	23931
879.206	24022
879.333	23863
879.461	23798
879.588	24057
879.715	23863
879.842	24076
879.97	23790
880.097	23649
880.224	23634
880.351	23707
880.478	23642
880.605	23463
880.732	23619
880.859	23817
880.986	23687
881.112	23649
881.239	23444
881.366	23337
881.493	23322
881.619	23216
881.746	23284
881.872	23174
881.999	23140
882.125	23117
882.252	23079
882.378	23197
882.505	23212
882.631	22984
882.757	22961
882.883	22919
883.01	22797
883.136	22797
883.262	22702
883.388	22694
883.514	22828
883.64	22850
883.766	22797
883.892	22626
884.018	22615
884.143	22615
884.269	22820
884.395	22500
884.52	22478
884.646	22504
884.772	22500
884.897	22341
885.023	22424
885.148	22531
885.274	22538
885.399	22580
885.524	22440
885.65	22485
885.775	22508
885.9	22402
886.025	22573
886.15	22592
886.275	22424
886.4	22337
886.525	22481
886.65	22394
886.775	22398
886.9	22516
887.025	22740
887.149	22394
887.274	22363
887.399	22215
887.523	22226
887.648	22169
887.773	22207
887.897	22234
888.021	22306
888.146	22067
888.27	22257
888.395	22299
888.519	22238
888.643	22257
888.767	22234
888.891	22044
889.015	22010
889.139	22086
889.263	22044
889.387	22051
889.511	22253
889.635	22082
889.759	22010
889.883	21884
890.006	21972
890.13	22109
890.254	22070
890.377	21838
890.501	21759
890.624	21816
890.748	21812
890.871	21713
890.995	21450
891.118	21428
891.241	21599
891.364	21595
891.488	21663
891.611	21530
891.734	21614
891.857	21511
891.98	21568
892.103	21644
892.226	21511
892.349	21466
892.471	21428
892.594	21507
892.717	21469
892.839	21424
892.962	21458
893.085	21447
893.207	21507
893.33	21412
893.452	21268
893.575	21454
893.697	21416
893.819	21447
893.941	21622
894.064	21538
894.186	21382
894.308	21302
894.43	21488
894.552	21504
894.674	21428
894.796	21325
894.918	21397
895.04	21275
895.161	21477
895.283	21454
895.405	21469
895.526	21355
895.648	21382
895.769	21431
895.891	21355
896.012	21534
896.134	21511
896.255	21488
896.376	21351
896.498	21473
896.619	21378
896.74	21424
896.861	21496
896.982	21648
897.103	21774
897.224	21743
897.345	21629
897.466	21523
897.587	21690
897.708	21690
897.828	21694
897.949	21469
898.07	21416
898.19	21583
898.311	21576
898.431	21618
898.552	21538
898.672	21625
898.792	21682
898.913	21686
899.033	21580
899.153	21256
899.273	21256
899.393	21329
899.513	21218
899.633	21249
899.753	21405
899.873	21317
899.993	21355
900.113	21344
900.232	21336
900.352	21245
900.472	21161
900.591	21157
900.711	21127
900.83	21036
900.95	21199
901.069	21051
901.189	21005
901.308	20811
901.427	20678
901.546	20689
901.665	20705
901.784	20705
901.904	20492
902.023	20415
902.141	20244
902.26	20199
902.379	20275
902.498	20103
902.617	20050
902.735	20320
902.854	20126
902.973	20065
903.091	19761
903.21	19738
903.328	19868
903.446	19769
903.565	19704
903.683	19605
903.801	19476
903.919	19601
904.038	19487
904.156	19327
904.274	19377
904.392	19449
904.51	19377
904.627	19354
904.745	19502
904.863	19480
904.981	19213
905.098	19137
905.216	19114
905.334	19118
905.451	19080
905.569	18962
905.686	19099
905.803	19057
905.921	18665
906.038	18817
906.155	18738
906.272	18700
906.389	18730
906.506	18570
906.623	18620
906.74	18551
906.857	18304
906.974	18460
907.091	18631
907.208	18582
907.324	18604
907.441	18422
907.557	18216
907.674	18365
907.79	18296
907.907	18201
908.023	18277
908.139	18213
908.256	18163
908.372	18194
908.488	18133
908.604	17912
908.72	18034
908.836	17923
908.952	17885
909.068	17931
909.184	18117
909.3	17866
909.415	18091
909.531	17920
909.647	17665
909.762	17558
909.878	17532
909.993	17680
910.108	17623
910.224	17604
910.339	17608
910.454	17520
910.57	17478
910.685	17398
910.8	17687
910.915	17581
911.03	17372
911.145	17315
911.259	17212
911.374	17250
911.489	17216
911.604	17060
911.718	17003
911.833	16965
911.947	16900
912.062	16843
912.176	16942
912.291	16927
912.405	16938
912.519	17140
912.633	17094
912.748	16949
912.862	16919
912.976	16809
913.09	16698
913.204	16748
913.318	16755
913.431	16831
913.545	16755
913.659	16850
913.772	16660
913.886	16713
914	16474
914.113	16584
914.226	16577
914.34	16660
914.453	16413
914.566	16698
914.68	16497
914.793	16402
914.906	16226
915.019	16082
915.132	16036
915.245	16078
915.358	16131
915.47	16044
915.583	16105
915.696	16158
915.809	16154
915.921	16192
916.034	16120
916.146	16090
916.259	16029
916.371	16090
916.483	15979
916.595	15937
916.708	15926
916.82	15949
916.932	15876
917.044	15865
917.156	15956
917.268	15739
917.38	15823
917.491	15705
917.603	15724
917.715	15793
917.826	15903
917.938	15584
918.049	15584
918.161	15530
918.272	15850
918.384	15797
918.495	15667
918.606	15492
918.717	15435
918.828	15534
918.939	15614
919.05	15416
919.161	15450
919.272	15310
919.383	15332
919.494	15553
919.604	15694
919.715	15412
919.826	15386
919.936	15386
920.047	15492
920.157	15496
920.267	15728
920.378	15431
920.488	15405
920.598	15564
920.708	15720
920.818	15549
920.928	15542
921.038	15793
921.148	15671
921.258	15355
921.368	15256
921.477	15100
921.587	15112
921.697	15047
921.806	15150
921.916	14921
922.025	14876
922.134	14754
922.244	14735
922.353	14750
922.462	14705
922.571	14556
922.68	14492
922.789	14438
922.898	14339
923.007	14370
923.116	14446
923.224	14332
923.333	14431
923.442	14240
923.55	14218
923.659	14305
923.767	14221
923.876	14111
923.984	14259
924.092	14073
924.201	14130
924.309	14176
924.417	14134
924.525	14024
924.633	14092
924.741	14777
924.849	13890
924.956	13970
925.064	13841
925.172	13826
925.279	13826
925.387	13750
925.494	13738
925.602	13913
925.709	13826
925.816	13609
925.924	13772
926.031	13814
926.138	13670
926.245	13776
926.352	13609
926.459	13875
926.566	13814
926.673	13685
926.779	13552
926.886	13510
926.993	13335
927.099	13285
927.206	13236
927.312	13190
927.419	13316
927.525	13301
927.631	13327
927.737	13194
927.843	13118
927.95	13000
928.056	13145
928.162	13053
928.267	13099
928.373	13662
928.479	13221
928.585	13012
928.69	13046
928.796	13099
928.901	12996
929.007	12829
929.112	12821
929.218	12913
929.323	12833
929.428	12829
929.533	12924
929.638	12810
929.743	12764
929.848	12871
929.953	12749
930.058	12677
930.163	12521
930.267	12483
930.372	12601
930.477	12471
930.581	12654
930.685	12536
930.79	12426
930.894	12464
930.998	12273
931.103	12467
931.207	12136
931.311	11984
931.415	11935
931.519	11729
931.623	11764
