Data from test_V78500241_73.txt Node
Date: Fri Mar 25 15:42:18 CST 2022
User: usil
Spectrometer: V785-0024
Trigger mode: 0
Integration Time (sec): 4.000000E-1
Scans to average: 1
Nonlinearity correction enabled: false
Boxcar width: 0
Storing dark spectrum: false
XAxis mode: Wavelengths
Number of Pixels in Spectrum: 1024
>>>>>Begin Spectral Data<<<<<
801.071	29843
801.214	29885
801.356	29748
801.499	29429
801.641	29436
801.783	29299
801.926	29501
802.068	29402
802.211	29436
802.353	29269
802.496	29102
802.638	29170
802.78	29048
802.923	29022
803.065	28873
803.208	29052
803.35	29060
803.492	29159
803.635	29246
803.777	29216
803.919	29326
804.061	29619
804.204	29189
804.346	29166
804.488	29060
804.63	29136
804.773	29105
804.915	29261
805.057	29261
805.199	29113
805.341	29265
805.483	29368
805.626	29315
805.768	29117
805.91	29159
806.052	29330
806.194	29109
806.336	29543
806.478	29322
806.62	29216
806.762	29379
806.904	29668
807.046	29668
807.188	29722
807.33	29733
807.472	29843
807.614	29478
807.756	29589
807.898	29608
808.04	29402
808.182	29368
808.324	29360
808.465	29566
808.607	29604
808.749	29661
808.891	29862
809.033	30049
809.174	29729
809.316	29802
809.458	29802
809.6	29859
809.741	29866
809.883	29859
810.025	30140
810.166	30068
810.308	30034
810.45	30060
810.591	30049
810.733	29748
810.875	29767
811.016	29737
811.158	29726
811.299	29847
811.441	29942
811.582	29958
811.724	29779
811.865	29680
812.007	29752
812.148	29718
812.29	29817
812.431	29946
812.573	30171
812.714	30159
812.855	30311
812.997	30277
813.138	30517
813.279	30403
813.421	30266
813.562	30285
813.703	30064
813.845	29889
813.986	29741
814.127	29459
814.268	29334
814.41	29334
814.551	29478
814.692	29528
814.833	29539
814.974	29436
815.115	29353
815.256	29330
815.397	29018
815.539	29174
815.68	29223
815.821	28984
815.962	29048
816.103	29102
816.244	29033
816.385	28908
816.526	28843
816.666	28577
816.807	28409
816.948	28485
817.089	28630
817.23	28546
817.371	28516
817.512	28447
817.653	28417
817.793	28394
817.934	28363
818.075	28592
818.216	28401
818.356	28440
818.497	28360
818.638	28166
818.778	28192
818.919	28158
819.06	28265
819.2	28291
819.341	28363
819.481	28379
819.622	28618
819.762	28744
819.903	28584
820.043	28550
820.184	28504
820.324	28557
820.465	28478
820.605	28443
820.746	28348
820.886	28360
821.026	28535
821.167	28337
821.307	28504
821.447	28413
821.588	28295
821.728	28188
821.868	27850
822.008	27934
822.149	27880
822.289	27728
822.429	27500
822.569	27435
822.709	27450
822.849	27252
822.99	27268
823.13	27195
823.27	27188
823.41	27108
823.55	27032
823.69	27005
823.83	27127
823.97	26982
824.11	26906
824.25	26712
824.389	26739
824.529	26807
824.669	26845
824.809	26876
824.949	26994
825.089	26830
825.228	26876
825.368	26667
825.508	26613
825.648	26648
825.787	26648
825.927	26693
826.067	26678
826.206	26667
826.346	26777
826.485	26785
826.625	26735
826.765	26830
826.904	26659
827.044	26419
827.183	26427
827.323	26343
827.462	26324
827.601	26370
827.741	26263
827.88	26202
828.02	26119
828.159	26328
828.298	26218
828.437	26328
828.577	26054
828.716	26374
828.855	26142
828.994	25947
829.134	25928
829.273	26115
829.412	25898
829.551	25997
829.69	25906
829.829	25906
829.968	26027
830.107	26115
830.246	25898
830.385	25883
830.524	25772
830.663	25742
830.802	25685
830.941	25506
831.08	25533
831.219	25590
831.357	25346
831.496	25788
831.635	25460
831.774	25308
831.913	25320
832.051	25320
832.19	25221
832.329	25304
832.467	25141
832.606	25050
832.744	25141
832.883	25152
833.022	25107
833.16	25053
833.299	25164
833.437	25080
833.576	25179
833.714	25065
833.852	25091
833.991	25171
834.129	25194
834.267	25247
834.406	25091
834.544	25145
834.682	25084
834.821	25099
834.959	25270
835.097	25053
835.235	24951
835.373	25133
835.511	25148
835.65	24863
835.788	24837
835.926	24734
836.064	24707
836.202	24597
836.34	24882
836.478	24901
836.615	24867
836.753	24848
836.891	25034
837.029	24859
837.167	24806
837.305	24787
837.443	24734
837.58	24722
837.718	24897
837.856	24749
837.993	24589
838.131	24684
838.269	24589
838.406	24654
838.544	24540
838.681	24388
838.819	24262
838.956	24072
839.094	24064
839.231	24144
839.369	24273
839.506	24483
839.643	24304
839.781	24030
839.918	24110
840.055	24015
840.193	24140
840.33	24003
840.467	23988
840.604	24140
840.742	24334
840.879	23821
841.016	24011
841.153	23824
841.29	24102
841.427	23840
841.564	23977
841.701	23912
841.838	23882
841.975	23847
842.112	23802
842.249	23748
842.385	23600
842.522	24038
842.659	23699
842.796	23551
842.933	23558
843.069	23535
843.206	23729
843.343	23623
843.479	23642
843.616	23604
843.752	23433
843.889	23318
844.025	23562
844.162	23349
844.298	23497
844.435	23395
844.571	23280
844.708	23280
844.844	23478
844.98	23459
845.117	23433
845.253	23239
845.389	23231
845.525	23326
845.661	23185
845.798	23109
845.934	23132
846.07	23029
846.206	23075
846.342	23159
846.478	23071
846.614	22767
846.75	22679
846.886	22801
847.022	22862
847.158	22713
847.294	22744
847.429	22831
847.565	22763
847.701	23048
847.837	22485
847.972	22519
848.108	22694
848.244	22653
848.379	22329
848.515	22306
848.65	22128
848.786	22356
848.921	22234
849.057	22451
849.192	22375
849.328	22333
849.463	22337
849.598	22337
849.734	22379
849.869	22150
850.004	22154
850.14	22086
850.275	22040
850.41	21998
850.545	21998
850.68	21956
850.815	21979
850.95	22101
851.085	22249
851.22	22158
851.355	22055
851.49	21949
851.625	21941
851.76	21991
851.895	21922
852.03	22032
852.165	21956
852.299	22070
852.434	22021
852.569	22025
852.703	21991
852.838	21991
852.973	22101
853.107	22029
853.242	21907
853.376	21808
853.511	21804
853.645	21831
853.78	21983
853.914	21747
854.048	21934
854.183	21785
854.317	21755
854.451	21842
854.585	21732
854.72	21717
854.854	21899
854.988	21682
855.122	21789
855.256	21717
855.39	21930
855.524	21804
855.658	21850
855.792	21865
855.926	21850
856.06	21926
856.194	21850
856.327	21755
856.461	21770
856.595	21819
856.729	21880
856.862	21789
856.996	21709
857.13	21778
857.263	21884
857.397	21781
857.53	21876
857.664	21880
857.797	21797
857.931	21915
858.064	21679
858.197	22070
858.331	21599
858.464	21564
858.597	21637
858.731	21770
858.864	21667
858.997	21705
859.13	21732
859.263	21766
859.396	21880
859.529	21705
859.662	21622
859.795	21793
859.928	21789
860.061	21819
860.194	21880
860.327	21785
860.46	21759
860.592	21804
860.725	21876
860.858	21827
860.99	21743
861.123	21739
861.256	21606
861.388	21789
861.521	22363
861.653	21595
861.786	21443
861.918	21652
862.05	21637
862.183	21774
862.315	21762
862.447	21762
862.58	21690
862.712	21473
862.844	21428
862.976	21428
863.108	21412
863.24	21739
863.372	21298
863.504	21378
863.636	21469
863.768	21378
863.9	21412
864.032	21325
864.164	21412
864.296	21260
864.428	21443
864.559	21473
864.691	21500
864.823	21359
864.954	21428
865.086	21443
865.217	21321
865.349	21256
865.48	21355
865.612	21237
865.743	21443
865.875	21367
866.006	21226
866.137	21291
866.269	21222
866.4	21214
866.531	21188
866.662	21230
866.793	21283
866.924	21169
867.055	21329
867.186	21256
867.317	21302
867.448	21131
867.579	21207
867.71	21180
867.841	21108
867.972	21150
868.103	21222
868.233	21249
868.364	21188
868.495	21344
868.625	21382
868.756	21428
868.886	21469
869.017	21412
869.147	21488
869.278	21507
869.408	21420
869.539	21408
869.669	21454
869.799	21515
869.929	21644
870.06	21557
870.19	21713
870.32	21701
870.45	21808
870.58	21717
870.71	21937
870.84	21979
870.97	21762
871.1	21895
871.23	21979
871.36	22029
871.489	21892
871.619	22032
871.749	22051
871.879	21960
872.008	22139
872.138	22063
872.267	21949
872.397	21968
872.526	21892
872.656	21865
872.785	21762
872.915	22032
873.044	21987
873.173	22158
873.303	21987
873.432	22128
873.561	22093
873.69	22162
873.819	22040
873.948	22158
874.077	22025
874.206	21888
874.335	22074
874.464	22249
874.593	22333
874.722	22234
874.851	22299
874.979	22333
875.108	22257
875.237	22314
875.365	22154
875.494	22303
875.623	22253
875.751	22143
875.88	22363
876.008	22352
876.136	22390
876.265	22664
876.393	22790
876.521	22733
876.65	22797
876.778	22656
876.906	22622
877.034	22603
877.162	22645
877.29	22622
877.418	22637
877.546	22687
877.674	22653
877.802	22542
877.93	22561
878.058	22493
878.185	22531
878.313	22710
878.441	22542
878.568	22474
878.696	22466
878.824	22649
878.951	22653
879.079	22786
879.206	22976
879.333	22729
879.461	22713
879.588	22824
879.715	22896
879.842	22786
879.97	22752
880.097	22428
880.224	22451
880.351	22500
880.478	22462
880.605	22356
880.732	22356
880.859	22683
880.986	22561
881.112	22451
881.239	22375
881.366	22223
881.493	22101
881.619	22173
881.746	22105
881.872	22021
881.999	22021
882.125	21972
882.252	22067
882.378	21949
882.505	22097
882.631	21994
882.757	21732
882.883	21888
883.01	21686
883.136	21732
883.262	21660
883.388	21485
883.514	21652
883.64	21854
883.766	21637
883.892	21526
884.018	21564
884.143	21663
884.269	21717
884.395	21439
884.52	21469
884.646	21462
884.772	21211
884.897	21272
885.023	21317
885.148	21587
885.274	21557
885.399	21443
885.524	21325
885.65	21408
885.775	21412
885.9	21344
886.025	21416
886.15	21424
886.275	21298
886.4	21230
886.525	21188
886.65	21367
886.775	21058
886.9	21428
887.025	21462
887.149	21401
887.274	21173
887.399	21062
887.523	21180
887.648	21112
887.773	21024
887.897	21214
888.021	21180
888.146	21074
888.27	21245
888.395	21321
888.519	21089
888.643	21085
888.767	21077
888.891	20986
889.015	20960
889.139	20937
889.263	20956
889.387	21066
889.511	21214
889.635	21017
889.759	20857
889.883	20963
890.006	20765
890.13	20956
890.254	20674
890.377	20769
890.501	20644
890.624	20526
890.748	20716
890.871	20355
890.995	20507
891.118	20317
891.241	20358
891.364	20484
891.488	20663
891.611	20454
891.734	20484
891.857	20541
891.98	20499
892.103	20438
892.226	20503
892.349	20347
892.471	20305
892.594	20431
892.717	20404
892.839	20351
892.962	20408
893.085	20362
893.207	20358
893.33	20191
893.452	20229
893.575	20438
893.697	20336
893.819	20469
893.941	20533
894.064	20461
894.186	20229
894.308	20298
894.43	20412
894.552	20556
894.674	20518
894.796	20256
894.918	20256
895.04	20320
895.161	20484
895.283	20290
895.405	20336
895.526	20324
895.648	20362
895.769	20328
895.891	20442
896.012	20438
896.134	20499
896.255	20339
896.376	20355
896.498	20446
896.619	20374
896.74	20298
896.861	20560
896.982	20739
897.103	20823
897.224	20640
897.345	20636
897.466	20537
897.587	20617
897.708	20746
897.828	20632
897.949	20446
898.07	20438
898.19	20587
898.311	20629
898.431	20530
898.552	20545
898.672	20617
898.792	20629
898.913	20579
899.033	20476
899.153	20385
899.273	20172
899.393	20240
899.513	20286
899.633	20111
899.753	20271
899.873	20172
899.993	20225
900.113	20122
900.232	20195
900.352	20103
900.472	20126
900.591	20050
900.711	20016
900.83	19974
900.95	20161
901.069	20130
901.189	19947
901.308	19772
901.427	19582
901.546	19776
901.665	19655
901.784	19776
901.904	19548
902.023	19373
902.141	19194
902.26	19084
902.379	19209
902.498	19168
902.617	18977
902.735	19034
902.854	19046
902.973	18981
903.091	18764
903.21	18646
903.328	18749
903.446	18745
903.565	18612
903.683	18532
903.801	18536
903.919	18498
904.038	18525
904.156	18388
904.274	18559
904.392	18258
904.51	18319
904.627	18254
904.745	18350
904.863	18285
904.981	18133
905.098	18060
905.216	18064
905.334	17904
905.451	17946
905.569	18011
905.686	17878
905.803	18011
905.921	17703
906.038	17874
906.155	17870
906.272	17627
906.389	17722
906.506	17497
906.623	17562
906.74	17482
906.857	17353
906.974	17471
907.091	17627
907.208	17634
907.324	17482
907.441	17402
907.557	17273
907.674	17277
907.79	17155
907.907	17162
908.023	17185
908.139	17140
908.256	17132
908.372	17029
908.488	17033
908.604	16968
908.72	16854
908.836	16885
908.952	16847
909.068	16911
909.184	16949
909.3	16854
909.415	16831
909.531	16938
909.647	16561
909.762	16546
909.878	16588
909.993	16592
910.108	16485
910.224	16565
910.339	16504
910.454	16436
910.57	16268
910.685	16230
910.8	16573
910.915	16451
911.03	16337
911.145	16223
911.259	16071
911.374	16093
911.489	16036
911.604	16082
911.718	15895
911.833	15903
911.947	15823
912.062	15698
912.176	15907
912.291	15930
912.405	15865
912.519	15979
912.633	16063
912.748	15835
912.862	15838
912.976	15641
913.09	15599
913.204	15667
913.318	15648
913.431	15705
913.545	15816
913.659	15739
913.772	15629
913.886	15458
914	15416
914.113	15591
914.226	15519
914.34	15545
914.453	15408
914.566	15443
914.68	15317
914.793	15355
914.906	15157
915.019	15116
915.132	15058
915.245	15013
915.358	15097
915.47	15169
915.583	15112
915.696	15131
915.809	15203
915.921	15214
916.034	15070
916.146	15036
916.259	14979
916.371	14960
916.483	15001
916.595	14823
916.708	14868
916.82	14891
916.932	14864
917.044	14887
917.156	14823
917.268	14651
917.38	14716
917.491	14765
917.603	14750
917.715	14895
917.826	14807
917.938	14659
918.049	14552
918.161	14648
918.272	14796
918.384	14804
918.495	14659
918.606	14587
918.717	14454
918.828	14404
918.939	14492
919.05	14404
919.161	14381
919.272	14218
919.383	14229
919.494	14518
919.604	14590
919.715	14408
919.826	14339
919.936	14355
920.047	14404
920.157	14427
920.267	14511
920.378	14404
920.488	14396
920.598	14571
920.708	14659
920.818	14495
920.928	14499
921.038	14617
921.148	14564
921.258	14415
921.368	14290
921.477	14145
921.587	14077
921.697	13917
921.806	14145
921.916	13921
922.025	13845
922.134	13765
922.244	13658
922.353	13772
922.462	13700
922.571	13594
922.68	13415
922.789	13377
922.898	13354
923.007	13388
923.116	13438
923.224	13377
923.333	13297
923.442	13225
923.55	13175
923.659	13270
923.767	13327
923.876	13209
923.984	13190
924.092	13168
924.201	13088
924.309	13133
924.417	13149
924.525	13099
924.633	13091
924.741	14081
924.849	12817
924.956	12878
925.064	12787
925.172	12715
925.279	12821
925.387	12882
925.494	12783
925.602	12901
925.709	12859
925.816	12696
925.924	12772
926.031	12779
926.138	12738
926.245	12798
926.352	12635
926.459	12791
926.566	12810
926.673	12684
926.779	12544
926.886	12604
926.993	12475
927.099	12426
927.206	12323
927.312	12369
927.419	12437
927.525	12422
927.631	12414
927.737	12296
927.843	12266
927.95	12209
928.056	12213
928.162	12121
928.267	12220
928.373	12829
928.479	12285
928.585	12049
928.69	12121
928.796	12197
928.901	12072
929.007	11897
929.112	11961
929.218	12022
929.323	11901
929.428	12011
929.533	12030
929.638	11821
929.743	11840
929.848	11961
929.953	11847
930.058	11764
930.163	11604
930.267	11653
930.372	11737
930.477	11707
930.581	11760
930.685	11680
930.79	11455
930.894	11551
930.998	11463
931.103	11604
931.207	11178
931.311	11121
931.415	11094
931.519	10866
931.623	10858
