Data from test_V78500241_339.txt Node
Date: Fri Mar 25 15:44:08 CST 2022
User: usil
Spectrometer: V785-0024
Trigger mode: 0
Integration Time (sec): 4.000000E-1
Scans to average: 1
Nonlinearity correction enabled: false
Boxcar width: 0
Storing dark spectrum: false
XAxis mode: Wavelengths
Number of Pixels in Spectrum: 1024
>>>>>Begin Spectral Data<<<<<
801.071	29695
801.214	29737
801.356	29452
801.499	29337
801.641	29242
801.783	29356
801.926	29448
802.068	29315
802.211	29250
802.353	29083
802.496	28984
802.638	29041
802.78	28942
802.923	28873
803.065	28873
803.208	28812
803.35	28927
803.492	29109
803.635	29212
803.777	29052
803.919	29033
804.061	29505
804.204	29277
804.346	28999
804.488	29079
804.63	29102
804.773	29018
804.915	29273
805.057	29124
805.199	29064
805.341	29273
805.483	29311
805.626	29208
805.768	29105
805.91	29174
806.052	29277
806.194	29288
806.336	29551
806.478	29315
806.62	29318
806.762	29497
806.904	29638
807.046	29802
807.188	29608
807.33	29657
807.472	29786
807.614	29710
807.756	29714
807.898	29482
808.04	29402
808.182	29585
808.324	29474
808.465	29562
808.607	29737
808.749	29832
808.891	30034
809.033	30026
809.174	30045
809.316	30018
809.458	29992
809.6	29950
809.741	29927
809.883	30079
810.025	30102
810.166	30220
810.308	30121
810.45	30121
810.591	30102
810.733	30057
810.875	29958
811.016	29817
811.158	29783
811.299	29946
811.441	30038
811.582	30136
811.724	29897
811.865	29817
812.007	29790
812.148	29935
812.29	30045
812.431	30087
812.573	30251
812.714	30277
812.855	30422
812.997	30452
813.138	30544
813.279	30593
813.421	30521
813.562	30452
813.703	30323
813.845	30125
813.986	29809
814.127	29733
814.268	29589
814.41	29623
814.551	29547
814.692	29779
814.833	29425
814.974	29509
815.115	29539
815.256	29448
815.397	29444
815.539	29425
815.68	29440
815.821	29330
815.962	29383
816.103	29395
816.244	29185
816.385	29303
816.526	29170
816.666	28946
816.807	28828
816.948	28839
817.089	28949
817.23	28900
817.371	28946
817.512	28797
817.653	28782
817.793	28923
817.934	28778
818.075	28850
818.216	28797
818.356	28713
818.497	28637
818.638	28584
818.778	28611
818.919	28489
819.06	28577
819.2	28660
819.341	28752
819.481	28687
819.622	28957
819.762	29124
819.903	29147
820.043	28942
820.184	29056
820.324	29033
820.465	29006
820.605	28957
820.746	28908
820.886	28767
821.026	28850
821.167	28820
821.307	28942
821.447	28828
821.588	28645
821.728	28462
821.868	28325
822.008	28261
822.149	28185
822.289	28055
822.429	27987
822.569	27922
822.709	27797
822.849	27625
822.99	27800
823.13	27709
823.27	27637
823.41	27370
823.55	27507
823.69	27515
823.83	27591
823.97	27511
824.11	27340
824.25	27272
824.389	27279
824.529	27401
824.669	27313
824.809	27378
824.949	27488
825.089	27378
825.228	27211
825.368	27180
825.508	27150
825.648	27249
825.787	27351
825.927	27157
826.067	27230
826.206	27264
826.346	27032
826.485	27176
826.625	27192
826.765	27180
826.904	27176
827.044	26944
827.183	26880
827.323	26868
827.462	26906
827.601	26979
827.741	26800
827.88	26914
828.02	26811
828.159	26956
828.298	26891
828.437	26940
828.577	26648
828.716	26853
828.855	26712
828.994	26476
829.134	26594
829.273	26590
829.412	26552
829.551	26545
829.69	26446
829.829	26469
829.968	26609
830.107	26396
830.246	26533
830.385	26461
830.524	26473
830.663	26282
830.802	26138
830.941	26084
831.08	26069
831.219	26233
831.357	26035
831.496	26385
831.635	26058
831.774	25913
831.913	25841
832.051	25951
832.19	25860
832.329	25845
832.467	25677
832.606	25670
832.744	25670
832.883	25822
833.022	25704
833.16	25731
833.299	25723
833.437	25719
833.576	25693
833.714	25757
833.852	25833
833.991	25784
834.129	25864
834.267	25868
834.406	25658
834.544	25799
834.682	25765
834.821	25624
834.959	25769
835.097	25544
835.235	25757
835.373	25799
835.511	25658
835.65	25693
835.788	25578
835.926	25449
836.064	25426
836.202	25331
836.34	25529
836.478	25559
836.615	25575
836.753	25487
836.891	25613
837.029	25544
837.167	25445
837.305	25396
837.443	25362
837.58	25419
837.718	25468
837.856	25381
837.993	25350
838.131	25266
838.269	25236
838.406	25137
838.544	25206
838.681	25114
838.819	24962
838.956	24798
839.094	24730
839.231	24791
839.369	24916
839.506	25126
839.643	24939
839.781	24734
839.918	24757
840.055	24798
840.193	24646
840.33	24871
840.467	24635
840.604	24677
840.742	24928
840.879	24555
841.016	24479
841.153	24563
841.29	24795
841.427	24661
841.564	24593
841.701	24582
841.838	24688
841.975	24620
842.112	24513
842.249	24407
842.385	24502
842.522	24544
842.659	24460
842.796	24426
842.933	24433
843.069	24308
843.206	24380
843.343	24376
843.479	24403
843.616	24380
843.752	24186
843.889	24174
844.025	24292
844.162	24087
844.298	24281
844.435	24197
844.571	24182
844.708	24216
844.844	24159
844.98	24095
845.117	24167
845.253	24121
845.389	24034
845.525	24053
845.661	23927
845.798	23813
845.934	23882
846.07	23901
846.206	23817
846.342	23984
846.478	23722
846.614	23642
846.75	23455
846.886	23505
847.022	23520
847.158	23535
847.294	23524
847.429	23615
847.565	23452
847.701	23737
847.837	23254
847.972	23181
848.108	23372
848.244	23330
848.379	23140
848.515	23113
848.65	23052
848.786	23113
848.921	23037
849.057	23174
849.192	23166
849.328	23185
849.463	23121
849.598	23094
849.734	23018
849.869	23044
850.004	22839
850.14	22850
850.275	22869
850.41	22786
850.545	22801
850.68	22812
850.815	22847
850.95	22771
851.085	22949
851.22	22938
851.355	22938
851.49	22858
851.625	22786
851.76	22858
851.895	22725
852.03	22771
852.165	22771
852.299	22847
852.434	22869
852.569	22896
852.703	22885
852.838	22930
852.973	22957
853.107	22984
853.242	22793
853.376	22744
853.511	22569
853.645	22729
853.78	22843
853.914	22675
854.048	22565
854.183	22599
854.317	22767
854.451	22847
854.585	22580
854.72	22641
854.854	22744
854.988	22596
855.122	22462
855.256	22531
855.39	22672
855.524	22664
855.658	22713
855.792	22569
855.926	22687
856.06	22683
856.194	22694
856.327	22645
856.461	22588
856.595	22653
856.729	22660
856.862	22759
856.996	22622
857.13	22744
857.263	22729
857.397	22755
857.53	22561
857.664	22603
857.797	22672
857.931	22763
858.064	22641
858.197	22763
858.331	22618
858.464	22645
858.597	22519
858.731	22668
858.864	22599
858.997	22580
859.13	22645
859.263	22672
859.396	22687
859.529	22611
859.662	22474
859.795	22550
859.928	22675
860.061	22759
860.194	22877
860.327	22702
860.46	22516
860.592	22702
860.725	22816
860.858	22774
860.99	22557
861.123	22455
861.256	22599
861.388	22630
861.521	23410
861.653	22451
861.786	22379
861.918	22493
862.05	22405
862.183	22592
862.315	22641
862.447	22725
862.58	22573
862.712	22413
862.844	22318
862.976	22417
863.108	22341
863.24	22637
863.372	22356
863.504	22253
863.636	22333
863.768	22303
863.9	22417
864.032	22120
864.164	22291
864.296	22207
864.428	22360
864.559	22409
864.691	22291
864.823	22223
864.954	22265
865.086	22287
865.217	22253
865.349	22185
865.48	22226
865.612	22188
865.743	22200
865.875	22223
866.006	22116
866.137	22215
866.269	22143
866.4	22105
866.531	22093
866.662	22093
866.793	22063
866.924	22067
867.055	22150
867.186	22131
867.317	22006
867.448	22090
867.579	22059
867.71	21979
867.841	21972
867.972	22135
868.103	21994
868.233	22010
868.364	22131
868.495	22192
868.625	22188
868.756	22341
868.886	22306
869.017	22310
869.147	22344
869.278	22367
869.408	22291
869.539	22257
869.669	22322
869.799	22348
869.929	22462
870.06	22402
870.19	22649
870.32	22565
870.45	22599
870.58	22828
870.71	22774
870.84	22778
870.97	22653
871.1	22763
871.23	22831
871.36	22873
871.489	22767
871.619	22793
871.749	23025
871.879	23010
872.008	22923
872.138	22847
872.267	22999
872.397	22767
872.526	22691
872.656	22721
872.785	22771
872.915	22965
873.044	23056
873.173	22828
873.303	22923
873.432	23014
873.561	23105
873.69	22858
873.819	23048
873.948	23014
874.077	22908
874.206	22828
874.335	23075
874.464	23029
874.593	23170
874.722	23018
874.851	23288
874.979	23197
875.108	23288
875.237	23102
875.365	23086
875.494	23151
875.623	23246
875.751	23128
875.88	23052
876.008	23307
876.136	23353
876.265	23425
876.393	23589
876.521	23592
876.65	23676
876.778	23718
876.906	23520
877.034	23505
877.162	23554
877.29	23490
877.418	23395
877.546	23589
877.674	23425
877.802	23414
877.93	23547
878.058	23440
878.185	23273
878.313	23406
878.441	23627
878.568	23223
878.696	23531
878.824	23467
878.951	23585
879.079	23718
879.206	23802
879.333	23577
879.461	23501
879.588	23642
879.715	23653
879.842	23794
879.97	23551
880.097	23208
880.224	23273
880.351	23318
880.478	23235
880.605	23330
880.732	23273
880.859	23448
880.986	23387
881.112	23322
881.239	23189
881.366	23121
881.493	22961
881.619	22923
881.746	22892
881.872	22904
881.999	22797
882.125	22812
882.252	22854
882.378	22835
882.505	22763
882.631	22847
882.757	22607
882.883	22706
883.01	22577
883.136	22512
883.262	22356
883.388	22344
883.514	22565
883.64	22611
883.766	22546
883.892	22246
884.018	22386
884.143	22459
884.269	22516
884.395	22234
884.52	22185
884.646	22211
884.772	22131
884.897	22090
885.023	22070
885.148	22284
885.274	22287
885.399	22257
885.524	22226
885.65	22219
885.775	22192
885.9	22207
886.025	22314
886.15	22318
886.275	22135
886.4	21972
886.525	22230
886.65	22044
886.775	22105
886.9	22276
887.025	22284
887.149	22177
887.274	21941
887.399	21907
887.523	21876
887.648	21838
887.773	21850
887.897	21953
888.021	22055
888.146	21747
888.27	21994
888.395	22082
888.519	22010
888.643	21979
888.767	21876
888.891	21838
889.015	21743
889.139	21709
889.263	21622
889.387	21778
889.511	21895
889.635	21808
889.759	21705
889.883	21705
890.006	21690
890.13	21713
890.254	21545
890.377	21705
890.501	21424
890.624	21469
890.748	21447
890.871	21363
890.995	21268
891.118	21313
891.241	21252
891.364	21332
891.488	21378
891.611	21260
891.734	21233
891.857	21329
891.98	21268
892.103	21245
892.226	21268
892.349	21184
892.471	21058
892.594	21180
892.717	21123
892.839	21028
892.962	21165
893.085	21169
893.207	21138
893.33	21077
893.452	21135
893.575	21283
893.697	21085
893.819	21317
893.941	21386
894.064	21298
894.186	20944
894.308	21009
894.43	21199
894.552	21268
894.674	21188
894.796	21043
894.918	21093
895.04	21093
895.161	21138
895.283	21077
895.405	21032
895.526	21176
895.648	21085
895.769	21146
895.891	21169
896.012	21237
896.134	21108
896.255	21135
896.376	21100
896.498	21150
896.619	21142
896.74	21100
896.861	21249
896.982	21511
897.103	21504
897.224	21397
897.345	21363
897.466	21336
897.587	21272
897.708	21488
897.828	21344
897.949	21272
898.07	21218
898.19	21321
898.311	21310
898.431	21256
898.552	21283
898.672	21218
898.792	21378
898.913	21188
899.033	21104
899.153	21123
899.273	21013
899.393	21096
899.513	21043
899.633	21017
899.753	21047
899.873	20952
899.993	21024
900.113	20967
900.232	21009
900.352	21013
900.472	20876
900.591	20796
900.711	20948
900.83	20667
900.95	20864
901.069	20773
901.189	20667
901.308	20423
901.427	20313
901.546	20404
901.665	20298
901.784	20381
901.904	20256
902.023	20142
902.141	19982
902.26	19879
902.379	19955
902.498	19963
902.617	19841
902.735	19818
902.854	19776
902.973	19742
903.091	19582
903.21	19483
903.328	19525
903.446	19449
903.565	19209
903.683	19384
903.801	19179
903.919	19289
904.038	19187
904.156	19095
904.274	19194
904.392	18985
904.51	19042
904.627	19129
904.745	19053
904.863	19114
904.981	18863
905.098	18612
905.216	18654
905.334	18840
905.451	18677
905.569	18665
905.686	18715
905.803	18772
905.921	18585
906.038	18608
906.155	18555
906.272	18323
906.389	18232
906.506	18292
906.623	18258
906.74	18277
906.857	18102
906.974	18140
907.091	18311
907.208	18380
907.324	18235
907.441	18174
907.557	18003
907.674	17984
907.79	17866
907.907	17904
908.023	17946
908.139	17969
908.256	17802
908.372	17897
908.488	17836
908.604	17611
908.72	17665
908.836	17604
908.952	17638
909.068	17748
909.184	17802
909.3	17608
909.415	17585
909.531	17558
909.647	17402
909.762	17334
909.878	17212
909.993	17299
910.108	17345
910.224	17379
910.339	17318
910.454	17170
910.57	17155
910.685	17052
910.8	17239
910.915	17284
911.03	17166
911.145	16976
911.259	16816
911.374	16946
911.489	16771
911.604	16771
911.718	16580
911.833	16618
911.947	16622
912.062	16466
912.176	16641
912.291	16611
912.405	16596
912.519	16824
912.633	16748
912.748	16634
912.862	16561
912.976	16405
913.09	16249
913.204	16367
913.318	16367
913.431	16409
913.545	16508
913.659	16538
913.772	16409
913.886	16192
914	16200
914.113	16276
914.226	16322
914.34	16226
914.453	16105
914.566	16284
914.68	16124
914.793	15937
914.906	15846
915.019	15778
915.132	15857
915.245	15842
915.358	15759
915.47	15804
915.583	15899
915.696	15865
915.809	15850
915.921	15865
916.034	15789
916.146	15648
916.259	15736
916.371	15755
916.483	15682
916.595	15637
916.708	15648
916.82	15576
916.932	15538
917.044	15534
917.156	15549
917.268	15412
917.38	15473
917.491	15370
917.603	15492
917.715	15405
917.826	15477
917.938	15416
918.049	15249
918.161	15401
918.272	15454
918.384	15496
918.495	15397
918.606	15188
918.717	15112
918.828	15226
918.939	15169
919.05	15066
919.161	15077
919.272	14990
919.383	14933
919.494	15119
919.604	15287
919.715	15116
919.826	14982
919.936	15077
920.047	15165
920.157	15108
920.267	15268
920.378	15036
920.488	14971
920.598	15344
920.708	15374
920.818	15195
920.928	15150
921.038	15340
921.148	15275
921.258	15020
921.368	14967
921.477	14842
921.587	14743
921.697	14743
921.806	14754
921.916	14617
922.025	14469
922.134	14480
922.244	14400
922.353	14518
922.462	14301
922.571	14214
922.68	13993
922.789	14035
922.898	14035
923.007	14039
923.116	14031
923.224	14088
923.333	14077
923.442	14001
923.55	13883
923.659	13864
923.767	13997
923.876	13868
923.984	13875
924.092	13734
924.201	13818
924.309	13780
924.417	13849
924.525	13643
924.633	13632
924.741	14431
924.849	13529
924.956	13674
925.064	13533
925.172	13392
925.279	13419
925.387	13609
925.494	13365
925.602	13575
925.709	13537
925.816	13449
925.924	13362
926.031	13407
926.138	13331
926.245	13388
926.352	13373
926.459	13400
926.566	13381
926.673	13259
926.779	13194
926.886	13209
926.993	13076
927.099	12985
927.206	12977
927.312	12993
927.419	12966
927.525	13012
927.631	12943
927.737	12890
927.843	12859
927.95	12730
928.056	12802
928.162	12806
928.267	12814
928.373	13476
928.479	12798
928.585	12601
928.69	12707
928.796	12802
928.901	12681
929.007	12559
929.112	12662
929.218	12467
929.323	12559
929.428	12502
929.533	12677
929.638	12460
929.743	12479
929.848	12517
929.953	12475
930.058	12414
930.163	12159
930.267	12175
930.372	12262
930.477	12136
930.581	12353
930.685	12133
930.79	12053
930.894	12155
930.998	11950
931.103	12194
931.207	11805
931.311	11832
931.415	11627
931.519	11436
931.623	11425
