Data from test_V78500241_1944.txt Node
Date: Fri Mar 25 15:55:16 CST 2022
User: usil
Spectrometer: V785-0024
Trigger mode: 0
Integration Time (sec): 4.000000E-1
Scans to average: 1
Nonlinearity correction enabled: false
Boxcar width: 0
Storing dark spectrum: false
XAxis mode: Wavelengths
Number of Pixels in Spectrum: 1024
>>>>>Begin Spectral Data<<<<<
801.071	28733
801.214	28603
801.356	28489
801.499	28554
801.641	28333
801.783	28375
801.926	28443
802.068	28386
802.211	28139
802.353	28223
802.496	27926
802.638	28036
802.78	28101
802.923	28196
803.065	27972
803.208	28036
803.35	28139
803.492	28211
803.635	28401
803.777	28200
803.919	28337
804.061	28618
804.204	28150
804.346	28200
804.488	28173
804.63	28314
804.773	28219
804.915	28291
805.057	28455
805.199	28261
805.341	28337
805.483	28611
805.626	28512
805.768	28382
805.91	28542
806.052	28557
806.194	28386
806.336	28641
806.478	28538
806.62	28607
806.762	28554
806.904	28744
807.046	29022
807.188	28881
807.33	28946
807.472	28961
807.614	28972
807.756	28957
807.898	28953
808.04	28729
808.182	28580
808.324	28793
808.465	28869
808.607	29105
808.749	29181
808.891	29292
809.033	29360
809.174	29204
809.316	29200
809.458	29284
809.6	29098
809.741	29292
809.883	29318
810.025	29455
810.166	29535
810.308	29467
810.45	29280
810.591	29406
810.733	29071
810.875	29132
811.016	29117
811.158	29022
811.299	29200
811.441	29360
811.582	29337
811.724	29181
811.865	29212
812.007	29250
812.148	29200
812.29	29280
812.431	29383
812.573	29482
812.714	29634
812.855	29691
812.997	29965
813.138	29984
813.279	29840
813.421	29733
813.562	29653
813.703	29509
813.845	29455
813.986	29151
814.127	28942
814.268	28930
814.41	28965
814.551	28835
814.692	28900
814.833	28976
814.974	28873
815.115	28991
815.256	28824
815.397	28816
815.539	28896
815.68	28790
815.821	28622
815.962	28725
816.103	28710
816.244	28592
816.385	28485
816.526	28398
816.666	28314
816.807	28154
816.948	28207
817.089	28466
817.23	28306
817.371	28230
817.512	28181
817.653	28280
817.793	28207
817.934	28116
818.075	28287
818.216	28169
818.356	28097
818.497	28090
818.638	27857
818.778	27991
818.919	27941
819.06	28105
819.2	28185
819.341	28382
819.481	28215
819.622	28398
819.762	28599
819.903	28360
820.043	28268
820.184	28299
820.324	28409
820.465	28466
820.605	28398
820.746	28325
820.886	28234
821.026	28303
821.167	28341
821.307	28314
821.447	28120
821.588	28249
821.728	28059
821.868	27819
822.008	27831
822.149	27614
822.289	27606
822.429	27370
822.569	27264
822.709	27469
822.849	27180
822.99	27325
823.13	27116
823.27	27237
823.41	27096
823.55	26914
823.69	27028
823.83	27100
823.97	26990
824.11	26716
824.25	26811
824.389	26857
824.529	26864
824.669	26853
824.809	26940
824.949	26819
825.089	27024
825.228	26982
825.368	26804
825.508	26712
825.648	26758
825.787	26800
825.927	26781
826.067	26758
826.206	26807
826.346	26727
826.485	26826
826.625	26838
826.765	26906
826.904	26682
827.044	26476
827.183	26434
827.323	26473
827.462	26461
827.601	26511
827.741	26450
827.88	26457
828.02	26370
828.159	26381
828.298	26537
828.437	26461
828.577	26358
828.716	26526
828.855	26271
828.994	26271
829.134	26122
829.273	26183
829.412	26187
829.551	26161
829.69	26142
829.829	26233
829.968	26111
830.107	26164
830.246	26248
830.385	26107
830.524	25986
830.663	25986
830.802	25871
830.941	25799
831.08	25670
831.219	25734
831.357	25917
831.496	25982
831.635	25746
831.774	25628
831.913	25552
832.051	25578
832.19	25601
832.329	25609
832.467	25369
832.606	25282
832.744	25335
832.883	25464
833.022	25274
833.16	25331
833.299	25514
833.437	25544
833.576	25445
833.714	25453
833.852	25479
833.991	25487
834.129	25616
834.267	25502
834.406	25502
834.544	25495
834.682	25544
834.821	25510
834.959	25537
835.097	25422
835.235	25540
835.373	25540
835.511	25449
835.65	25179
835.788	25335
835.926	25034
836.064	25194
836.202	25251
836.34	25304
836.478	25327
836.615	25339
836.753	25240
836.891	25255
837.029	25297
837.167	25240
837.305	25133
837.443	25244
837.58	25061
837.718	25156
837.856	25160
837.993	25118
838.131	25012
838.269	25084
838.406	24939
838.544	24886
838.681	24798
838.819	24772
838.956	24650
839.094	24486
839.231	24597
839.369	24814
839.506	24939
839.643	24859
839.781	24475
839.918	24540
840.055	24612
840.193	24612
840.33	24486
840.467	24517
840.604	24513
840.742	24738
840.879	24376
841.016	24471
841.153	24292
841.29	24597
841.427	24429
841.564	24570
841.701	24445
841.838	24536
841.975	24418
842.112	24391
842.249	24296
842.385	24148
842.522	24570
842.659	24201
842.796	24270
842.933	24357
843.069	24136
843.206	24136
843.343	24399
843.479	24277
843.616	24190
843.752	24007
843.889	23946
844.025	24125
844.162	23984
844.298	24106
844.435	24015
844.571	23935
844.708	24076
844.844	24091
844.98	24117
845.117	24007
845.253	24007
845.389	23767
845.525	23866
845.661	23927
845.798	23676
845.934	23824
846.07	23748
846.206	23775
846.342	23984
846.478	23585
846.614	23589
846.75	23337
846.886	23448
847.022	23417
847.158	23516
847.294	23398
847.429	23551
847.565	23410
847.701	23729
847.837	23174
847.972	23109
848.108	23311
848.244	23258
848.379	23117
848.515	23132
848.65	23071
848.786	23037
848.921	23056
849.057	23258
849.192	23044
849.328	23102
849.463	23022
849.598	22858
849.734	23060
849.869	22991
850.004	22858
850.14	22828
850.275	22767
850.41	22733
850.545	22729
850.68	22698
850.815	22831
850.95	22717
851.085	22995
851.22	22862
851.355	22858
851.49	22904
851.625	22691
851.76	22816
851.895	22839
852.03	22691
852.165	22774
852.299	22831
852.434	22877
852.569	22900
852.703	22660
852.838	22843
852.973	22866
853.107	23006
853.242	22683
853.376	22649
853.511	22497
853.645	22668
853.78	22733
853.914	22687
854.048	22736
854.183	22580
854.317	22603
854.451	22805
854.585	22577
854.72	22607
854.854	22611
854.988	22550
855.122	22649
855.256	22466
855.39	22603
855.524	22782
855.658	22634
855.792	22694
855.926	22687
856.06	22615
856.194	22759
856.327	22679
856.461	22580
856.595	22500
856.729	22691
856.862	22702
856.996	22679
857.13	22687
857.263	22740
857.397	22717
857.53	22679
857.664	22816
857.797	22736
857.931	22831
858.064	22645
858.197	22725
858.331	22630
858.464	22580
858.597	22592
858.731	22527
858.864	22557
858.997	22550
859.13	22653
859.263	22626
859.396	22698
859.529	22584
859.662	22493
859.795	22550
859.928	22653
860.061	22782
860.194	22847
860.327	22634
860.46	22565
860.592	22611
860.725	22710
860.858	22660
860.99	22569
861.123	22546
861.256	22516
861.388	22516
861.521	23425
861.653	22466
861.786	22531
861.918	22352
862.05	22398
862.183	22603
862.315	22523
862.447	22596
862.58	22577
862.712	22360
862.844	22356
862.976	22363
863.108	22382
863.24	22801
863.372	22287
863.504	22333
863.636	22280
863.768	22382
863.9	22188
864.032	22097
864.164	22329
864.296	22352
864.428	22565
864.559	22424
864.691	22344
864.823	22314
864.954	22341
865.086	22284
865.217	22192
865.349	22177
865.48	22135
865.612	22200
865.743	22322
865.875	22242
866.006	22257
866.137	22196
866.269	22238
866.4	22154
866.531	22147
866.662	22086
866.793	22021
866.924	22063
867.055	22154
867.186	22124
867.317	22109
867.448	22040
867.579	22154
867.71	22025
867.841	22090
867.972	22223
868.103	22070
868.233	22109
868.364	22177
868.495	22284
868.625	22325
868.756	22512
868.886	22211
869.017	22421
869.147	22466
869.278	22527
869.408	22485
869.539	22474
869.669	22390
869.799	22348
869.929	22527
870.06	22478
870.19	22664
870.32	22752
870.45	22622
870.58	22694
870.71	22843
870.84	22812
870.97	22725
871.1	22668
871.23	22987
871.36	22892
871.489	22763
871.619	22999
871.749	22934
871.879	23006
872.008	23029
872.138	22919
872.267	23014
872.397	22828
872.526	22820
872.656	22873
872.785	22649
872.915	23044
873.044	23029
873.173	22961
873.303	23064
873.432	23014
873.561	23052
873.69	23083
873.819	23064
873.948	23075
874.077	22987
874.206	22987
874.335	23022
874.464	23235
874.593	23124
874.722	23178
874.851	23246
874.979	23242
875.108	23212
875.237	23174
875.365	23136
875.494	23143
875.623	23200
875.751	23216
875.88	23292
876.008	23296
876.136	23307
876.265	23535
876.393	23630
876.521	23733
876.65	23638
876.778	23516
876.906	23619
877.034	23509
877.162	23596
877.29	23478
877.418	23493
877.546	23482
877.674	23482
877.802	23467
877.93	23501
878.058	23478
878.185	23452
878.313	23402
878.441	23585
878.568	23284
878.696	23463
878.824	23482
878.951	23611
879.079	23760
879.206	23691
879.333	23726
879.461	23471
879.588	23745
879.715	23707
879.842	23794
879.97	23729
880.097	23448
880.224	23414
880.351	23296
880.478	23330
880.605	23395
880.732	23296
880.859	23524
880.986	23337
881.112	23406
881.239	23193
881.366	23029
881.493	23033
881.619	22987
881.746	22927
881.872	22968
881.999	22824
882.125	22850
882.252	22968
882.378	22869
882.505	22999
882.631	22824
882.757	22531
882.883	22736
883.01	22611
883.136	22561
883.262	22451
883.388	22413
883.514	22485
883.64	22573
883.766	22462
883.892	22166
884.018	22424
884.143	22531
884.269	22542
884.395	22314
884.52	22276
884.646	22268
884.772	22150
884.897	22105
885.023	22344
885.148	22314
885.274	22386
885.399	22268
885.524	22249
885.65	22223
885.775	22318
885.9	22257
886.025	22386
886.15	22242
886.275	22166
886.4	22078
886.525	22135
886.65	22154
886.775	22112
886.9	22166
887.025	22363
887.149	22238
887.274	21991
887.399	21975
887.523	22006
887.648	21941
887.773	21873
887.897	22059
888.021	22051
888.146	21987
888.27	22048
888.395	22059
888.519	22067
888.643	22025
888.767	22078
888.891	21861
889.015	21770
889.139	21918
889.263	21724
889.387	21842
889.511	22093
889.635	21861
889.759	21728
889.883	21671
890.006	21884
890.13	21838
890.254	21732
890.377	21778
890.501	21485
890.624	21545
890.748	21564
890.871	21420
890.995	21389
891.118	21233
891.241	21401
891.364	21420
891.488	21405
891.611	21393
891.734	21359
891.857	21424
891.98	21428
892.103	21260
892.226	21157
892.349	21245
892.471	21104
892.594	21195
892.717	21294
892.839	21165
892.962	21222
893.085	21256
893.207	21138
893.33	21024
893.452	21123
893.575	21207
893.697	21157
893.819	21370
893.941	21504
894.064	21428
894.186	21252
894.308	21154
894.43	21199
894.552	21294
894.674	21188
894.796	21036
894.918	21195
895.04	21233
895.161	21173
895.283	21203
895.405	21066
895.526	21176
895.648	21062
895.769	21135
895.891	21131
896.012	21211
896.134	21245
896.255	21214
896.376	21211
896.498	21085
896.619	21260
896.74	21169
896.861	21161
896.982	21340
897.103	21557
897.224	21473
897.345	21443
897.466	21222
897.587	21306
897.708	21568
897.828	21424
897.949	21321
898.07	21180
898.19	21287
898.311	21405
898.431	21249
898.552	21378
898.672	21386
898.792	21416
898.913	21439
899.033	21241
899.153	21233
899.273	21020
899.393	21100
899.513	21157
899.633	21036
899.753	21085
899.873	21070
899.993	21207
900.113	20990
900.232	20998
900.352	20941
900.472	20933
900.591	20944
900.711	20902
900.83	20868
900.95	20971
901.069	20960
901.189	20800
901.308	20644
901.427	20568
901.546	20400
901.665	20366
901.784	20568
901.904	20240
902.023	20176
902.141	20050
902.26	19932
902.379	20012
902.498	19909
902.617	19826
902.735	19936
902.854	19959
902.973	19887
903.091	19624
903.21	19582
903.328	19609
903.446	19422
903.565	19373
903.683	19537
903.801	19468
903.919	19278
904.038	19331
904.156	19088
904.274	19232
904.392	19145
904.51	19091
904.627	19145
904.745	19179
904.863	19228
904.981	18947
905.098	18859
905.216	18745
905.334	18840
905.451	18882
905.569	18772
905.686	18795
905.803	18848
905.921	18616
906.038	18764
906.155	18585
906.272	18608
906.389	18513
906.506	18399
906.623	18372
906.74	18323
906.857	18205
906.974	18209
907.091	18426
907.208	18433
907.324	18479
907.441	18220
907.557	18095
907.674	18034
907.79	17958
907.907	18041
908.023	18038
908.139	17973
908.256	17961
908.372	17996
908.488	17832
908.604	17790
908.72	17809
908.836	17741
908.952	17718
909.068	17836
909.184	17832
909.3	17661
909.415	17707
909.531	17748
909.647	17452
909.762	17490
909.878	17395
909.993	17512
910.108	17376
910.224	17558
910.339	17440
910.454	17299
910.57	17117
910.685	17231
910.8	17520
910.915	17433
911.03	17227
911.145	17067
911.259	17105
911.374	17010
911.489	16987
911.604	16938
911.718	16778
911.833	16797
911.947	16660
912.062	16656
912.176	16809
912.291	16847
912.405	16679
912.519	17006
912.633	16972
912.748	16797
912.862	16850
912.976	16554
913.09	16440
913.204	16554
913.318	16516
913.431	16710
913.545	16675
913.659	16618
913.772	16508
913.886	16440
914	16306
914.113	16409
914.226	16455
914.34	16421
914.453	16249
914.566	16253
914.68	16253
914.793	16238
914.906	16032
915.019	16010
915.132	15945
915.245	16006
915.358	16036
915.47	15895
915.583	15892
915.696	15964
915.809	16067
915.921	16086
916.034	15812
916.146	15808
916.259	15785
916.371	15922
916.483	15918
916.595	15759
916.708	15701
916.82	15762
916.932	15694
917.044	15671
917.156	15660
917.268	15534
917.38	15637
917.491	15469
917.603	15530
917.715	15660
917.826	15679
917.938	15420
918.049	15359
918.161	15595
918.272	15667
918.384	15599
918.495	15549
918.606	15386
918.717	15245
918.828	15336
918.939	15302
919.05	15199
919.161	15264
919.272	15188
919.383	15100
919.494	15310
919.604	15545
919.715	15397
919.826	15222
919.936	15195
920.047	15332
920.157	15131
920.267	15492
920.378	15230
920.488	15199
920.598	15435
920.708	15477
920.818	15321
920.928	15389
921.038	15553
921.148	15591
921.258	15176
921.368	15074
921.477	15097
921.587	14979
921.697	14811
921.806	14971
921.916	14868
922.025	14705
922.134	14537
922.244	14610
922.353	14632
922.462	14366
922.571	14476
922.68	14290
922.789	14252
922.898	14282
923.007	14149
923.116	14427
923.224	14244
923.333	14256
923.442	14092
923.55	14008
923.659	14100
923.767	14126
923.876	14065
923.984	14050
924.092	13959
924.201	13944
924.309	13944
924.417	13970
924.525	13898
924.633	13974
924.741	14743
924.849	13677
924.956	13841
925.064	13742
925.172	13609
925.279	13670
925.387	13624
925.494	13567
925.602	13776
925.709	13715
925.816	13521
925.924	13533
926.031	13651
926.138	13529
926.245	13563
926.352	13457
926.459	13582
926.566	13655
926.673	13430
926.779	13346
926.886	13266
926.993	13152
927.099	13255
927.206	13114
927.312	13034
927.419	13232
927.525	13183
927.631	13168
927.737	13023
927.843	13046
927.95	12802
928.056	12996
928.162	13015
928.267	13023
928.373	13647
928.479	13000
928.585	12848
928.69	12920
928.796	12928
928.901	12837
929.007	12669
929.112	12802
929.218	12764
929.323	12783
929.428	12741
929.533	12764
929.638	12517
929.743	12616
929.848	12604
929.953	12639
930.058	12502
930.163	12323
930.267	12285
930.372	12494
930.477	12350
930.581	12574
930.685	12418
930.79	12323
930.894	12220
930.998	12155
931.103	12372
931.207	12007
931.311	11866
931.415	11771
931.519	11589
931.623	11535
