Data from test_V78500241_884.txt Node
Date: Fri Mar 25 15:47:55 CST 2022
User: usil
Spectrometer: V785-0024
Trigger mode: 0
Integration Time (sec): 4.000000E-1
Scans to average: 1
Nonlinearity correction enabled: false
Boxcar width: 0
Storing dark spectrum: false
XAxis mode: Wavelengths
Number of Pixels in Spectrum: 1024
>>>>>Begin Spectral Data<<<<<
801.071	28284
801.214	28185
801.356	27755
801.499	27743
801.641	27701
801.783	27751
801.926	27762
802.068	27816
802.211	27614
802.353	27534
802.496	27481
802.638	27431
802.78	27534
802.923	27500
803.065	27435
803.208	27302
803.35	27329
803.492	27538
803.635	27625
803.777	27485
803.919	27644
804.061	27941
804.204	27530
804.346	27603
804.488	27500
804.63	27580
804.773	27618
804.915	27591
805.057	27705
805.199	27625
805.341	27762
805.483	27812
805.626	27732
805.768	27694
805.91	27808
806.052	27717
806.194	27766
806.336	27907
806.478	27930
806.62	27705
806.762	27892
806.904	28101
807.046	28344
807.188	28253
807.33	28310
807.472	28223
807.614	28154
807.756	28166
807.898	28207
808.04	28086
808.182	28021
808.324	28082
808.465	28109
808.607	28291
808.749	28432
808.891	28478
809.033	28603
809.174	28508
809.316	28344
809.458	28493
809.6	28417
809.741	28577
809.883	28485
810.025	28847
810.166	28656
810.308	28793
810.45	28717
810.591	28679
810.733	28512
810.875	28405
811.016	28413
811.158	28470
811.299	28455
811.441	28618
811.582	28603
811.724	28421
811.865	28470
812.007	28493
812.148	28538
812.29	28413
812.431	28542
812.573	28774
812.714	28717
812.855	28953
812.997	29048
813.138	29113
813.279	29075
813.421	28915
813.562	28930
813.703	28786
813.845	28653
813.986	28265
814.127	28143
814.268	28181
814.41	28093
814.551	28154
814.692	28242
814.833	28143
814.974	28101
815.115	28188
815.256	28093
815.397	27964
815.539	27941
815.68	27861
815.821	27876
815.962	27979
816.103	27930
816.244	27846
816.385	27797
816.526	27660
816.666	27561
816.807	27420
816.948	27656
817.089	27595
817.23	27568
817.371	27447
817.512	27351
817.653	27534
817.793	27481
817.934	27530
818.075	27397
818.216	27553
818.356	27420
818.497	27405
818.638	27074
818.778	27161
818.919	27302
819.06	27222
819.2	27298
819.341	27431
819.481	27389
819.622	27599
819.762	27842
819.903	27652
820.043	27618
820.184	27618
820.324	27542
820.465	27500
820.605	27762
820.746	27739
820.886	27477
821.026	27705
821.167	27511
821.307	27705
821.447	27500
821.588	27511
821.728	27249
821.868	27188
822.008	26891
822.149	26963
822.289	26944
822.429	26697
822.569	26583
822.709	26727
822.849	26457
822.99	26613
823.13	26514
823.27	26457
823.41	26180
823.55	26290
823.69	26320
823.83	26400
823.97	26164
824.11	26107
824.25	26012
824.389	26134
824.529	26233
824.669	26031
824.809	26157
824.949	26195
825.089	26332
825.228	26058
825.368	26039
825.508	25940
825.648	25906
825.787	25951
825.927	25928
826.067	25890
826.206	25989
826.346	26077
826.485	26084
826.625	26024
826.765	26168
826.904	26050
827.044	25780
827.183	25753
827.323	25647
827.462	25628
827.601	25624
827.741	25647
827.88	25712
828.02	25533
828.159	25681
828.298	25769
828.437	25734
828.577	25567
828.716	25811
828.855	25613
828.994	25415
829.134	25365
829.273	25392
829.412	25335
829.551	25457
829.69	25453
829.829	25289
829.968	25529
830.107	25392
830.246	25228
830.385	25331
830.524	25285
830.663	25148
830.802	25156
830.941	24970
831.08	24989
831.219	25091
831.357	24973
831.496	25114
831.635	24932
831.774	24897
831.913	24947
832.051	24859
832.19	24783
832.329	24810
832.467	24783
832.606	24544
832.744	24673
832.883	24608
833.022	24597
833.16	24711
833.299	24681
833.437	24772
833.576	24798
833.714	24867
833.852	24726
833.991	24700
834.129	24719
834.267	24795
834.406	24650
834.544	24749
834.682	24779
834.821	24745
834.959	24966
835.097	24700
835.235	24840
835.373	24665
835.511	24734
835.65	24452
835.788	24540
835.926	24566
836.064	24426
836.202	24350
836.34	24585
836.478	24661
836.615	24540
836.753	24467
836.891	24658
837.029	24547
837.167	24498
837.305	24437
837.443	24410
837.58	24308
837.718	24551
837.856	24399
837.993	24308
838.131	24365
838.269	24239
838.406	24152
838.544	24304
838.681	24041
838.819	23977
838.956	23874
839.094	23824
839.231	23923
839.369	24083
839.506	24369
839.643	24049
839.781	23874
839.918	23935
840.055	23764
840.193	23729
840.33	23760
840.467	23764
840.604	23946
840.742	24106
840.879	23672
841.016	23771
841.153	23577
841.29	23874
841.427	23745
841.564	23764
841.701	23714
841.838	23687
841.975	23687
842.112	23703
842.249	23623
842.385	23627
842.522	23748
842.659	23589
842.796	23520
842.933	23474
843.069	23467
843.206	23402
843.343	23516
843.479	23452
843.616	23524
843.752	23246
843.889	23337
844.025	23391
844.162	23280
844.298	23269
844.435	23307
844.571	23273
844.708	23330
844.844	23372
844.98	23318
845.117	23368
845.253	23185
845.389	23288
845.525	23204
845.661	23189
845.798	23052
845.934	22991
846.07	22991
846.206	23117
846.342	23083
846.478	22908
846.614	22869
846.75	22607
846.886	22710
847.022	22862
847.158	22801
847.294	22694
847.429	22710
847.565	22668
847.701	22999
847.837	22485
847.972	22390
848.108	22588
848.244	22607
848.379	22318
848.515	22348
848.65	22428
848.786	22405
848.921	22421
849.057	22481
849.192	22318
849.328	22329
849.463	22322
849.598	22185
849.734	22234
849.869	22173
850.004	22192
850.14	22131
850.275	22063
850.41	21968
850.545	22112
850.68	22063
850.815	22215
850.95	22017
851.085	22287
851.22	22196
851.355	22143
851.49	22173
851.625	22078
851.76	22070
851.895	22059
852.03	21945
852.165	22082
852.299	22200
852.434	22131
852.569	22177
852.703	22143
852.838	22120
852.973	22303
853.107	22253
853.242	22078
853.376	21964
853.511	21895
853.645	21979
853.78	22070
853.914	22044
854.048	22002
854.183	21892
854.317	22006
854.451	22059
854.585	21861
854.72	21895
854.854	21972
854.988	21709
855.122	21960
855.256	21739
855.39	21819
855.524	21968
855.658	22006
855.792	21949
855.926	21911
856.06	21991
856.194	22025
856.327	21994
856.461	21831
856.595	21960
856.729	21922
856.862	22070
856.996	22063
857.13	21968
857.263	21941
857.397	21968
857.53	21960
857.664	21953
857.797	21983
857.931	22051
858.064	21968
858.197	22048
858.331	21876
858.464	21797
858.597	21911
858.731	21934
858.864	21884
858.997	21960
859.13	21926
859.263	21964
859.396	22067
859.529	21915
859.662	21755
859.795	21953
859.928	21949
860.061	21960
860.194	22154
860.327	21975
860.46	21926
860.592	22131
860.725	22131
860.858	22070
860.99	21998
861.123	21979
861.256	21880
861.388	21926
861.521	22538
861.653	21827
861.786	21709
861.918	21774
862.05	21755
862.183	21747
862.315	21899
862.447	21915
862.58	21816
862.712	21679
862.844	21553
862.976	21656
863.108	21682
863.24	22067
863.372	21568
863.504	21660
863.636	21751
863.768	21625
863.9	21637
864.032	21561
864.164	21511
864.296	21591
864.428	21633
864.559	21793
864.691	21720
864.823	21637
864.954	21656
865.086	21618
865.217	21542
865.349	21412
865.48	21523
865.612	21572
865.743	21618
865.875	21599
866.006	21439
866.137	21488
866.269	21466
866.4	21504
866.531	21534
866.662	21408
866.793	21428
866.924	21473
867.055	21580
867.186	21549
867.317	21485
867.448	21424
867.579	21408
867.71	21401
867.841	21370
867.972	21466
868.103	21542
868.233	21450
868.364	21473
868.495	21519
868.625	21736
868.756	21918
868.886	21633
869.017	21739
869.147	21641
869.278	21778
869.408	21778
869.539	21732
869.669	21720
869.799	21717
869.929	21857
870.06	21797
870.19	21987
870.32	21876
870.45	22021
870.58	22013
870.71	22188
870.84	22276
870.97	22059
871.1	22082
871.23	22200
871.36	22272
871.489	22131
871.619	22215
871.749	22276
871.879	22287
872.008	22375
872.138	22352
872.267	22322
872.397	22002
872.526	22139
872.656	22055
872.785	22181
872.915	22284
873.044	22466
873.173	22390
873.303	22318
873.432	22481
873.561	22455
873.69	22512
873.819	22215
873.948	22306
874.077	22219
874.206	22242
874.335	22371
874.464	22375
874.593	22523
874.722	22432
874.851	22713
874.979	22504
875.108	22607
875.237	22432
875.365	22363
875.494	22455
875.623	22664
875.751	22512
875.88	22588
876.008	22790
876.136	22710
876.265	22934
876.393	22987
876.521	22911
876.65	22938
876.778	23041
876.906	22835
877.034	22866
877.162	22965
877.29	22824
877.418	22885
877.546	22786
877.674	22782
877.802	22854
877.93	22866
878.058	22965
878.185	22672
878.313	22797
878.441	23018
878.568	22706
878.696	22801
878.824	22885
878.951	22919
879.079	22980
879.206	23143
879.333	23071
879.461	22965
879.588	23056
879.715	22991
879.842	23223
879.97	22965
880.097	22759
880.224	22618
880.351	22596
880.478	22763
880.605	22611
880.732	22691
880.859	23064
880.986	22702
881.112	22630
881.239	22516
881.366	22379
881.493	22402
881.619	22287
881.746	22413
881.872	22303
881.999	22310
882.125	22230
882.252	22139
882.378	22299
882.505	22322
882.631	22105
882.757	21915
882.883	22017
883.01	22105
883.136	21907
883.262	21827
883.388	21819
883.514	21930
883.64	21934
883.766	21865
883.892	21762
884.018	21713
884.143	21857
884.269	21975
884.395	21580
884.52	21690
884.646	21652
884.772	21564
884.897	21545
885.023	21622
885.148	21485
885.274	21713
885.399	21720
885.524	21492
885.65	21671
885.775	21637
885.9	21545
886.025	21713
886.15	21599
886.275	21462
886.4	21454
886.525	21504
886.65	21401
886.775	21599
886.9	21717
887.025	21861
887.149	21511
887.274	21469
887.399	21329
887.523	21359
887.648	21237
887.773	21256
887.897	21351
888.021	21351
888.146	21252
888.27	21393
888.395	21473
888.519	21428
888.643	21249
888.767	21367
888.891	21310
889.015	21230
889.139	21294
889.263	21047
889.387	21222
889.511	21336
889.635	21222
889.759	21108
889.883	21104
890.006	21100
890.13	21230
890.254	21005
890.377	21131
890.501	20918
890.624	20796
890.748	20910
890.871	20842
890.995	20739
891.118	20636
891.241	20773
891.364	20781
891.488	20739
891.611	20735
891.734	20689
891.857	20823
891.98	20804
892.103	20731
892.226	20765
892.349	20659
892.471	20339
892.594	20556
892.717	20659
892.839	20648
892.962	20746
893.085	20762
893.207	20594
893.33	20530
893.452	20476
893.575	20537
893.697	20511
893.819	20785
893.941	20788
894.064	20758
894.186	20598
894.308	20503
894.43	20708
894.552	20758
894.674	20648
894.796	20568
894.918	20735
895.04	20545
895.161	20644
895.283	20636
895.405	20473
895.526	20640
895.648	20545
895.769	20602
895.891	20545
896.012	20750
896.134	20689
896.255	20579
896.376	20507
896.498	20533
896.619	20659
896.74	20442
896.861	20568
896.982	20990
897.103	21169
897.224	20941
897.345	20720
897.466	20785
897.587	20777
897.708	20872
897.828	20777
897.949	20773
898.07	20632
898.19	20693
898.311	20773
898.431	20689
898.552	20781
898.672	20743
898.792	20815
898.913	20849
899.033	20731
899.153	20659
899.273	20480
899.393	20545
899.513	20667
899.633	20575
899.753	20648
899.873	20560
899.993	20514
900.113	20351
900.232	20549
900.352	20377
900.472	20450
900.591	20309
900.711	20404
900.83	20225
900.95	20328
901.069	20298
901.189	20058
901.308	19955
901.427	19906
901.546	19932
901.665	19799
901.784	19932
901.904	19776
902.023	19674
902.141	19472
902.26	19422
902.379	19464
902.498	19438
902.617	19304
902.735	19400
902.854	19316
902.973	19270
903.091	19019
903.21	18943
903.328	19103
903.446	18875
903.565	18909
903.683	18856
903.801	18700
903.919	18802
904.038	18783
904.156	18544
904.274	18707
904.392	18650
904.51	18441
904.627	18601
904.745	18692
904.863	18700
904.981	18456
905.098	18304
905.216	18228
905.334	18239
905.451	18220
905.569	18285
905.686	18266
905.803	18361
905.921	18106
906.038	18140
906.155	18003
906.272	17931
906.389	17942
906.506	17927
906.623	17882
906.74	17805
906.857	17611
906.974	17786
907.091	17817
907.208	17950
907.324	17984
907.441	17737
907.557	17535
907.674	17543
907.79	17520
907.907	17520
908.023	17649
908.139	17539
908.256	17490
908.372	17387
908.488	17497
908.604	17345
908.72	17284
908.836	17288
908.952	17193
909.068	17326
909.184	17414
909.3	17337
909.415	17273
909.531	17269
909.647	17014
909.762	16892
909.878	16828
909.993	16900
910.108	16892
910.224	16885
910.339	16908
910.454	16858
910.57	16736
910.685	16672
910.8	16930
910.915	16873
911.03	16694
911.145	16508
911.259	16596
911.374	16569
911.489	16519
911.604	16390
911.718	16291
911.833	16291
911.947	16158
912.062	16059
912.176	16253
912.291	16341
912.405	16295
912.519	16371
912.633	16428
912.748	16257
912.862	16230
912.976	16036
913.09	16021
913.204	16051
913.318	16071
913.431	16158
913.545	16204
913.659	16211
913.772	16051
913.886	16010
914	15804
914.113	15964
914.226	16032
914.34	15960
914.453	15797
914.566	15937
914.68	15838
914.793	15778
914.906	15530
915.019	15504
915.132	15523
915.245	15557
915.358	15450
915.47	15454
915.583	15500
915.696	15538
915.809	15675
915.921	15542
916.034	15382
916.146	15408
916.259	15382
916.371	15469
916.483	15412
916.595	15233
916.708	15321
916.82	15370
916.932	15268
917.044	15294
917.156	15207
917.268	15184
917.38	15062
917.491	15154
917.603	15108
917.715	15150
917.826	15173
917.938	15097
918.049	15013
918.161	15066
918.272	15173
918.384	15199
918.495	15024
918.606	14914
918.717	14727
918.828	14826
918.939	14998
919.05	14815
919.161	14891
919.272	14629
919.383	14811
919.494	14963
919.604	15093
919.715	14773
919.826	14670
919.936	14773
920.047	14891
920.157	14800
920.267	15146
920.378	14883
920.488	14765
920.598	15062
920.708	15188
920.818	15104
920.928	14910
921.038	14979
921.148	15066
921.258	14724
921.368	14640
921.477	14541
921.587	14629
921.697	14514
921.806	14560
921.916	14408
922.025	14351
922.134	14221
922.244	14107
922.353	14248
922.462	14115
922.571	13978
922.68	13849
922.789	13807
922.898	13940
923.007	13742
923.116	13970
923.224	13845
923.333	13868
923.442	13795
923.55	13628
923.659	13727
923.767	13704
923.876	13597
923.984	13685
924.092	13472
924.201	13636
924.309	13533
924.417	13628
924.525	13514
924.633	13563
924.741	14374
924.849	13316
924.956	13407
925.064	13228
925.172	13202
925.279	13209
925.387	13183
925.494	13263
925.602	13358
925.709	13324
925.816	13110
925.924	13247
926.031	13232
926.138	13198
926.245	13221
926.352	13019
926.459	13095
926.566	13263
926.673	13122
926.779	12989
926.886	12977
926.993	12867
927.099	12753
927.206	12798
927.312	12772
927.419	12844
927.525	12806
927.631	12779
927.737	12665
927.843	12654
927.95	12563
928.056	12601
928.162	12601
928.267	12623
928.373	13221
928.479	12623
928.585	12483
928.69	12566
928.796	12677
928.901	12441
929.007	12323
929.112	12410
929.218	12410
929.323	12353
929.428	12395
929.533	12467
929.638	12243
929.743	12330
929.848	12289
929.953	12334
930.058	12213
930.163	11988
930.267	12015
930.372	12144
930.477	12007
930.581	12235
930.685	12079
930.79	11901
930.894	11882
930.998	11832
931.103	12053
931.207	11619
931.311	11452
931.415	11421
931.519	11341
931.623	11242
