Data from test_V78500241_1305.txt Node
Date: Fri Mar 25 15:50:50 CST 2022
User: usil
Spectrometer: V785-0024
Trigger mode: 0
Integration Time (sec): 4.000000E-1
Scans to average: 1
Nonlinearity correction enabled: false
Boxcar width: 0
Storing dark spectrum: false
XAxis mode: Wavelengths
Number of Pixels in Spectrum: 1024
>>>>>Begin Spectral Data<<<<<
801.071	28672
801.214	28656
801.356	28470
801.499	28356
801.641	28181
801.783	28177
801.926	28265
802.068	28242
802.211	28147
802.353	27991
802.496	27972
802.638	27968
802.78	27869
802.923	27876
803.065	27732
803.208	27816
803.35	27861
803.492	27960
803.635	28116
803.777	27960
803.919	27979
804.061	28455
804.204	28131
804.346	27987
804.488	28006
804.63	28143
804.773	28048
804.915	28223
805.057	28382
805.199	28017
805.341	28265
805.483	28284
805.626	28299
805.768	28173
805.91	28223
806.052	28325
806.194	28268
806.336	28542
806.478	28341
806.62	28226
806.762	28424
806.904	28432
807.046	28831
807.188	28713
807.33	28687
807.472	28755
807.614	28622
807.756	28691
807.898	28637
808.04	28653
808.182	28573
808.324	28489
808.465	28561
808.607	28911
808.749	28987
808.891	29079
809.033	29250
809.174	29067
809.316	28896
809.458	28968
809.6	29064
809.741	29060
809.883	28961
810.025	29433
810.166	29356
810.308	29227
810.45	29353
810.591	29189
810.733	29003
810.875	28900
811.016	28790
811.158	28908
811.299	29136
811.441	29048
811.582	29136
811.724	28987
811.865	29014
812.007	28987
812.148	28980
812.29	29109
812.431	29098
812.573	29303
812.714	29372
812.855	29551
812.997	29600
813.138	29680
813.279	29619
813.421	29471
813.562	29581
813.703	29284
813.845	29193
813.986	28816
814.127	28801
814.268	28630
814.41	28759
814.551	28672
814.692	28786
814.833	28554
814.974	28641
815.115	28740
815.256	28538
815.397	28630
815.539	28649
815.68	28478
815.821	28470
815.962	28550
816.103	28637
816.244	28421
816.385	28268
816.526	28162
816.666	28147
816.807	28143
816.948	28093
817.089	28162
817.23	27937
817.371	28036
817.512	27941
817.653	27945
817.793	28021
817.934	28082
818.075	27998
818.216	28017
818.356	27941
818.497	27797
818.638	27789
818.778	27762
818.919	27914
819.06	27865
819.2	27903
819.341	28032
819.481	28112
819.622	28112
819.762	28306
819.903	28306
820.043	28093
820.184	28116
820.324	28067
820.465	28131
820.605	28101
820.746	28162
820.886	28051
821.026	28131
821.167	28093
821.307	28105
821.447	28051
821.588	27865
821.728	27998
821.868	27724
822.008	27523
822.149	27485
822.289	27675
822.429	27287
822.569	27218
822.709	27173
822.849	27020
822.99	27047
823.13	26819
823.27	26952
823.41	26811
823.55	26697
823.69	26880
823.83	26800
823.97	26705
824.11	26632
824.25	26587
824.389	26670
824.529	26716
824.669	26720
824.809	26705
824.949	26667
825.089	26720
825.228	26617
825.368	26518
825.508	26514
825.648	26640
825.787	26533
825.927	26549
826.067	26541
826.206	26629
826.346	26625
826.485	26556
826.625	26480
826.765	26625
826.904	26590
827.044	26362
827.183	26290
827.323	26161
827.462	26385
827.601	26366
827.741	26298
827.88	26355
828.02	26164
828.159	26290
828.298	26210
828.437	26370
828.577	26157
828.716	26343
828.855	26081
828.994	25864
829.134	25864
829.273	26058
829.412	25966
829.551	25879
829.69	25947
829.829	25936
829.968	26024
830.107	25963
830.246	25860
830.385	25799
830.524	25723
830.663	25635
830.802	25628
830.941	25403
831.08	25441
831.219	25696
831.357	25696
831.496	25769
831.635	25537
831.774	25411
831.913	25403
832.051	25304
832.19	25312
832.329	25266
832.467	25274
832.606	25289
832.744	25164
832.883	25190
833.022	25179
833.16	25270
833.299	25179
833.437	25324
833.576	25343
833.714	25217
833.852	25362
833.991	25388
834.129	25407
834.267	25369
834.406	25324
834.544	25430
834.682	25358
834.821	25194
834.959	25445
835.097	25304
835.235	25327
835.373	25289
835.511	25198
835.65	25046
835.788	25179
835.926	24989
836.064	24897
836.202	24844
836.34	25008
836.478	25179
836.615	25019
836.753	25133
836.891	25046
837.029	25053
837.167	25008
837.305	24958
837.443	24958
837.58	24932
837.718	24825
837.856	24947
837.993	24871
838.131	24947
838.269	24825
838.406	24760
838.544	24772
838.681	24555
838.819	24544
838.956	24563
839.094	24315
839.231	24525
839.369	24631
839.506	24779
839.643	24711
839.781	24426
839.918	24190
840.055	24418
840.193	24353
840.33	24201
840.467	24194
840.604	24369
840.742	24566
840.879	24346
841.016	24266
841.153	24266
841.29	24475
841.427	24262
841.564	24308
841.701	24270
841.838	24353
841.975	24091
842.112	24194
842.249	24079
842.385	24114
842.522	24251
842.659	24102
842.796	23999
842.933	23999
843.069	23999
843.206	23958
843.343	23885
843.479	24133
843.616	24060
843.752	23710
843.889	23843
844.025	24015
844.162	23752
844.298	23863
844.435	23859
844.571	23649
844.708	23904
844.844	23950
844.98	23969
845.117	23961
845.253	23851
845.389	23714
845.525	23741
845.661	23642
845.798	23573
845.934	23478
846.07	23551
846.206	23570
846.342	23615
846.478	23463
846.614	23410
846.75	23216
846.886	23280
847.022	23212
847.158	23280
847.294	23296
847.429	23223
847.565	23147
847.701	23383
847.837	23044
847.972	23025
848.108	23113
848.244	23067
848.379	22786
848.515	22866
848.65	22877
848.786	22847
848.921	22850
849.057	22892
849.192	23025
849.328	22934
849.463	22820
849.598	22885
849.734	22786
849.869	22740
850.004	22497
850.14	22603
850.275	22645
850.41	22519
850.545	22557
850.68	22523
850.815	22637
850.95	22489
851.085	22877
851.22	22771
851.355	22519
851.49	22588
851.625	22508
851.76	22565
851.895	22561
852.03	22573
852.165	22694
852.299	22694
852.434	22668
852.569	22615
852.703	22656
852.838	22630
852.973	22748
853.107	22653
853.242	22660
853.376	22375
853.511	22436
853.645	22284
853.78	22443
853.914	22394
854.048	22287
854.183	22386
854.317	22550
854.451	22618
854.585	22413
854.72	22402
854.854	22554
854.988	22268
855.122	22512
855.256	22265
855.39	22436
855.524	22436
855.658	22379
855.792	22451
855.926	22459
856.06	22516
856.194	22538
856.327	22443
856.461	22375
856.595	22390
856.729	22424
856.862	22596
856.996	22432
857.13	22451
857.263	22599
857.397	22436
857.53	22409
857.664	22413
857.797	22489
857.931	22557
858.064	22341
858.197	22702
858.331	22306
858.464	22356
858.597	22417
858.731	22356
858.864	22363
858.997	22238
859.13	22344
859.263	22409
859.396	22538
859.529	22367
859.662	22390
859.795	22337
859.928	22348
860.061	22493
860.194	22554
860.327	22440
860.46	22417
860.592	22588
860.725	22573
860.858	22565
860.99	22489
861.123	22276
861.256	22329
861.388	22443
861.521	23048
861.653	22337
861.786	22291
861.918	22265
862.05	22284
862.183	22386
862.315	22310
862.447	22417
862.58	22375
862.712	22169
862.844	22070
862.976	22234
863.108	22207
863.24	22489
863.372	22040
863.504	22093
863.636	22128
863.768	22219
863.9	22029
864.032	22010
864.164	22036
864.296	22109
864.428	22253
864.559	22185
864.691	22139
864.823	22181
864.954	22055
865.086	22169
865.217	22093
865.349	21850
865.48	22002
865.612	21998
865.743	22097
865.875	22025
866.006	21968
866.137	22097
866.269	21895
866.4	21964
866.531	21934
866.662	21998
866.793	21899
866.924	21949
867.055	21907
867.186	21994
867.317	21892
867.448	21819
867.579	21975
867.71	21812
867.841	21774
867.972	21854
868.103	21869
868.233	21899
868.364	21895
868.495	22093
868.625	22162
868.756	22272
868.886	22036
869.017	22207
869.147	22215
869.278	22333
869.408	22040
869.539	22074
869.669	22303
869.799	22230
869.929	22390
870.06	22291
870.19	22497
870.32	22497
870.45	22421
870.58	22550
870.71	22721
870.84	22580
870.97	22588
871.1	22596
871.23	22675
871.36	22748
871.489	22694
871.619	22767
871.749	22744
871.879	22752
872.008	22858
872.138	22755
872.267	22713
872.397	22668
872.526	22637
872.656	22588
872.785	22656
872.915	22755
873.044	22885
873.173	22641
873.303	22839
873.432	22763
873.561	22949
873.69	22873
873.819	22706
873.948	22904
874.077	22904
874.206	22740
874.335	22729
874.464	22934
874.593	23048
874.722	23136
874.851	23075
874.979	23067
875.108	22942
875.237	23010
875.365	22892
875.494	22911
875.623	23060
875.751	23048
875.88	23056
876.008	23162
876.136	23258
876.265	23364
876.393	23505
876.521	23516
876.65	23429
876.778	23391
876.906	23387
877.034	23227
877.162	23379
877.29	23258
877.418	23261
877.546	23497
877.674	23353
877.802	23288
877.93	23421
878.058	23261
878.185	23124
878.313	23356
878.441	23334
878.568	23159
878.696	23212
878.824	23337
878.951	23433
879.079	23490
879.206	23535
879.333	23505
879.461	23315
879.588	23356
879.715	23497
879.842	23581
879.97	23436
880.097	23189
880.224	23162
880.351	23372
880.478	23151
880.605	23098
880.732	23223
880.859	23372
880.986	23197
881.112	23121
881.239	23109
881.366	22828
881.493	22805
881.619	22774
881.746	22721
881.872	22675
881.999	22752
882.125	22565
882.252	22835
882.378	22607
882.505	22816
882.631	22565
882.757	22451
882.883	22428
883.01	22424
883.136	22268
883.262	22306
883.388	22261
883.514	22417
883.64	22451
883.766	22318
883.892	22181
884.018	22223
884.143	22333
884.269	22398
884.395	22120
884.52	22055
884.646	21991
884.772	21854
884.897	21884
885.023	22044
885.148	22158
885.274	22242
885.399	22070
885.524	21949
885.65	22029
885.775	22006
885.9	22029
886.025	22166
886.15	22207
886.275	21941
886.4	21991
886.525	22040
886.65	21972
886.775	21972
886.9	22120
887.025	22196
887.149	22006
887.274	21842
887.399	21854
887.523	21793
887.648	21770
887.773	21641
887.897	21861
888.021	21903
888.146	21762
888.27	21907
888.395	21842
888.519	21770
888.643	21698
888.767	21793
888.891	21819
889.015	21717
889.139	21637
889.263	21622
889.387	21667
889.511	21679
889.635	21698
889.759	21580
889.883	21557
890.006	21629
890.13	21614
890.254	21439
890.377	21519
890.501	21325
890.624	21218
890.748	21363
890.871	21119
890.995	21146
891.118	21013
891.241	21116
891.364	21096
891.488	21359
891.611	21062
891.734	21157
891.857	21188
891.98	20986
892.103	21176
892.226	21131
892.349	21074
892.471	20864
892.594	21123
892.717	21127
892.839	20952
892.962	21058
893.085	21184
893.207	21066
893.33	20849
893.452	21017
893.575	21135
893.697	21005
893.819	21203
893.941	21329
894.064	21043
894.186	21013
894.308	20921
894.43	21024
894.552	21192
894.674	21146
894.796	20986
894.918	20986
895.04	21036
895.161	21001
895.283	20937
895.405	20914
895.526	20990
895.648	20963
895.769	20891
895.891	21043
896.012	21055
896.134	21032
896.255	20960
896.376	21135
896.498	20979
896.619	20948
896.74	20967
896.861	20990
896.982	21268
897.103	21321
897.224	21272
897.345	21310
897.466	21252
897.587	21359
897.708	21302
897.828	21264
897.949	21199
898.07	21039
898.19	21135
898.311	21268
898.431	21131
898.552	21233
898.672	21199
898.792	21207
898.913	21222
899.033	21085
899.153	20986
899.273	20895
899.393	20906
899.513	20929
899.633	20937
899.753	21009
899.873	20918
899.993	20876
900.113	21013
900.232	20895
900.352	20925
900.472	20682
900.591	20663
900.711	20712
900.83	20670
900.95	20735
901.069	20842
901.189	20788
901.308	20362
901.427	20309
901.546	20248
901.665	20290
901.784	20271
901.904	20202
902.023	19986
902.141	19902
902.26	19860
902.379	19852
902.498	19734
902.617	19742
902.735	19822
902.854	19727
902.973	19761
903.091	19373
903.21	19369
903.328	19411
903.446	19388
903.565	19335
903.683	19228
903.801	19057
903.919	19198
904.038	19225
904.156	19076
904.274	19129
904.392	18981
904.51	18924
904.627	18878
904.745	19080
904.863	19072
904.981	18673
905.098	18555
905.216	18703
905.334	18726
905.451	18669
905.569	18661
905.686	18665
905.803	18715
905.921	18521
906.038	18608
906.155	18277
906.272	18384
906.389	18292
906.506	18323
906.623	18148
906.74	18194
906.857	18091
906.974	18076
907.091	18216
907.208	18292
907.324	18110
907.441	18076
907.557	17973
907.674	17912
907.79	17874
907.907	17813
908.023	17988
908.139	17790
908.256	17836
908.372	17771
908.488	17756
908.604	17562
908.72	17642
908.836	17630
908.952	17535
909.068	17539
909.184	17687
909.3	17661
909.415	17600
909.531	17573
909.647	17448
909.762	17315
909.878	17200
909.993	17242
910.108	17181
910.224	17254
910.339	17265
910.454	17143
910.57	17155
910.685	17006
910.8	17265
910.915	17174
911.03	17094
911.145	16850
911.259	16786
911.374	16809
911.489	16911
911.604	16713
911.718	16622
911.833	16675
911.947	16451
912.062	16356
912.176	16687
912.291	16641
912.405	16558
912.519	16923
912.633	16862
912.748	16596
912.862	16596
912.976	16432
913.09	16284
913.204	16436
913.318	16470
913.431	16500
913.545	16535
913.659	16584
913.772	16451
913.886	16268
914	16249
914.113	16276
914.226	16344
914.34	16249
914.453	16093
914.566	16200
914.68	16139
914.793	16086
914.906	15876
915.019	15854
915.132	15747
915.245	15747
915.358	15857
915.47	15774
915.583	15831
915.696	15930
915.809	15884
915.921	15979
916.034	15690
916.146	15732
916.259	15656
916.371	15816
916.483	15759
916.595	15736
916.708	15584
916.82	15656
916.932	15633
917.044	15660
917.156	15507
917.268	15450
917.38	15572
917.491	15443
917.603	15397
917.715	15500
917.826	15633
917.938	15408
918.049	15218
918.161	15450
918.272	15538
918.384	15610
918.495	15469
918.606	15252
918.717	15161
918.828	15233
918.939	15199
919.05	15058
919.161	15218
919.272	15051
919.383	15005
919.494	15230
919.604	15397
919.715	15192
919.826	15074
919.936	15157
920.047	15135
920.157	15112
920.267	15260
920.378	15279
920.488	15192
920.598	15378
920.708	15473
920.818	15351
920.928	15283
921.038	15428
921.148	15424
921.258	15161
921.368	14914
921.477	14773
921.587	14864
921.697	14762
921.806	14834
921.916	14769
922.025	14560
922.134	14476
922.244	14457
922.353	14533
922.462	14492
922.571	14278
922.68	14229
922.789	14119
922.898	14187
923.007	14035
923.116	14157
923.224	14225
923.333	14092
923.442	13993
923.55	13982
923.659	13940
923.767	14096
923.876	14001
923.984	13963
924.092	13776
924.201	13852
924.309	13959
924.417	14035
924.525	13845
924.633	13780
924.741	14731
924.849	13685
924.956	13719
925.064	13567
925.172	13510
925.279	13521
925.387	13700
925.494	13578
925.602	13620
925.709	13620
925.816	13400
925.924	13586
926.031	13537
926.138	13400
926.245	13567
926.352	13373
926.459	13506
926.566	13476
926.673	13392
926.779	13232
926.886	13301
926.993	13050
927.099	13118
927.206	13019
927.312	13072
927.419	13091
927.525	13133
927.631	12996
927.737	12871
927.843	12947
927.95	12875
928.056	12882
928.162	12878
928.267	12901
928.373	13506
928.479	12989
928.585	12802
928.69	12837
928.796	12882
928.901	12837
929.007	12585
929.112	12692
929.218	12669
929.323	12642
929.428	12700
929.533	12707
929.638	12490
929.743	12582
929.848	12502
929.953	12490
930.058	12448
930.163	12342
930.267	12289
930.372	12388
930.477	12254
930.581	12422
930.685	12281
930.79	12133
930.894	12266
930.998	12152
931.103	12289
931.207	11874
931.311	11824
931.415	11718
931.519	11638
931.623	11471
