Data from test_V78500241_1385.txt Node
Date: Fri Mar 25 15:51:23 CST 2022
User: usil
Spectrometer: V785-0024
Trigger mode: 0
Integration Time (sec): 4.000000E-1
Scans to average: 1
Nonlinearity correction enabled: false
Boxcar width: 0
Storing dark spectrum: false
XAxis mode: Wavelengths
Number of Pixels in Spectrum: 1024
>>>>>Begin Spectral Data<<<<<
801.071	27873
801.214	27846
801.356	27595
801.499	27606
801.641	27492
801.783	27473
801.926	27450
802.068	27325
802.211	27389
802.353	27302
802.496	27203
802.638	27245
802.78	27127
802.923	27047
803.065	27009
803.208	27005
803.35	27047
803.492	27245
803.635	27348
803.777	27100
803.919	27268
804.061	27580
804.204	27336
804.346	27157
804.488	27283
804.63	27435
804.773	27226
804.915	27378
805.057	27431
805.199	27348
805.341	27340
805.483	27447
805.626	27435
805.768	27386
805.91	27378
806.052	27504
806.194	27306
806.336	27496
806.478	27477
806.62	27557
806.762	27583
806.904	27854
807.046	27949
807.188	27914
807.33	27827
807.472	27941
807.614	27884
807.756	27797
807.898	27675
808.04	27751
808.182	27686
808.324	27857
808.465	27930
808.607	28013
808.749	28200
808.891	28139
809.033	28303
809.174	28139
809.316	28166
809.458	27979
809.6	27983
809.741	28112
809.883	28257
810.025	28390
810.166	28405
810.308	28390
810.45	28314
810.591	28280
810.733	28097
810.875	28101
811.016	28013
811.158	28067
811.299	28181
811.441	28226
811.582	28101
811.724	28044
811.865	28124
812.007	28074
812.148	28082
812.29	28158
812.431	28010
812.573	28363
812.714	28497
812.855	28679
812.997	28668
813.138	28862
813.279	28687
813.421	28516
813.562	28481
813.703	28371
813.845	28284
813.986	27998
814.127	27880
814.268	27816
814.41	27713
814.551	27724
814.692	27724
814.833	27717
814.974	27728
815.115	27732
815.256	27671
815.397	27686
815.539	27644
815.68	27603
815.821	27534
815.962	27637
816.103	27587
816.244	27443
816.385	27492
816.526	27260
816.666	27146
816.807	27062
816.948	27116
817.089	27154
817.23	27112
817.371	27081
817.512	26998
817.653	27047
817.793	27024
817.934	27081
818.075	27131
818.216	27135
818.356	27089
818.497	26864
818.638	26693
818.778	26815
818.919	26769
819.06	26868
819.2	26971
819.341	27157
819.481	27127
819.622	27184
819.762	27336
819.903	27249
820.043	27272
820.184	27005
820.324	27317
820.465	27188
820.605	27272
820.746	27142
820.886	27039
821.026	27249
821.167	27047
821.307	27142
821.447	27104
821.588	27036
821.728	26914
821.868	26716
822.008	26609
822.149	26602
822.289	26648
822.429	26195
822.569	26183
822.709	26195
822.849	26050
822.99	26054
823.13	26008
823.27	26024
823.41	25970
823.55	25757
823.69	25909
823.83	25944
823.97	25830
824.11	25677
824.25	25571
824.389	25662
824.529	25693
824.669	25704
824.809	25833
824.949	25811
825.089	25814
825.228	25731
825.368	25613
825.508	25559
825.648	25525
825.787	25411
825.927	25521
826.067	25499
826.206	25601
826.346	25552
826.485	25537
826.625	25586
826.765	25677
826.904	25647
827.044	25335
827.183	25339
827.323	25270
827.462	25312
827.601	25244
827.741	25251
827.88	25335
828.02	25126
828.159	25217
828.298	25221
828.437	25244
828.577	25289
828.716	25270
828.855	25194
828.994	25019
829.134	24916
829.273	24962
829.412	25015
829.551	24817
829.69	24951
829.829	25057
829.968	25103
830.107	25042
830.246	24970
830.385	24958
830.524	24913
830.663	24730
830.802	24608
830.941	24570
831.08	24479
831.219	24646
831.357	24642
831.496	24738
831.635	24589
831.774	24608
831.913	24494
832.051	24395
832.19	24369
832.329	24388
832.467	24209
832.606	24254
832.744	24148
832.883	24163
833.022	24281
833.16	24239
833.299	24315
833.437	24235
833.576	24353
833.714	24243
833.852	24365
833.991	24426
834.129	24388
834.267	24353
834.406	24311
834.544	24384
834.682	24277
834.821	24232
834.959	24456
835.097	24273
835.235	24380
835.373	24308
835.511	24277
835.65	24076
835.788	24091
835.926	24045
836.064	23988
836.202	23931
836.34	24220
836.478	24178
836.615	24038
836.753	24072
836.891	24102
837.029	24095
837.167	24068
837.305	24117
837.443	24018
837.58	23988
837.718	24007
837.856	24053
837.993	23908
838.131	23836
838.269	23912
838.406	23897
838.544	23741
838.681	23672
838.819	23547
838.956	23478
839.094	23577
839.231	23433
839.369	23627
839.506	23786
839.643	23699
839.781	23444
839.918	23330
840.055	23558
840.193	23376
840.33	23444
840.467	23376
840.604	23467
840.742	23634
840.879	23280
841.016	23204
841.153	23246
841.29	23391
841.427	23277
841.564	23337
841.701	23421
841.838	23269
841.975	23212
842.112	23200
842.249	23086
842.385	23025
842.522	23379
842.659	23231
842.796	23044
842.933	23174
843.069	23003
843.206	22980
843.343	23151
843.479	23018
843.616	23124
843.752	22930
843.889	22889
844.025	23102
844.162	22862
844.298	22869
844.435	23033
844.571	22881
844.708	22908
844.844	23075
844.98	23041
845.117	22904
845.253	22900
845.389	22782
845.525	22889
845.661	22660
845.798	22550
845.934	22668
846.07	22573
846.206	22691
846.342	22793
846.478	22668
846.614	22497
846.75	22299
846.886	22352
847.022	22386
847.158	22409
847.294	22371
847.429	22356
847.565	22246
847.701	22573
847.837	22078
847.972	22055
848.108	22120
848.244	22070
848.379	22135
848.515	22063
848.65	21956
848.786	21964
848.921	21941
849.057	22059
849.192	22032
849.328	22059
849.463	21816
849.598	21956
849.734	21812
849.869	21800
850.004	21698
850.14	21869
850.275	21663
850.41	21705
850.545	21534
850.68	21728
850.815	21755
850.95	21728
851.085	21857
851.22	21835
851.355	21701
851.49	21656
851.625	21686
851.76	21743
851.895	21720
852.03	21663
852.165	21667
852.299	21682
852.434	21800
852.569	21637
852.703	21686
852.838	21827
852.973	21698
853.107	21816
853.242	21762
853.376	21481
853.511	21462
853.645	21538
853.78	21496
853.914	21401
854.048	21599
854.183	21496
854.317	21622
854.451	21694
854.585	21504
854.72	21587
854.854	21690
854.988	21477
855.122	21526
855.256	21367
855.39	21534
855.524	21603
855.658	21545
855.792	21557
855.926	21610
856.06	21705
856.194	21739
856.327	21515
856.461	21485
856.595	21462
856.729	21603
856.862	21641
856.996	21534
857.13	21580
857.263	21679
857.397	21614
857.53	21466
857.664	21633
857.797	21652
857.931	21724
858.064	21637
858.197	21660
858.331	21538
858.464	21469
858.597	21500
858.731	21488
858.864	21431
858.997	21557
859.13	21469
859.263	21583
859.396	21599
859.529	21469
859.662	21408
859.795	21405
859.928	21572
860.061	21488
860.194	21713
860.327	21564
860.46	21523
860.592	21561
860.725	21644
860.858	21660
860.99	21591
861.123	21462
861.256	21542
861.388	21591
861.521	22192
861.653	21272
861.786	21283
861.918	21435
862.05	21264
862.183	21348
862.315	21466
862.447	21629
862.58	21401
862.712	21355
862.844	21310
862.976	21477
863.108	21351
863.24	21751
863.372	21199
863.504	21279
863.636	21127
863.768	21336
863.9	21317
864.032	21157
864.164	21260
864.296	21161
864.428	21329
864.559	21477
864.691	21291
864.823	21294
864.954	21222
865.086	21180
865.217	21066
865.349	20975
865.48	21180
865.612	21047
865.743	21211
865.875	21070
866.006	21192
866.137	21089
866.269	21135
866.4	21112
866.531	21074
866.662	21081
866.793	21135
866.924	21142
867.055	21093
867.186	21131
867.317	20990
867.448	21013
867.579	20979
867.71	21028
867.841	21036
867.972	21123
868.103	20952
868.233	21062
868.364	21100
868.495	21154
868.625	21252
868.756	21500
868.886	21298
869.017	21336
869.147	21458
869.278	21496
869.408	21367
869.539	21272
869.669	21477
869.799	21363
869.929	21447
870.06	21443
870.19	21682
870.32	21583
870.45	21549
870.58	21641
870.71	21808
870.84	21759
870.97	21720
871.1	21728
871.23	21873
871.36	21876
871.489	21774
871.619	21926
871.749	21922
871.879	21964
872.008	22063
872.138	21949
872.267	21895
872.397	21739
872.526	21660
872.656	21743
872.785	21739
872.915	21987
873.044	22017
873.173	22013
873.303	22044
873.432	21998
873.561	22116
873.69	22006
873.819	21884
873.948	22032
874.077	21804
874.206	21903
874.335	21854
874.464	22105
874.593	22215
874.722	22204
874.851	22219
874.979	22257
875.108	22196
875.237	22055
875.365	22032
875.494	22207
875.623	22139
875.751	22097
875.88	22177
876.008	22246
876.136	22325
876.265	22588
876.393	22634
876.521	22546
876.65	22668
876.778	22519
876.906	22500
877.034	22550
877.162	22599
877.29	22417
877.418	22470
877.546	22542
877.674	22538
877.802	22538
877.93	22519
878.058	22554
878.185	22390
878.313	22417
878.441	22508
878.568	22291
878.696	22447
878.824	22443
878.951	22500
879.079	22656
879.206	22805
879.333	22713
879.461	22493
879.588	22584
879.715	22668
879.842	22812
879.97	22664
880.097	22295
880.224	22329
880.351	22310
880.478	22447
880.605	22284
880.732	22242
880.859	22504
880.986	22284
881.112	22432
881.239	22204
881.366	22112
881.493	22025
881.619	21857
881.746	21842
881.872	21846
881.999	21789
882.125	21842
882.252	21892
882.378	21876
882.505	22002
882.631	21743
882.757	21599
882.883	21705
883.01	21637
883.136	21610
883.262	21401
883.388	21473
883.514	21545
883.64	21450
883.766	21625
883.892	21306
884.018	21386
884.143	21477
884.269	21564
884.395	21272
884.52	21146
884.646	21310
884.772	21135
884.897	21150
885.023	21291
885.148	21351
885.274	21386
885.399	21355
885.524	21241
885.65	21264
885.775	21222
885.9	21176
886.025	21340
886.15	21310
886.275	21123
886.4	21085
886.525	21127
886.65	21184
886.775	21085
886.9	21302
887.025	21370
887.149	21207
887.274	21017
887.399	21020
887.523	21028
887.648	20929
887.773	20792
887.897	21150
888.021	21085
888.146	20910
888.27	21074
888.395	21070
888.519	21020
888.643	21024
888.767	20986
888.891	20895
889.015	20769
889.139	20819
889.263	20823
889.387	20796
889.511	21032
889.635	20944
889.759	20823
889.883	20727
890.006	20834
890.13	20883
890.254	20629
890.377	20693
890.501	20609
890.624	20484
890.748	20594
890.871	20400
890.995	20336
891.118	20286
891.241	20351
891.364	20282
891.488	20454
891.611	20355
891.734	20473
891.857	20499
891.98	20351
892.103	20400
892.226	20320
892.349	20252
892.471	20168
892.594	20153
892.717	20313
892.839	20237
892.962	20252
893.085	20343
893.207	20259
893.33	20138
893.452	20206
893.575	20324
893.697	20202
893.819	20324
893.941	20526
894.064	20229
894.186	20195
894.308	20229
894.43	20381
894.552	20442
894.674	20385
894.796	20282
894.918	20233
895.04	20229
895.161	20301
895.283	20374
895.405	20164
895.526	20267
895.648	20278
895.769	20275
895.891	20393
896.012	20248
896.134	20301
896.255	20218
896.376	20271
896.498	20240
896.619	20107
896.74	20275
896.861	20271
896.982	20590
897.103	20705
897.224	20526
897.345	20541
897.466	20412
897.587	20583
897.708	20499
897.828	20560
897.949	20385
898.07	20282
898.19	20480
898.311	20632
898.431	20400
898.552	20518
898.672	20503
898.792	20507
898.913	20537
899.033	20370
899.153	20259
899.273	20210
899.393	20305
899.513	20191
899.633	20248
899.753	20214
899.873	20248
899.993	20305
900.113	20164
900.232	20263
900.352	20122
900.472	20092
900.591	20005
900.711	20187
900.83	19928
900.95	20012
901.069	20050
901.189	19826
901.308	19727
901.427	19613
901.546	19605
901.665	19635
901.784	19544
901.904	19483
902.023	19324
902.141	19126
902.26	19080
902.379	19198
902.498	19141
902.617	19099
902.735	19194
902.854	19057
902.973	19099
903.091	18787
903.21	18833
903.328	18802
903.446	18585
903.565	18544
903.683	18570
903.801	18410
903.919	18475
904.038	18498
904.156	18369
904.274	18369
904.392	18258
904.51	18369
904.627	18273
904.745	18441
904.863	18437
904.981	18140
905.098	18190
905.216	18019
905.334	18079
905.451	18079
905.569	18026
905.686	17984
905.803	17874
905.921	17786
906.038	18019
906.155	17817
906.272	17703
906.389	17748
906.506	17539
906.623	17558
906.74	17509
906.857	17501
906.974	17554
907.091	17604
907.208	17642
907.324	17562
907.441	17398
907.557	17326
907.674	17280
907.79	17284
907.907	17356
908.023	17261
908.139	17277
908.256	17159
908.372	17105
908.488	17083
908.604	16999
908.72	17022
908.836	16995
908.952	16915
909.068	17022
909.184	17140
909.3	17018
909.415	16976
909.531	16965
909.647	16713
909.762	16771
909.878	16698
909.993	16664
910.108	16679
910.224	16683
910.339	16645
910.454	16596
910.57	16470
910.685	16481
910.8	16763
910.915	16611
911.03	16554
911.145	16287
911.259	16287
911.374	16242
911.489	16139
911.604	16116
911.718	16055
911.833	16036
911.947	15930
912.062	15915
912.176	15998
912.291	15983
912.405	16048
912.519	16215
912.633	16204
912.748	16010
912.862	15907
912.976	15949
913.09	15713
913.204	15823
913.318	15915
913.431	15960
913.545	15937
913.659	15884
913.772	15690
913.886	15690
914	15671
914.113	15682
914.226	15804
914.34	15701
914.453	15545
914.566	15682
914.68	15542
914.793	15504
914.906	15355
915.019	15408
915.132	15123
915.245	15157
915.358	15348
915.47	15249
915.583	15233
915.696	15211
915.809	15329
915.921	15408
916.034	15169
916.146	15199
916.259	15047
916.371	15211
916.483	15169
916.595	15062
916.708	14979
916.82	15104
916.932	15043
917.044	15017
917.156	14876
917.268	14933
917.38	14864
917.491	14933
917.603	14937
917.715	14971
917.826	14921
917.938	14815
918.049	14682
918.161	14891
918.272	14986
918.384	14918
918.495	14872
918.606	14701
918.717	14610
918.828	14613
918.939	14674
919.05	14568
919.161	14613
919.272	14339
919.383	14404
919.494	14750
919.604	14830
919.715	14670
919.826	14533
919.936	14511
920.047	14689
920.157	14556
920.267	14792
920.378	14613
920.488	14488
920.598	14773
920.708	14887
920.818	14670
920.928	14686
921.038	14838
921.148	14929
921.258	14598
921.368	14514
921.477	14313
921.587	14320
921.697	14233
921.806	14374
921.916	14164
922.025	14069
922.134	14012
922.244	13963
922.353	13993
922.462	13894
922.571	13772
922.68	13655
922.789	13601
922.898	13677
923.007	13575
923.116	13685
923.224	13491
923.333	13601
923.442	13430
923.55	13460
923.659	13487
923.767	13556
923.876	13438
923.984	13510
924.092	13343
924.201	13362
924.309	13415
924.417	13293
924.525	13304
924.633	13270
924.741	14069
924.849	13221
924.956	13270
925.064	13076
925.172	13008
925.279	13057
925.387	12981
925.494	13076
925.602	13141
925.709	13107
925.816	12951
925.924	13057
926.031	12981
926.138	12939
926.245	13034
926.352	12897
926.459	13008
926.566	13084
926.673	12954
926.779	12772
926.886	12848
926.993	12696
927.099	12623
927.206	12597
927.312	12494
927.419	12597
927.525	12620
927.631	12566
927.737	12452
927.843	12380
927.95	12319
928.056	12391
928.162	12448
928.267	12429
928.373	13038
928.479	12467
928.585	12330
928.69	12372
928.796	12384
928.901	12327
929.007	12121
929.112	12319
929.218	12285
929.323	12171
929.428	12125
929.533	12232
929.638	12015
929.743	12167
929.848	12201
929.953	12045
930.058	11954
930.163	11767
930.267	11870
930.372	11942
930.477	11760
930.581	12003
930.685	11847
930.79	11707
930.894	11627
930.998	11676
931.103	11817
931.207	11372
931.311	11360
931.415	11269
931.519	11166
931.623	11079
