Data from test_V78500241_3257.txt Node
Date: Fri Mar 25 16:04:21 CST 2022
User: usil
Spectrometer: V785-0024
Trigger mode: 0
Integration Time (sec): 4.000000E-1
Scans to average: 1
Nonlinearity correction enabled: false
Boxcar width: 0
Storing dark spectrum: false
XAxis mode: Wavelengths
Number of Pixels in Spectrum: 1024
>>>>>Begin Spectral Data<<<<<
801.071	29041
801.214	28824
801.356	28531
801.499	28481
801.641	28554
801.783	28542
801.926	28401
802.068	28459
802.211	28325
802.353	28169
802.496	28185
802.638	28158
802.78	28074
802.923	28211
803.065	27831
803.208	28067
803.35	28249
803.492	28223
803.635	28261
803.777	28310
803.919	28508
804.061	28634
804.204	28470
804.346	28284
804.488	28215
804.63	28318
804.773	28261
804.915	28523
805.057	28508
805.199	28375
805.341	28519
805.483	28508
805.626	28497
805.768	28550
805.91	28573
806.052	28622
806.194	28428
806.336	28694
806.478	28470
806.62	28512
806.762	28717
806.904	28767
807.046	29109
807.188	29018
807.33	29102
807.472	29018
807.614	28980
807.756	29029
807.898	28831
808.04	28866
808.182	28744
808.324	28835
808.465	28934
808.607	29140
808.749	29159
808.891	29330
809.033	29322
809.174	29296
809.316	29185
809.458	29273
809.6	29185
809.741	29353
809.883	29455
810.025	29558
810.166	29562
810.308	29528
810.45	29463
810.591	29649
810.733	29204
810.875	29155
811.016	29185
811.158	29117
811.299	29425
811.441	29490
811.582	29360
811.724	29223
811.865	29269
812.007	29265
812.148	29292
812.29	29284
812.431	29345
812.573	29490
812.714	29786
812.855	29760
812.997	29836
813.138	29965
813.279	30007
813.421	29786
813.562	29649
813.703	29661
813.845	29535
813.986	29189
814.127	29003
814.268	29037
814.41	28991
814.551	28953
814.692	29174
814.833	28930
814.974	28809
815.115	28885
815.256	28877
815.397	28820
815.539	28774
815.68	28740
815.821	28782
815.962	28729
816.103	28946
816.244	28698
816.385	28580
816.526	28508
816.666	28363
816.807	28257
816.948	28394
817.089	28390
817.23	28287
817.371	28310
817.512	28303
817.653	28413
817.793	28219
817.934	28268
818.075	28287
818.216	28169
818.356	28112
818.497	28257
818.638	27979
818.778	28040
818.919	28109
819.06	28124
819.2	28204
819.341	28337
819.481	28253
819.622	28535
819.762	28649
819.903	28618
820.043	28512
820.184	28466
820.324	28428
820.465	28508
820.605	28409
820.746	28356
820.886	28295
821.026	28371
821.167	28386
821.307	28451
821.447	28291
821.588	28131
821.728	28090
821.868	27895
822.008	27739
822.149	27747
822.289	27720
822.429	27454
822.569	27523
822.709	27523
822.849	27237
822.99	27302
823.13	27302
823.27	27203
823.41	27058
823.55	27096
823.69	27119
823.83	27218
823.97	27127
824.11	26883
824.25	26792
824.389	26921
824.529	26979
824.669	26990
824.809	26956
824.949	27062
825.089	26998
825.228	26975
825.368	26746
825.508	26746
825.648	26857
825.787	26895
825.927	26902
826.067	26773
826.206	26731
826.346	26811
826.485	26834
826.625	26853
826.765	26765
826.904	26838
827.044	26533
827.183	26663
827.323	26434
827.462	26503
827.601	26629
827.741	26545
827.88	26533
828.02	26442
828.159	26537
828.298	26590
828.437	26495
828.577	26400
828.716	26648
828.855	26381
828.994	26134
829.134	26202
829.273	26180
829.412	26202
829.551	26183
829.69	26339
829.829	26294
829.968	26332
830.107	26309
830.246	26103
830.385	26138
830.524	26100
830.663	26103
830.802	25936
830.941	25894
831.08	25750
831.219	25845
831.357	25791
831.496	25951
831.635	25795
831.774	25746
831.913	25639
832.051	25712
832.19	25567
832.329	25422
832.467	25460
832.606	25468
832.744	25499
832.883	25537
833.022	25350
833.16	25377
833.299	25567
833.437	25605
833.576	25514
833.714	25518
833.852	25666
833.991	25658
834.129	25616
834.267	25693
834.406	25499
834.544	25624
834.682	25586
834.821	25445
834.959	25689
835.097	25438
835.235	25537
835.373	25616
835.511	25624
835.65	25384
835.788	25460
835.926	25297
836.064	25251
836.202	25156
836.34	25377
836.478	25502
836.615	25312
836.753	25320
836.891	25422
837.029	25362
837.167	25426
837.305	25316
837.443	25221
837.58	25270
837.718	25278
837.856	25190
837.993	25168
838.131	25263
838.269	25088
838.406	25148
838.544	25061
838.681	24901
838.819	24901
838.956	24665
839.094	24700
839.231	24924
839.369	24825
839.506	25187
839.643	24932
839.781	24650
839.918	24616
840.055	24696
840.193	24623
840.33	24654
840.467	24521
840.604	24536
840.742	24798
840.879	24483
841.016	24612
841.153	24391
841.29	24563
841.427	24521
841.564	24700
841.701	24566
841.838	24536
841.975	24365
842.112	24445
842.249	24380
842.385	24213
842.522	24570
842.659	24578
842.796	24483
842.933	24144
843.069	24304
843.206	24353
843.343	24505
843.479	24353
843.616	24251
843.752	24125
843.889	24201
844.025	24258
844.162	24045
844.298	24247
844.435	24076
844.571	23920
844.708	24095
844.844	24350
844.98	24167
845.117	24213
845.253	24034
845.389	23904
845.525	24003
845.661	23882
845.798	23954
845.934	23977
846.07	23745
846.206	23916
846.342	23863
846.478	23840
846.614	23551
846.75	23436
846.886	23577
847.022	23543
847.158	23676
847.294	23520
847.429	23634
847.565	23615
847.701	23794
847.837	23239
847.972	23235
848.108	23318
848.244	23250
848.379	23185
848.515	23185
848.65	23162
848.786	23132
848.921	23200
849.057	23231
849.192	23075
849.328	23193
849.463	23094
849.598	22923
849.734	23056
849.869	22995
850.004	22858
850.14	23006
850.275	22965
850.41	22801
850.545	22911
850.68	22812
850.815	22972
850.95	22771
851.085	23079
851.22	23044
851.355	22972
851.49	23025
851.625	22934
851.76	22820
851.895	22752
852.03	22717
852.165	22908
852.299	22946
852.434	22927
852.569	22949
852.703	22972
852.838	22991
852.973	23033
853.107	23090
853.242	22995
853.376	22816
853.511	22508
853.645	22649
853.78	22801
853.914	22786
854.048	22535
854.183	22759
854.317	22892
854.451	23006
854.585	22812
854.72	22793
854.854	22767
854.988	22634
855.122	22588
855.256	22641
855.39	22797
855.524	22793
855.658	22828
855.792	22702
855.926	22759
856.06	22740
856.194	22835
856.327	22748
856.461	22577
856.595	22577
856.729	22683
856.862	22755
856.996	22706
857.13	22797
857.263	22892
857.397	22755
857.53	22618
857.664	22687
857.797	22812
857.931	22892
858.064	22771
858.197	22748
858.331	22774
858.464	22748
858.597	22580
858.731	22771
858.864	22653
858.997	22672
859.13	22733
859.263	22675
859.396	22820
859.529	22664
859.662	22634
859.795	22733
859.928	22801
860.061	22763
860.194	23014
860.327	22767
860.46	22862
860.592	22801
860.725	22949
860.858	22885
860.99	22831
861.123	22641
861.256	22664
861.388	22721
861.521	23474
861.653	22523
861.786	22451
861.918	22603
862.05	22672
862.183	22664
862.315	22592
862.447	22694
862.58	22675
862.712	22462
862.844	22367
862.976	22508
863.108	22599
863.24	22774
863.372	22356
863.504	22356
863.636	22424
863.768	22478
863.9	22470
864.032	22314
864.164	22367
864.296	22413
864.428	22683
864.559	22432
864.691	22531
864.823	22417
864.954	22489
865.086	22371
865.217	22246
865.349	22299
865.48	22280
865.612	22230
865.743	22436
865.875	22333
866.006	22333
866.137	22177
866.269	22265
866.4	22280
866.531	22246
866.662	22143
866.793	22162
866.924	22234
867.055	22234
867.186	22242
867.317	22215
867.448	22215
867.579	22173
867.71	22162
867.841	22192
867.972	22223
868.103	22291
868.233	22177
868.364	22223
868.495	22234
868.625	22341
868.756	22508
868.886	22466
869.017	22550
869.147	22542
869.278	22493
869.408	22577
869.539	22523
869.669	22531
869.799	22580
869.929	22577
870.06	22527
870.19	22866
870.32	22763
870.45	22702
870.58	22736
870.71	22991
870.84	22995
870.97	22816
871.1	22816
871.23	23006
871.36	23189
871.489	22873
871.619	22965
871.749	22930
871.879	23121
872.008	23151
872.138	23147
872.267	23121
872.397	22953
872.526	22976
872.656	22896
872.785	22820
872.915	23155
873.044	23216
873.173	23083
873.303	23258
873.432	23208
873.561	23216
873.69	23083
873.819	23102
873.948	23170
874.077	23090
874.206	23090
874.335	22984
874.464	23037
874.593	23288
874.722	23277
874.851	23341
874.979	23273
875.108	23288
875.237	23398
875.365	23216
875.494	23223
875.623	23433
875.751	23265
875.88	23193
876.008	23490
876.136	23330
876.265	23665
876.393	23752
876.521	23741
876.65	23764
876.778	23710
876.906	23589
877.034	23596
877.162	23608
877.29	23687
877.418	23794
877.546	23718
877.674	23657
877.802	23531
877.93	23691
878.058	23547
878.185	23543
878.313	23577
878.441	23554
878.568	23414
878.696	23589
878.824	23733
878.951	23676
879.079	23707
879.206	23904
879.333	23729
879.461	23604
879.588	23714
879.715	23882
879.842	23935
879.97	23794
880.097	23539
880.224	23482
880.351	23509
880.478	23395
880.605	23444
880.732	23421
880.859	23691
880.986	23486
881.112	23547
881.239	23383
881.366	23159
881.493	23162
881.619	23083
881.746	23041
881.872	22999
881.999	23037
882.125	22961
882.252	23071
882.378	23056
882.505	23128
882.631	22900
882.757	22721
882.883	22786
883.01	22668
883.136	22588
883.262	22683
883.388	22592
883.514	22634
883.64	22767
883.766	22634
883.892	22405
884.018	22478
884.143	22535
884.269	22801
884.395	22451
884.52	22371
884.646	22455
884.772	22185
884.897	22249
885.023	22382
885.148	22474
885.274	22318
885.399	22386
885.524	22215
885.65	22246
885.775	22272
885.9	22150
886.025	22466
886.15	22287
886.275	22226
886.4	22185
886.525	22150
886.65	22204
886.775	22272
886.9	22402
887.025	22489
887.149	22314
887.274	22120
887.399	22006
887.523	22105
887.648	22048
887.773	21892
887.897	22013
888.021	22040
888.146	22051
888.27	22040
888.395	22158
888.519	22070
888.643	22128
888.767	22226
888.891	21968
889.015	21953
889.139	22048
889.263	21797
889.387	21888
889.511	22029
889.635	21937
889.759	21854
889.883	21846
890.006	21865
890.13	21865
890.254	21701
890.377	21911
890.501	21625
890.624	21583
890.748	21606
890.871	21511
890.995	21405
891.118	21317
891.241	21351
891.364	21256
891.488	21572
891.611	21351
891.734	21344
891.857	21549
891.98	21397
892.103	21557
892.226	21412
892.349	21408
892.471	21218
892.594	21329
892.717	21313
892.839	21192
892.962	21275
893.085	21313
893.207	21218
893.33	21036
893.452	21173
893.575	21355
893.697	21252
893.819	21534
893.941	21519
894.064	21405
894.186	21218
894.308	21161
894.43	21378
894.552	21382
894.674	21424
894.796	21142
894.918	21351
895.04	21222
895.161	21370
895.283	21245
895.405	21226
895.526	21199
895.648	21298
895.769	21214
895.891	21317
896.012	21332
896.134	21405
896.255	21157
896.376	21260
896.498	21165
896.619	21222
896.74	21203
896.861	21302
896.982	21462
897.103	21690
897.224	21599
897.345	21557
897.466	21469
897.587	21386
897.708	21561
897.828	21481
897.949	21435
898.07	21237
898.19	21481
898.311	21587
898.431	21481
898.552	21485
898.672	21374
898.792	21561
898.913	21416
899.033	21374
899.153	21279
899.273	21157
899.393	21222
899.513	21108
899.633	21207
899.753	21207
899.873	21146
899.993	21169
900.113	21096
900.232	21222
900.352	21047
900.472	20982
900.591	20975
900.711	20910
900.83	20758
900.95	21096
901.069	21047
901.189	20830
901.308	20663
901.427	20545
901.546	20556
901.665	20473
901.784	20533
901.904	20294
902.023	20298
902.141	20073
902.26	20024
902.379	20111
902.498	19940
902.617	19944
902.735	19906
902.854	19978
902.973	20008
903.091	19674
903.21	19670
903.328	19715
903.446	19643
903.565	19411
903.683	19616
903.801	19434
903.919	19411
904.038	19460
904.156	19221
904.274	19194
904.392	19278
904.51	19301
904.627	19133
904.745	19213
904.863	19247
904.981	18894
905.098	18973
905.216	18985
905.334	18943
905.451	18871
905.569	18772
905.686	18875
905.803	18859
905.921	18722
906.038	18658
906.155	18760
906.272	18578
906.389	18627
906.506	18509
906.623	18494
906.74	18456
906.857	18372
906.974	18289
907.091	18426
907.208	18506
907.324	18441
907.441	18296
907.557	18152
907.674	18216
907.79	17958
907.907	18102
908.023	18133
908.139	18079
908.256	18072
908.372	18015
908.488	17935
908.604	17824
908.72	17855
908.836	17874
908.952	17855
909.068	17843
909.184	17942
909.3	17767
909.415	17855
909.531	17775
909.647	17589
909.762	17505
909.878	17554
909.993	17551
910.108	17436
910.224	17425
910.339	17433
910.454	17425
910.57	17197
910.685	17193
910.8	17520
910.915	17440
911.03	17440
911.145	17155
911.259	17094
911.374	17071
911.489	17064
911.604	16957
911.718	16892
911.833	16816
911.947	16782
912.062	16725
912.176	16915
912.291	16790
912.405	16793
912.519	17075
912.633	17022
912.748	16816
912.862	16790
912.976	16733
913.09	16550
913.204	16660
913.318	16717
913.431	16790
913.545	16656
913.659	16717
913.772	16637
913.886	16554
914	16432
914.113	16611
914.226	16542
914.34	16474
914.453	16295
914.566	16451
914.68	16322
914.793	16230
914.906	16086
915.019	16055
915.132	15945
915.245	15994
915.358	16006
915.47	16013
915.583	16051
915.696	16059
915.809	16071
915.921	16055
916.034	15915
916.146	15842
916.259	15911
916.371	16032
916.483	15960
916.595	15918
916.708	15804
916.82	15717
916.932	15778
917.044	15774
917.156	15804
917.268	15587
917.38	15717
917.491	15553
917.603	15587
917.715	15656
917.826	15690
917.938	15591
918.049	15534
918.161	15488
918.272	15610
918.384	15698
918.495	15644
918.606	15306
918.717	15348
918.828	15393
918.939	15405
919.05	15306
919.161	15279
919.272	15127
919.383	15230
919.494	15408
919.604	15580
919.715	15363
919.826	15237
919.936	15272
920.047	15401
920.157	15351
920.267	15507
920.378	15359
920.488	15329
920.598	15515
920.708	15618
920.818	15412
920.928	15386
921.038	15606
921.148	15534
921.258	15325
921.368	15173
921.477	15089
921.587	14956
921.697	14933
921.806	15066
921.916	14857
922.025	14750
922.134	14674
922.244	14621
922.353	14705
922.462	14526
922.571	14454
922.68	14355
922.789	14286
922.898	14332
923.007	14301
923.116	14396
923.224	14206
923.333	14305
923.442	14180
923.55	14145
923.659	14130
923.767	14145
923.876	14107
923.984	14149
924.092	13959
924.201	14130
924.309	14138
924.417	13868
924.525	13974
924.633	13959
924.741	14743
924.849	13681
924.956	13807
925.064	13731
925.172	13616
925.279	13636
925.387	13624
925.494	13609
925.602	13849
925.709	13750
925.816	13563
925.924	13567
926.031	13731
926.138	13639
926.245	13662
926.352	13514
926.459	13670
926.566	13681
926.673	13491
926.779	13472
926.886	13377
926.993	13213
927.099	13206
927.206	13194
927.312	13126
927.419	13285
927.525	13202
927.631	13194
927.737	13053
927.843	13088
927.95	12970
928.056	13023
928.162	13023
928.267	13088
928.373	13556
928.479	13080
928.585	12867
928.69	12954
928.796	12905
928.901	12901
929.007	12741
929.112	12966
929.218	12867
929.323	12810
929.428	12749
929.533	12867
929.638	12681
929.743	12703
929.848	12681
929.953	12612
930.058	12604
930.163	12330
930.267	12311
930.372	12483
930.477	12410
930.581	12597
930.685	12311
930.79	12319
930.894	12327
930.998	12216
931.103	12350
931.207	11996
931.311	11973
931.415	11843
931.519	11710
931.623	11630
