Data from test_V78500241_2131.txt Node
Date: Fri Mar 25 15:56:33 CST 2022
User: usil
Spectrometer: V785-0024
Trigger mode: 0
Integration Time (sec): 4.000000E-1
Scans to average: 1
Nonlinearity correction enabled: false
Boxcar width: 0
Storing dark spectrum: false
XAxis mode: Wavelengths
Number of Pixels in Spectrum: 1024
>>>>>Begin Spectral Data<<<<<
801.071	29044
801.214	28885
801.356	28752
801.499	28645
801.641	28615
801.783	28706
801.926	28611
802.068	28675
802.211	28641
802.353	28550
802.496	28489
802.638	28405
802.78	28265
802.923	28215
803.065	28139
803.208	28211
803.35	28367
803.492	28462
803.635	28710
803.777	28417
803.919	28634
804.061	28915
804.204	28683
804.346	28546
804.488	28367
804.63	28675
804.773	28603
804.915	28641
805.057	28733
805.199	28615
805.341	28653
805.483	28805
805.626	28710
805.768	28725
805.91	28656
806.052	28828
806.194	28637
806.336	28953
806.478	28733
806.62	28721
806.762	28942
806.904	29071
807.046	29353
807.188	29273
807.33	29254
807.472	29383
807.614	29239
807.756	29261
807.898	29060
808.04	28984
808.182	29037
808.324	29147
808.465	29189
808.607	29398
808.749	29440
808.891	29554
809.033	29596
809.174	29630
809.316	29604
809.458	29444
809.6	29307
809.741	29482
809.883	29665
810.025	29764
810.166	29729
810.308	29691
810.45	29832
810.591	29714
810.733	29467
810.875	29566
811.016	29414
811.158	29292
811.299	29627
811.441	29634
811.582	29592
811.724	29570
811.865	29501
812.007	29570
812.148	29463
812.29	29604
812.431	29729
812.573	29627
812.714	29912
812.855	30007
812.997	30072
813.138	30205
813.279	30224
813.421	29999
813.562	29977
813.703	29805
813.845	29623
813.986	29299
814.127	29208
814.268	29258
814.41	29193
814.551	29185
814.692	29155
814.833	29128
814.974	29216
815.115	29284
815.256	29044
815.397	29132
815.539	29246
815.68	29003
815.821	28831
815.962	28987
816.103	29048
816.244	28888
816.385	28828
816.526	28824
816.666	28466
816.807	28538
816.948	28478
817.089	28584
817.23	28478
817.371	28592
817.512	28508
817.653	28443
817.793	28451
817.934	28485
818.075	28550
818.216	28542
818.356	28466
818.497	28447
818.638	28234
818.778	28322
818.919	28500
819.06	28432
819.2	28310
819.341	28546
819.481	28512
819.622	28664
819.762	28778
819.903	28805
820.043	28809
820.184	28672
820.324	28653
820.465	28801
820.605	28683
820.746	28577
820.886	28569
821.026	28771
821.167	28653
821.307	28767
821.447	28512
821.588	28500
821.728	28417
821.868	28154
822.008	28070
822.149	27968
822.289	28021
822.429	27743
822.569	27686
822.709	27698
822.849	27618
822.99	27488
823.13	27576
823.27	27473
823.41	27408
823.55	27264
823.69	27252
823.83	27344
823.97	27214
824.11	27146
824.25	27203
824.389	27252
824.529	27321
824.669	27142
824.809	27298
824.949	27226
825.089	27306
825.228	27154
825.368	27001
825.508	27138
825.648	27154
825.787	27116
825.927	27195
826.067	26910
826.206	27157
826.346	27188
826.485	27047
826.625	27131
826.765	27184
826.904	27077
827.044	26929
827.183	26937
827.323	26587
827.462	26979
827.601	26864
827.741	26762
827.88	26960
828.02	26739
828.159	26678
828.298	26823
828.437	26815
828.577	26743
828.716	26967
828.855	26693
828.994	26419
829.134	26328
829.273	26465
829.412	26438
829.551	26419
829.69	26480
829.829	26606
829.968	26590
830.107	26461
830.246	26317
830.385	26415
830.524	26278
830.663	26237
830.802	26172
830.941	26103
831.08	26107
831.219	26202
831.357	26081
831.496	26301
831.635	26176
831.774	26016
831.913	25894
832.051	25822
832.19	25883
832.329	25731
832.467	25761
832.606	25708
832.744	25727
832.883	25651
833.022	25655
833.16	25799
833.299	25879
833.437	25750
833.576	25875
833.714	25814
833.852	25909
833.991	25818
834.129	25909
834.267	25917
834.406	25776
834.544	25818
834.682	25887
834.821	25761
834.959	26065
835.097	25700
835.235	25887
835.373	25788
835.511	25769
835.65	25670
835.788	25639
835.926	25635
836.064	25445
836.202	25464
836.34	25651
836.478	25704
836.615	25658
836.753	25518
836.891	25712
837.029	25666
837.167	25438
837.305	25540
837.443	25510
837.58	25377
837.718	25472
837.856	25441
837.993	25297
838.131	25476
838.269	25346
838.406	25335
838.544	25293
838.681	25247
838.819	25000
838.956	24962
839.094	24913
839.231	24966
839.369	25183
839.506	25457
839.643	25285
839.781	24909
839.918	24795
840.055	24833
840.193	24951
840.33	24928
840.467	24764
840.604	24779
840.742	25027
840.879	24661
841.016	24707
841.153	24631
841.29	24878
841.427	24798
841.564	25012
841.701	24791
841.838	24768
841.975	24669
842.112	24821
842.249	24669
842.385	24410
842.522	24681
842.659	24620
842.796	24532
842.933	24498
843.069	24563
843.206	24494
843.343	24635
843.479	24532
843.616	24521
843.752	24357
843.889	24319
844.025	24403
844.162	24308
844.298	24445
844.435	24296
844.571	24254
844.708	24429
844.844	24517
844.98	24460
845.117	24311
845.253	24410
845.389	24117
845.525	24266
845.661	24194
845.798	24117
845.934	24163
846.07	24083
846.206	24064
846.342	24182
846.478	23973
846.614	23836
846.75	23821
846.886	23832
847.022	23805
847.158	23836
847.294	23775
847.429	23817
847.565	23707
847.701	23977
847.837	23581
847.972	23448
848.108	23710
848.244	23543
848.379	23364
848.515	23368
848.65	23322
848.786	23337
848.921	23372
849.057	23482
849.192	23345
849.328	23387
849.463	23398
849.598	23345
849.734	23345
849.869	23258
850.004	23299
850.14	23208
850.275	23197
850.41	23094
850.545	23003
850.68	23010
850.815	23128
850.95	23132
851.085	23303
851.22	23273
851.355	23037
851.49	23064
851.625	23155
851.76	23208
851.895	23033
852.03	22892
852.165	23250
852.299	23212
852.434	23143
852.569	23178
852.703	23166
852.838	23178
852.973	23136
853.107	23155
853.242	23014
853.376	22930
853.511	22984
853.645	23037
853.78	22953
853.914	23003
854.048	22987
854.183	23056
854.317	22942
854.451	23220
854.585	22942
854.72	23010
854.854	23060
854.988	23003
855.122	22984
855.256	22763
855.39	22942
855.524	22976
855.658	23033
855.792	22858
855.926	22938
856.06	22987
856.194	23052
856.327	22987
856.461	22801
856.595	22949
856.729	22991
856.862	22965
856.996	22949
857.13	23086
857.263	23067
857.397	23041
857.53	22927
857.664	22934
857.797	22957
857.931	23037
858.064	22904
858.197	22965
858.331	22854
858.464	22980
858.597	22801
858.731	22778
858.864	22904
858.997	22873
859.13	22869
859.263	22911
859.396	23067
859.529	22744
859.662	22858
859.795	22923
859.928	22949
860.061	23052
860.194	23223
860.327	23044
860.46	22968
860.592	23067
860.725	22942
860.858	23010
860.99	22980
861.123	22854
861.256	22942
861.388	22942
861.521	23722
861.653	22706
861.786	22748
861.918	22679
862.05	22755
862.183	22816
862.315	22972
862.447	22862
862.58	22930
862.712	22702
862.844	22569
862.976	22790
863.108	22637
863.24	23086
863.372	22698
863.504	22618
863.636	22527
863.768	22687
863.9	22679
864.032	22645
864.164	22542
864.296	22584
864.428	22793
864.559	22675
864.691	22740
864.823	22713
864.954	22599
865.086	22599
865.217	22573
865.349	22344
865.48	22584
865.612	22481
865.743	22645
865.875	22550
866.006	22542
866.137	22599
866.269	22538
866.4	22546
866.531	22516
866.662	22512
866.793	22341
866.924	22421
867.055	22405
867.186	22447
867.317	22344
867.448	22371
867.579	22386
867.71	22333
867.841	22329
867.972	22280
868.103	22443
868.233	22413
868.364	22497
868.495	22341
868.625	22569
868.756	22797
868.886	22596
869.017	22683
869.147	22908
869.278	22831
869.408	22691
869.539	22721
869.669	22736
869.799	22721
869.929	22934
870.06	22809
870.19	22980
870.32	22957
870.45	23006
870.58	23086
870.71	23048
870.84	23231
870.97	23006
871.1	22968
871.23	23227
871.36	23398
871.489	23079
871.619	23235
871.749	23296
871.879	23254
872.008	23433
872.138	23235
872.267	23322
872.397	23277
872.526	23162
872.656	23102
872.785	23174
872.915	23356
873.044	23402
873.173	23459
873.303	23284
873.432	23356
873.561	23402
873.69	23258
873.819	23288
873.948	23337
874.077	23261
874.206	23220
874.335	23383
874.464	23433
874.593	23490
874.722	23444
874.851	23535
874.979	23577
875.108	23547
875.237	23440
875.365	23383
875.494	23440
875.623	23611
875.751	23539
875.88	23474
876.008	23611
876.136	23745
876.265	23866
876.393	24011
876.521	23946
876.65	23901
876.778	23874
876.906	23779
877.034	23821
877.162	23805
877.29	23668
877.418	23824
877.546	23832
877.674	23878
877.802	23813
877.93	23771
878.058	23794
878.185	23764
878.313	23855
878.441	23764
878.568	23760
878.696	23722
878.824	23840
878.951	23874
879.079	23996
879.206	24114
879.333	24155
879.461	23878
879.588	24072
879.715	23984
879.842	23980
879.97	23931
880.097	23531
880.224	23737
880.351	23653
880.478	23646
880.605	23687
880.732	23710
880.859	23988
880.986	23531
881.112	23703
881.239	23509
881.366	23433
881.493	23414
881.619	23239
881.746	23242
881.872	23284
881.999	23159
882.125	23155
882.252	23334
882.378	23143
882.505	23292
882.631	22949
882.757	22930
882.883	22968
883.01	22900
883.136	22790
883.262	22843
883.388	22771
883.514	22831
883.64	22858
883.766	22786
883.892	22721
884.018	22755
884.143	22797
884.269	22953
884.395	22554
884.52	22542
884.646	22542
884.772	22481
884.897	22421
885.023	22500
885.148	22691
885.274	22645
885.399	22702
885.524	22618
885.65	22485
885.775	22493
885.9	22470
886.025	22641
886.15	22474
886.275	22428
886.4	22295
886.525	22462
886.65	22500
886.775	22394
886.9	22592
887.025	22843
887.149	22466
887.274	22246
887.399	22436
887.523	22226
887.648	22268
887.773	22154
887.897	22421
888.021	22341
888.146	22268
888.27	22310
888.395	22386
888.519	22280
888.643	22325
888.767	22265
888.891	22109
889.015	21987
889.139	22128
889.263	22078
889.387	22173
889.511	22196
889.635	22162
889.759	22059
889.883	21903
890.006	21998
890.13	22078
890.254	21956
890.377	21994
890.501	21736
890.624	21770
890.748	21762
890.871	21648
890.995	21462
891.118	21534
891.241	21675
891.364	21663
891.488	21861
891.611	21603
891.734	21545
891.857	21576
891.98	21625
892.103	21610
892.226	21675
892.349	21504
892.471	21401
892.594	21450
892.717	21553
892.839	21477
892.962	21576
893.085	21595
893.207	21481
893.33	21287
893.452	21450
893.575	21477
893.697	21405
893.819	21580
893.941	21701
894.064	21553
894.186	21374
894.308	21340
894.43	21553
894.552	21561
894.674	21481
894.796	21393
894.918	21443
895.04	21408
895.161	21587
895.283	21458
895.405	21355
895.526	21428
895.648	21443
895.769	21473
895.891	21481
896.012	21549
896.134	21603
896.255	21488
896.376	21492
896.498	21397
896.619	21507
896.74	21348
896.861	21424
896.982	21835
897.103	21808
897.224	21660
897.345	21679
897.466	21561
897.587	21698
897.708	21857
897.828	21644
897.949	21545
898.07	21462
898.19	21557
898.311	21709
898.431	21534
898.552	21717
898.672	21603
898.792	21648
898.913	21603
899.033	21507
899.153	21435
899.273	21351
899.393	21302
899.513	21340
899.633	21428
899.753	21351
899.873	21374
899.993	21336
900.113	21279
900.232	21256
900.352	21230
900.472	21112
900.591	21157
900.711	21173
900.83	21089
900.95	21127
901.069	21131
901.189	20921
901.308	20872
901.427	20716
901.546	20648
901.665	20727
901.784	20583
901.904	20476
902.023	20473
902.141	20244
902.26	20248
902.379	20286
902.498	20145
902.617	20122
902.735	20233
902.854	20199
902.973	20084
903.091	19864
903.21	19864
903.328	19814
903.446	19708
903.565	19609
903.683	19567
903.801	19434
903.919	19521
904.038	19518
904.156	19346
904.274	19552
904.392	19441
904.51	19312
904.627	19331
904.745	19377
904.863	19403
904.981	19194
905.098	19023
905.216	19053
905.334	19187
905.451	19061
905.569	19168
905.686	19065
905.803	19091
905.921	18768
906.038	18886
906.155	18757
906.272	18673
906.389	18703
906.506	18566
906.623	18627
906.74	18700
906.857	18464
906.974	18513
907.091	18677
907.208	18798
907.324	18627
907.441	18407
907.557	18327
907.674	18357
907.79	18300
907.907	18300
908.023	18285
908.139	18281
908.256	18319
908.372	18076
908.488	18140
908.604	18076
908.72	17977
908.836	17988
908.952	17920
909.068	18030
909.184	18144
909.3	17901
909.415	17954
909.531	18030
909.647	17737
909.762	17611
909.878	17638
909.993	17790
910.108	17680
910.224	17615
910.339	17562
910.454	17471
910.57	17429
910.685	17345
910.8	17630
910.915	17547
911.03	17387
911.145	17307
911.259	17258
911.374	17212
911.489	17117
911.604	17048
911.718	17041
911.833	17033
911.947	16900
912.062	16805
912.176	16995
912.291	17037
912.405	16999
912.519	17151
912.633	17185
912.748	17067
912.862	16995
912.976	16854
913.09	16713
913.204	16755
913.318	16725
913.431	16915
913.545	16904
913.659	16873
913.772	16759
913.886	16607
914	16615
914.113	16691
914.226	16596
914.34	16558
914.453	16390
914.566	16561
914.68	16470
914.793	16325
914.906	16272
915.019	16150
915.132	16147
915.245	16055
915.358	16154
915.47	16150
915.583	16082
915.696	16147
915.809	16230
915.921	16257
916.034	16082
916.146	16036
916.259	15998
916.371	16044
916.483	16139
916.595	15880
916.708	15987
916.82	16029
916.932	15956
917.044	15842
917.156	15873
917.268	15720
917.38	15781
917.491	15717
917.603	15755
917.715	15808
917.826	15842
917.938	15679
918.049	15690
918.161	15743
918.272	15842
918.384	15751
918.495	15606
918.606	15466
918.717	15454
918.828	15469
918.939	15618
919.05	15431
919.161	15519
919.272	15256
919.383	15332
919.494	15450
919.604	15625
919.715	15584
919.826	15428
919.936	15355
920.047	15485
920.157	15450
920.267	15591
920.378	15428
920.488	15351
920.598	15610
920.708	15789
920.818	15549
920.928	15542
921.038	15800
921.148	15739
921.258	15370
921.368	15291
921.477	15230
921.587	15192
921.697	15085
921.806	15180
921.916	15039
922.025	14838
922.134	14815
922.244	14735
922.353	14819
922.462	14625
922.571	14610
922.68	14446
922.789	14374
922.898	14476
923.007	14404
923.116	14518
923.224	14438
923.333	14400
923.442	14278
923.55	14290
923.659	14275
923.767	14336
923.876	14176
923.984	14278
924.092	14161
924.201	14195
924.309	14161
924.417	14092
924.525	14001
924.633	14119
924.741	14765
924.849	13883
924.956	13963
925.064	13833
925.172	13883
925.279	13833
925.387	13818
925.494	13791
925.602	13852
925.709	13894
925.816	13723
925.924	13689
926.031	13738
926.138	13719
926.245	13822
926.352	13620
926.459	13734
926.566	13738
926.673	13693
926.779	13525
926.886	13548
926.993	13297
927.099	13335
927.206	13301
927.312	13297
927.419	13266
927.525	13270
927.631	13285
927.737	13145
927.843	13190
927.95	13042
928.056	13133
928.162	13099
928.267	13149
928.373	13731
928.479	13156
928.585	12928
928.69	13053
928.796	13080
928.901	12989
929.007	12798
929.112	12958
929.218	12977
929.323	12939
929.428	12897
929.533	12954
929.638	12753
929.743	12760
929.848	12825
929.953	12829
930.058	12627
930.163	12631
930.267	12490
930.372	12692
930.477	12475
930.581	12757
930.685	12536
930.79	12376
930.894	12365
930.998	12342
931.103	12452
931.207	12186
931.311	12034
931.415	11927
931.519	11733
931.623	11722
