Data from test_V78500241_3493.txt Node
Date: Fri Mar 25 16:05:59 CST 2022
User: usil
Spectrometer: V785-0024
Trigger mode: 0
Integration Time (sec): 4.000000E-1
Scans to average: 1
Nonlinearity correction enabled: false
Boxcar width: 0
Storing dark spectrum: false
XAxis mode: Wavelengths
Number of Pixels in Spectrum: 1024
>>>>>Begin Spectral Data<<<<<
801.071	28904
801.214	29014
801.356	28809
801.499	28618
801.641	28698
801.783	28531
801.926	28634
802.068	28516
802.211	28561
802.353	28462
802.496	28261
802.638	28379
802.78	28276
802.923	28295
803.065	28090
803.208	28211
803.35	28230
803.492	28360
803.635	28508
803.777	28272
803.919	28645
804.061	28797
804.204	28687
804.346	28478
804.488	28428
804.63	28485
804.773	28284
804.915	28645
805.057	28790
805.199	28615
805.341	28694
805.483	28702
805.626	28725
805.768	28588
805.91	28801
806.052	28748
806.194	28577
806.336	28866
806.478	28679
806.62	28740
806.762	28900
806.904	29075
807.046	29174
807.188	29105
807.33	29121
807.472	29239
807.614	29071
807.756	29178
807.898	29239
808.04	29056
808.182	29075
808.324	29083
808.465	29025
808.607	29311
808.749	29326
808.891	29509
809.033	29627
809.174	29554
809.316	29429
809.458	29402
809.6	29440
809.741	29429
809.883	29501
810.025	29596
810.166	29684
810.308	29809
810.45	29680
810.591	29684
810.733	29551
810.875	29421
811.016	29493
811.158	29375
811.299	29520
811.441	29623
811.582	29547
811.724	29482
811.865	29379
812.007	29440
812.148	29509
812.29	29406
812.431	29581
812.573	29752
812.714	29923
812.855	29866
812.997	30152
813.138	30194
813.279	30038
813.421	29980
813.562	29984
813.703	29745
813.845	29764
813.986	29417
814.127	29326
814.268	29151
814.41	29200
814.551	29231
814.692	29067
814.833	29075
814.974	29105
815.115	29079
815.256	29067
815.397	29121
815.539	29067
815.68	29010
815.821	28869
815.962	28987
816.103	29094
816.244	28809
816.385	28816
816.526	28687
816.666	28519
816.807	28417
816.948	28489
817.089	28687
817.23	28561
817.371	28512
817.512	28512
817.653	28363
817.793	28443
817.934	28497
818.075	28493
818.216	28394
818.356	28394
818.497	28390
818.638	28219
818.778	28405
818.919	28363
819.06	28230
819.2	28371
819.341	28557
819.481	28428
819.622	28691
819.762	28816
819.903	28740
820.043	28584
820.184	28626
820.324	28645
820.465	28630
820.605	28618
820.746	28607
820.886	28455
821.026	28637
821.167	28485
821.307	28672
821.447	28428
821.588	28508
821.728	28382
821.868	28063
822.008	27991
822.149	28010
822.289	27987
822.429	27629
822.569	27641
822.709	27637
822.849	27603
822.99	27496
823.13	27416
823.27	27393
823.41	27336
823.55	27283
823.69	27310
823.83	27272
823.97	27214
824.11	27131
824.25	27104
824.389	27112
824.529	27249
824.669	27100
824.809	27256
824.949	27218
825.089	27382
825.228	27199
825.368	26918
825.508	26891
825.648	26979
825.787	27093
825.927	26986
826.067	27043
826.206	27036
826.346	27028
826.485	27055
826.625	26902
826.765	27116
826.904	27062
827.044	26899
827.183	26857
827.323	26667
827.462	26842
827.601	26674
827.741	26743
827.88	26842
828.02	26674
828.159	26743
828.298	26792
828.437	26754
828.577	26686
828.716	26918
828.855	26571
828.994	26431
829.134	26568
829.273	26438
829.412	26469
829.551	26355
829.69	26473
829.829	26499
829.968	26507
830.107	26495
830.246	26442
830.385	26351
830.524	26450
830.663	26134
830.802	26195
830.941	25917
831.08	25997
831.219	26252
831.357	26164
831.496	26225
831.635	26065
831.774	26020
831.913	25913
832.051	25906
832.19	25811
832.329	25780
832.467	25689
832.606	25738
832.744	25712
832.883	25784
833.022	25601
833.16	25613
833.299	25738
833.437	25689
833.576	25841
833.714	25712
833.852	25830
833.991	25814
834.129	25860
834.267	25860
834.406	25883
834.544	25791
834.682	25830
834.821	25776
834.959	25936
835.097	25712
835.235	25814
835.373	25879
835.511	25788
835.65	25632
835.788	25719
835.926	25521
836.064	25384
836.202	25537
836.34	25544
836.478	25704
836.615	25563
836.753	25635
836.891	25483
837.029	25594
837.167	25487
837.305	25426
837.443	25514
837.58	25430
837.718	25434
837.856	25441
837.993	25407
838.131	25419
838.269	25190
838.406	25324
838.544	25228
838.681	25126
838.819	25088
838.956	24966
839.094	25069
839.231	24981
839.369	25126
839.506	25331
839.643	25133
839.781	24954
839.918	24829
840.055	24916
840.193	24954
840.33	24779
840.467	24859
840.604	24901
840.742	25046
840.879	24612
841.016	24703
841.153	24578
841.29	24848
841.427	24779
841.564	24829
841.701	24760
841.838	24722
841.975	24837
842.112	24692
842.249	24505
842.385	24570
842.522	24658
842.659	24589
842.796	24654
842.933	24604
843.069	24433
843.206	24502
843.343	24642
843.479	24505
843.616	24574
843.752	24384
843.889	24429
844.025	24498
844.162	24323
844.298	24350
844.435	24277
844.571	24289
844.708	24323
844.844	24429
844.98	24433
845.117	24365
845.253	24281
845.389	24216
845.525	24163
845.661	24171
845.798	24159
845.934	24015
846.07	23942
846.206	24030
846.342	24281
846.478	24110
846.614	23870
846.75	23646
846.886	23798
847.022	23805
847.158	23885
847.294	23836
847.429	23798
847.565	23771
847.701	23950
847.837	23478
847.972	23630
848.108	23531
848.244	23535
848.379	23425
848.515	23284
848.65	23356
848.786	23395
848.921	23463
849.057	23433
849.192	23577
849.328	23376
849.463	23311
849.598	23254
849.734	23311
849.869	23147
850.004	23124
850.14	23128
850.275	23056
850.41	23193
850.545	23064
850.68	23022
850.815	23124
850.95	23128
851.085	23121
851.22	23284
851.355	23098
851.49	23197
851.625	23246
851.76	23056
851.895	23003
852.03	22946
852.165	23178
852.299	23162
852.434	23022
852.569	23242
852.703	23220
852.838	23227
852.973	23311
853.107	23235
853.242	23105
853.376	22980
853.511	22850
853.645	22908
853.78	23033
853.914	23067
854.048	22881
854.183	22858
854.317	23071
854.451	23368
854.585	23071
854.72	22892
854.854	22972
854.988	22976
855.122	22976
855.256	22866
855.39	22915
855.524	23003
855.658	22984
855.792	22896
855.926	23105
856.06	23014
856.194	23128
856.327	22980
856.461	22805
856.595	22911
856.729	23014
856.862	22999
856.996	22976
857.13	22995
857.263	23140
857.397	23124
857.53	22923
857.664	22908
857.797	23174
857.931	23090
858.064	23041
858.197	23113
858.331	22900
858.464	22828
858.597	22877
858.731	22946
858.864	22904
858.997	22919
859.13	23060
859.263	22915
859.396	22991
859.529	22957
859.662	22965
859.795	23037
859.928	22949
860.061	23025
860.194	23200
860.327	22968
860.46	23018
860.592	23048
860.725	23197
860.858	23083
860.99	23014
861.123	22896
861.256	22934
861.388	23067
861.521	23672
861.653	22805
861.786	22611
861.918	22752
862.05	22755
862.183	22858
862.315	22968
862.447	22885
862.58	22828
862.712	22706
862.844	22637
862.976	22767
863.108	22729
863.24	23060
863.372	22565
863.504	22656
863.636	22679
863.768	22713
863.9	22603
864.032	22584
864.164	22588
864.296	22634
864.428	22607
864.559	22733
864.691	22820
864.823	22691
864.954	22637
865.086	22702
865.217	22615
865.349	22542
865.48	22478
865.612	22485
865.743	22687
865.875	22504
866.006	22493
866.137	22577
866.269	22535
866.4	22531
866.531	22470
866.662	22481
866.793	22455
866.924	22622
867.055	22466
867.186	22557
867.317	22424
867.448	22474
867.579	22447
867.71	22424
867.841	22531
867.972	22436
868.103	22459
868.233	22375
868.364	22561
868.495	22512
868.625	22634
868.756	22778
868.886	22634
869.017	22672
869.147	22744
869.278	22744
869.408	22721
869.539	22733
869.669	22733
869.799	22755
869.929	22736
870.06	22843
870.19	23064
870.32	23029
870.45	23025
870.58	23189
870.71	23143
870.84	23102
870.97	23159
871.1	23178
871.23	23208
871.36	23277
871.489	23261
871.619	23239
871.749	23227
871.879	23311
872.008	23429
872.138	23200
872.267	23311
872.397	23155
872.526	23254
872.656	23151
872.785	23098
872.915	23387
873.044	23486
873.173	23322
873.303	23455
873.432	23410
873.561	23554
873.69	23490
873.819	23383
873.948	23410
874.077	23406
874.206	23235
874.335	23239
874.464	23482
874.593	23497
874.722	23486
874.851	23585
874.979	23433
875.108	23562
875.237	23490
875.365	23474
875.494	23539
875.623	23638
875.751	23497
875.88	23615
876.008	23554
876.136	23722
876.265	23863
876.393	23950
876.521	24003
876.65	24003
876.778	23988
876.906	23790
877.034	23817
877.162	23954
877.29	23771
877.418	23999
877.546	23840
877.674	23866
877.802	23920
877.93	23790
878.058	23950
878.185	23737
878.313	23859
878.441	23813
878.568	23695
878.696	23843
878.824	23832
878.951	23939
879.079	24030
879.206	24194
879.333	24007
879.461	23870
879.588	23920
879.715	24038
879.842	24114
879.97	23870
880.097	23851
880.224	23882
880.351	23684
880.478	23745
880.605	23699
880.732	23577
880.859	23988
880.986	23642
881.112	23752
881.239	23528
881.366	23303
881.493	23269
881.619	23197
881.746	23223
881.872	23254
881.999	23216
882.125	23178
882.252	23322
882.378	23231
882.505	23296
882.631	23044
882.757	22968
882.883	22999
883.01	22904
883.136	23064
883.262	22828
883.388	22820
883.514	22892
883.64	22904
883.766	22736
883.892	22592
884.018	22774
884.143	22767
884.269	22850
884.395	22542
884.52	22588
884.646	22618
884.772	22474
884.897	22405
885.023	22379
885.148	22603
885.274	22687
885.399	22656
885.524	22470
885.65	22660
885.775	22497
885.9	22561
886.025	22577
886.15	22557
886.275	22504
886.4	22363
886.525	22428
886.65	22481
886.775	22424
886.9	22603
887.025	22771
887.149	22440
887.274	22440
887.399	22314
887.523	22223
887.648	22265
887.773	22166
887.897	22440
888.021	22428
888.146	22200
888.27	22428
888.395	22417
888.519	22287
888.643	22280
888.767	22299
888.891	22223
889.015	22051
889.139	22128
889.263	22082
889.387	22143
889.511	22173
889.635	22268
889.759	22101
889.883	22074
890.006	21960
890.13	22169
890.254	21960
890.377	22048
890.501	21819
890.624	21865
890.748	21804
890.871	21610
890.995	21618
891.118	21618
891.241	21641
891.364	21564
891.488	21599
891.611	21564
891.734	21614
891.857	21663
891.98	21542
892.103	21610
892.226	21656
892.349	21466
892.471	21443
892.594	21519
892.717	21610
892.839	21622
892.962	21500
893.085	21610
893.207	21507
893.33	21264
893.452	21488
893.575	21633
893.697	21473
893.819	21770
893.941	21686
894.064	21587
894.186	21545
894.308	21393
894.43	21450
894.552	21633
894.674	21435
894.796	21420
894.918	21488
895.04	21549
895.161	21519
895.283	21488
895.405	21401
895.526	21435
895.648	21466
895.769	21462
895.891	21507
896.012	21576
896.134	21500
896.255	21538
896.376	21393
896.498	21291
896.619	21629
896.74	21412
896.861	21515
896.982	21823
897.103	21816
897.224	21679
897.345	21652
897.466	21614
897.587	21641
897.708	21755
897.828	21701
897.949	21739
898.07	21500
898.19	21610
898.311	21728
898.431	21526
898.552	21580
898.672	21644
898.792	21652
898.913	21728
899.033	21568
899.153	21496
899.273	21310
899.393	21355
899.513	21355
899.633	21450
899.753	21332
899.873	21226
899.993	21458
900.113	21302
900.232	21306
900.352	21317
900.472	21188
900.591	21009
900.711	21093
900.83	21039
900.95	21249
901.069	21302
901.189	21036
901.308	20788
901.427	20735
901.546	20750
901.665	20815
901.784	20659
901.904	20571
902.023	20469
902.141	20290
902.26	20191
902.379	20374
902.498	20180
902.617	20096
902.735	20339
902.854	20180
902.973	20115
903.091	19913
903.21	19734
903.328	19902
903.446	19693
903.565	19582
903.683	19689
903.801	19529
903.919	19540
904.038	19639
904.156	19487
904.274	19510
904.392	19377
904.51	19495
904.627	19434
904.745	19449
904.863	19430
904.981	19187
905.098	19099
905.216	19088
905.334	19168
905.451	19061
905.569	19008
905.686	19129
905.803	19084
905.921	18833
906.038	18970
906.155	18852
906.272	18639
906.389	18677
906.506	18719
906.623	18688
906.74	18608
906.857	18471
906.974	18467
907.091	18635
907.208	18730
907.324	18608
907.441	18448
907.557	18350
907.674	18334
907.79	18327
907.907	18213
908.023	18319
908.139	18338
908.256	18277
908.372	18163
908.488	18167
908.604	18060
908.72	17950
908.836	17984
908.952	17935
909.068	17950
909.184	18095
909.3	17996
909.415	18087
909.531	17996
909.647	17733
909.762	17707
909.878	17752
909.993	17752
910.108	17623
910.224	17756
910.339	17623
910.454	17562
910.57	17551
910.685	17448
910.8	17646
910.915	17707
911.03	17463
911.145	17288
911.259	17299
911.374	17345
911.489	17193
911.604	17052
911.718	17064
911.833	17033
911.947	16980
912.062	16831
912.176	17045
912.291	16968
912.405	17067
912.519	17193
912.633	17223
912.748	17052
912.862	16965
912.976	16949
913.09	16733
913.204	16809
913.318	16892
913.431	16896
913.545	16957
913.659	16911
913.772	16869
913.886	16630
914	16694
914.113	16771
914.226	16626
914.34	16672
914.453	16542
914.566	16763
914.68	16504
914.793	16462
914.906	16314
915.019	16219
915.132	16192
915.245	16268
915.358	16112
915.47	16150
915.583	16051
915.696	16162
915.809	16295
915.921	16246
916.034	16025
916.146	16082
916.259	15956
916.371	16219
916.483	16017
916.595	16055
916.708	15960
916.82	16059
916.932	15884
917.044	15941
917.156	15876
917.268	15857
917.38	15854
917.491	15743
917.603	15785
917.715	15838
917.826	15850
917.938	15633
918.049	15709
918.161	15663
918.272	15979
918.384	15873
918.495	15622
918.606	15591
918.717	15477
918.828	15603
918.939	15500
919.05	15397
919.161	15481
919.272	15310
919.383	15363
919.494	15542
919.604	15675
919.715	15443
919.826	15424
919.936	15477
920.047	15526
920.157	15580
920.267	15709
920.378	15412
920.488	15462
920.598	15663
920.708	15819
920.818	15572
920.928	15686
921.038	15751
921.148	15736
921.258	15382
921.368	15336
921.477	15237
921.587	15214
921.697	15085
921.806	15241
921.916	14998
922.025	14853
922.134	14872
922.244	14815
922.353	14834
922.462	14686
922.571	14613
922.68	14507
922.789	14473
922.898	14450
923.007	14385
923.116	14431
923.224	14415
923.333	14393
923.442	14343
923.55	14229
923.659	14210
923.767	14347
923.876	14214
923.984	14275
924.092	14161
924.201	14199
924.309	14130
924.417	14157
924.525	14084
924.633	14172
924.741	14819
924.849	13936
924.956	13970
925.064	13925
925.172	13753
925.279	13883
925.387	13818
925.494	13818
925.602	13947
925.709	13860
925.816	13776
925.924	13685
926.031	13814
926.138	13712
926.245	13742
926.352	13647
926.459	13750
926.566	13742
926.673	13712
926.779	13586
926.886	13563
926.993	13282
927.099	13396
927.206	13304
927.312	13293
927.419	13377
927.525	13354
927.631	13358
927.737	13266
927.843	13114
927.95	13122
928.056	13061
928.162	13179
928.267	13156
928.373	13727
928.479	13209
928.585	12958
928.69	13061
928.796	13202
928.901	12966
929.007	12844
929.112	13050
929.218	12894
929.323	12939
929.428	12814
929.533	13069
929.638	12741
929.743	12863
929.848	12753
929.953	12772
930.058	12669
930.163	12563
930.267	12570
930.372	12669
930.477	12452
930.581	12715
930.685	12578
930.79	12448
930.894	12452
930.998	12346
931.103	12525
931.207	12155
931.311	12038
931.415	11969
931.519	11775
931.623	11760
