Data from test_V78500241_2264.txt Node
Date: Fri Mar 25 15:57:29 CST 2022
User: usil
Spectrometer: V785-0024
Trigger mode: 0
Integration Time (sec): 4.000000E-1
Scans to average: 1
Nonlinearity correction enabled: false
Boxcar width: 0
Storing dark spectrum: false
XAxis mode: Wavelengths
Number of Pixels in Spectrum: 1024
>>>>>Begin Spectral Data<<<<<
801.071	29284
801.214	29041
801.356	28934
801.499	29041
801.641	28782
801.783	28828
801.926	28820
802.068	28869
802.211	28786
802.353	28782
802.496	28485
802.638	28542
802.78	28424
802.923	28489
803.065	28322
803.208	28436
803.35	28421
803.492	28641
803.635	28759
803.777	28569
803.919	28771
804.061	29037
804.204	28812
804.346	28698
804.488	28748
804.63	28877
804.773	28653
804.915	28866
805.057	28896
805.199	28683
805.341	28809
805.483	28934
805.626	28831
805.768	28805
805.91	28809
806.052	28831
806.194	28862
806.336	29185
806.478	28999
806.62	29014
806.762	29014
806.904	29216
807.046	29440
807.188	29356
807.33	29497
807.472	29509
807.614	29299
807.756	29440
807.898	29132
808.04	29231
808.182	29174
808.324	29242
808.465	29429
808.607	29589
808.749	29589
808.891	29836
809.033	29847
809.174	29680
809.316	29726
809.458	29649
809.6	29543
809.741	29802
809.883	29775
810.025	29828
810.166	29942
810.308	30133
810.45	29885
810.591	29840
810.733	29718
810.875	29687
811.016	29695
811.158	29463
811.299	29889
811.441	29920
811.582	29893
811.724	29722
811.865	29741
812.007	29615
812.148	29653
812.29	29737
812.431	29710
812.573	30022
812.714	30064
812.855	30167
812.997	30384
813.138	30422
813.279	30372
813.421	30171
813.562	30163
813.703	29992
813.845	29901
813.986	29676
814.127	29676
814.268	29288
814.41	29440
814.551	29406
814.692	29539
814.833	29391
814.974	29463
815.115	29459
815.256	29265
815.397	29197
815.539	29372
815.68	29185
815.821	29128
815.962	29292
816.103	29246
816.244	28957
816.385	29197
816.526	29083
816.666	28793
816.807	28618
816.948	28839
817.089	28816
817.23	28793
817.371	28710
817.512	28702
817.653	28698
817.793	28721
817.934	28786
818.075	28774
818.216	28744
818.356	28653
818.497	28615
818.638	28489
818.778	28398
818.919	28455
819.06	28459
819.2	28725
819.341	28698
819.481	28759
819.622	28774
819.762	28942
819.903	28904
820.043	28915
820.184	28854
820.324	28782
820.465	28854
820.605	28942
820.746	28729
820.886	28717
821.026	28778
821.167	28858
821.307	28980
821.447	28828
821.588	28649
821.728	28569
821.868	28284
822.008	28246
822.149	28303
822.289	28169
822.429	27934
822.569	27808
822.709	27945
822.849	27808
822.99	27804
823.13	27686
823.27	27781
823.41	27519
823.55	27420
823.69	27610
823.83	27564
823.97	27507
824.11	27374
824.25	27279
824.389	27386
824.529	27466
824.669	27310
824.809	27488
824.949	27450
825.089	27496
825.228	27450
825.368	27302
825.508	27279
825.648	27203
825.787	27340
825.927	27389
826.067	27279
826.206	27230
826.346	27279
826.485	27283
826.625	27279
826.765	27378
826.904	27386
827.044	27051
827.183	27096
827.323	26963
827.462	27058
827.601	27154
827.741	26918
827.88	27009
828.02	26887
828.159	26963
828.298	26986
828.437	27013
828.577	26868
828.716	27135
828.855	26895
828.994	26632
829.134	26571
829.273	26674
829.412	26674
829.551	26541
829.69	26769
829.829	26743
829.968	26819
830.107	26708
830.246	26659
830.385	26629
830.524	26701
830.663	26457
830.802	26423
830.941	26313
831.08	26225
831.219	26324
831.357	26381
831.496	26533
831.635	26393
831.774	26176
831.913	26145
832.051	25986
832.19	26210
832.329	26012
832.467	25997
832.606	25879
832.744	25966
832.883	26020
833.022	25833
833.16	25936
833.299	25883
833.437	25955
833.576	25959
833.714	26043
833.852	26084
833.991	26096
834.129	26035
834.267	26157
834.406	26001
834.544	26065
834.682	25917
834.821	25932
834.959	26031
835.097	26027
835.235	26111
835.373	26058
835.511	26027
835.65	25715
835.788	25822
835.926	25833
836.064	25597
836.202	25696
836.34	25982
836.478	26001
836.615	25620
836.753	25879
836.891	25887
837.029	25845
837.167	25613
837.305	25742
837.443	25811
837.58	25666
837.718	25723
837.856	25696
837.993	25613
838.131	25582
838.269	25483
838.406	25567
838.544	25506
838.681	25282
838.819	25126
838.956	24977
839.094	25156
839.231	25183
839.369	25282
839.506	25510
839.643	25392
839.781	25027
839.918	24966
840.055	25080
840.193	25019
840.33	24992
840.467	25042
840.604	25095
840.742	25164
840.879	24932
841.016	24996
841.153	24913
841.29	25031
841.427	25042
841.564	24958
841.701	24951
841.838	24894
841.975	24882
842.112	24905
842.249	24878
842.385	24623
842.522	25080
842.659	24920
842.796	24658
842.933	24692
843.069	24692
843.206	24585
843.343	24814
843.479	24715
843.616	24764
843.752	24490
843.889	24688
844.025	24681
844.162	24437
844.298	24566
844.435	24490
844.571	24635
844.708	24547
844.844	24650
844.98	24802
845.117	24665
845.253	24452
845.389	24445
845.525	24456
845.661	24372
845.798	24186
845.934	24338
846.07	24213
846.206	24277
846.342	24258
846.478	24277
846.614	23984
846.75	23935
846.886	23931
847.022	23988
847.158	23942
847.294	23969
847.429	23931
847.565	23965
847.701	24300
847.837	23703
847.972	23707
848.108	23794
848.244	23748
848.379	23619
848.515	23516
848.65	23414
848.786	23589
848.921	23589
849.057	23634
849.192	23710
849.328	23509
849.463	23646
849.598	23478
849.734	23383
849.869	23417
850.004	23299
850.14	23322
850.275	23421
850.41	23212
850.545	23277
850.68	23318
850.815	23334
850.95	23299
851.085	23459
851.22	23417
851.355	23345
851.49	23223
851.625	23364
851.76	23364
851.895	23220
852.03	23185
852.165	23360
852.299	23326
852.434	23505
852.569	23398
852.703	23402
852.838	23341
852.973	23440
853.107	23356
853.242	23299
853.376	23159
853.511	23048
853.645	23003
853.78	23200
853.914	23147
854.048	23204
854.183	23102
854.317	23159
854.451	23258
854.585	23109
854.72	23322
854.854	23372
854.988	22976
855.122	23075
855.256	23064
855.39	23010
855.524	23117
855.658	23132
855.792	23242
855.926	23212
856.06	23231
856.194	23200
856.327	23025
856.461	23079
856.595	23109
856.729	23102
856.862	23254
856.996	23170
857.13	23098
857.263	23181
857.397	23159
857.53	23159
857.664	23159
857.797	23189
857.931	23341
858.064	23010
858.197	23208
858.331	23064
858.464	23102
858.597	22957
858.731	22968
858.864	23155
858.997	23037
859.13	23102
859.263	23246
859.396	23147
859.529	23071
859.662	23132
859.795	23159
859.928	23174
860.061	23117
860.194	23288
860.327	23185
860.46	23109
860.592	23242
860.725	23307
860.858	23136
860.99	23056
861.123	23029
861.256	23181
861.388	23075
861.521	23748
861.653	23064
861.786	22881
861.918	22854
862.05	23033
862.183	23018
862.315	23022
862.447	23064
862.58	22999
862.712	22771
862.844	22847
862.976	22934
863.108	22946
863.24	23307
863.372	22820
863.504	22698
863.636	22858
863.768	22759
863.9	22793
864.032	22763
864.164	22786
864.296	22763
864.428	22930
864.559	22847
864.691	22850
864.823	22854
864.954	22835
865.086	22771
865.217	22748
865.349	22557
865.48	22664
865.612	22721
865.743	22858
865.875	22683
866.006	22656
866.137	22702
866.269	22755
866.4	22740
866.531	22596
866.662	22535
866.793	22527
866.924	22622
867.055	22630
867.186	22664
867.317	22584
867.448	22546
867.579	22592
867.71	22462
867.841	22565
867.972	22584
868.103	22462
868.233	22584
868.364	22519
868.495	22725
868.625	22869
868.756	22938
868.886	22656
869.017	22797
869.147	22995
869.278	22942
869.408	22831
869.539	22786
869.669	22847
869.799	22949
869.929	22927
870.06	23006
870.19	23174
870.32	23083
870.45	23170
870.58	23178
870.71	23349
870.84	23337
870.97	23273
871.1	23117
871.23	23444
871.36	23429
871.489	23284
871.619	23391
871.749	23414
871.879	23486
872.008	23672
872.138	23566
872.267	23497
872.397	23455
872.526	23303
872.656	23265
872.785	23277
872.915	23497
873.044	23547
873.173	23512
873.303	23490
873.432	23558
873.561	23672
873.69	23474
873.819	23433
873.948	23493
874.077	23471
874.206	23318
874.335	23581
874.464	23573
874.593	23710
874.722	23695
874.851	23665
874.979	23630
875.108	23783
875.237	23592
875.365	23524
875.494	23646
875.623	23661
875.751	23672
875.88	23657
876.008	23764
876.136	23851
876.265	24110
876.393	24224
876.521	24174
876.65	24068
876.778	24041
876.906	24079
877.034	24003
877.162	23992
877.29	24003
877.418	24060
877.546	24011
877.674	24015
877.802	23889
877.93	24003
878.058	23999
878.185	23859
878.313	23866
878.441	23893
878.568	23843
878.696	24007
878.824	24007
878.951	24083
879.079	24148
879.206	24194
879.333	24068
879.461	24011
879.588	24030
879.715	24300
879.842	24121
879.97	24057
880.097	23817
880.224	23851
880.351	23794
880.478	23973
880.605	23703
880.732	23813
880.859	24098
880.986	23775
881.112	23817
881.239	23676
881.366	23630
881.493	23524
881.619	23387
881.746	23349
881.872	23471
881.999	23395
882.125	23467
882.252	23406
882.378	23273
882.505	23417
882.631	23239
882.757	23022
882.883	23193
883.01	23014
883.136	23083
883.262	22858
883.388	22942
883.514	23067
883.64	23003
883.766	23003
883.892	22843
884.018	22862
884.143	22915
884.269	23029
884.395	22713
884.52	22634
884.646	22641
884.772	22641
884.897	22455
885.023	22710
885.148	22683
885.274	22809
885.399	22725
885.524	22812
885.65	22771
885.775	22637
885.9	22618
886.025	22733
886.15	22755
886.275	22698
886.4	22512
886.525	22592
886.65	22584
886.775	22641
886.9	22759
887.025	22771
887.149	22481
887.274	22561
887.399	22466
887.523	22470
887.648	22325
887.773	22230
887.897	22443
888.021	22451
888.146	22367
888.27	22497
888.395	22493
888.519	22557
888.643	22394
888.767	22367
888.891	22398
889.015	22253
889.139	22223
889.263	22230
889.387	22363
889.511	22485
889.635	22447
889.759	22143
889.883	22150
890.006	22150
890.13	22215
890.254	22249
890.377	22074
890.501	21956
890.624	21941
890.748	22074
890.871	21873
890.995	21812
891.118	21720
891.241	21755
891.364	21720
891.488	21865
891.611	21701
891.734	21675
891.857	21682
891.98	21732
892.103	21797
892.226	21755
892.349	21751
892.471	21519
892.594	21610
892.717	21679
892.839	21660
892.962	21587
893.085	21690
893.207	21557
893.33	21477
893.452	21511
893.575	21694
893.697	21542
893.819	21724
893.941	21759
894.064	21694
894.186	21580
894.308	21424
894.43	21701
894.552	21800
894.674	21644
894.796	21458
894.918	21682
895.04	21557
895.161	21663
895.283	21671
895.405	21557
895.526	21606
895.648	21477
895.769	21564
895.891	21614
896.012	21633
896.134	21622
896.255	21530
896.376	21507
896.498	21595
896.619	21595
896.74	21477
896.861	21542
896.982	21949
897.103	22051
897.224	21865
897.345	21838
897.466	21610
897.587	21739
897.708	21949
897.828	21766
897.949	21705
898.07	21504
898.19	21785
898.311	21892
898.431	21713
898.552	21720
898.672	21812
898.792	21751
898.913	21717
899.033	21629
899.153	21583
899.273	21412
899.393	21473
899.513	21583
899.633	21523
899.753	21325
899.873	21355
899.993	21530
900.113	21435
900.232	21481
900.352	21424
900.472	21325
900.591	21237
900.711	21264
900.83	21192
900.95	21291
901.069	21302
901.189	21112
901.308	20956
901.427	20800
901.546	20807
901.665	20830
901.784	20777
901.904	20670
902.023	20667
902.141	20473
902.26	20377
902.379	20427
902.498	20317
902.617	20324
902.735	20408
902.854	20313
902.973	20240
903.091	20058
903.21	19879
903.328	19921
903.446	19845
903.565	19719
903.683	19746
903.801	19575
903.919	19734
904.038	19742
904.156	19514
904.274	19506
904.392	19559
904.51	19460
904.627	19407
904.745	19548
904.863	19632
904.981	19255
905.098	19156
905.216	19274
905.334	19217
905.451	19213
905.569	19175
905.686	19244
905.803	19213
905.921	18932
906.038	19095
906.155	19061
906.272	18810
906.389	18802
906.506	18779
906.623	18798
906.74	18738
906.857	18635
906.974	18654
907.091	18798
907.208	18798
907.324	18867
907.441	18631
907.557	18490
907.674	18437
907.79	18330
907.907	18273
908.023	18380
908.139	18304
908.256	18285
908.372	18357
908.488	18228
908.604	18190
908.72	18011
908.836	18106
908.952	18049
909.068	18220
909.184	18243
909.3	18053
909.415	18243
909.531	17973
909.647	17863
909.762	17836
909.878	17840
909.993	17786
910.108	17805
910.224	17691
910.339	17779
910.454	17752
910.57	17516
910.685	17497
910.8	17828
910.915	17619
911.03	17585
911.145	17463
911.259	17269
911.374	17364
911.489	17288
911.604	17288
911.718	17052
911.833	17128
911.947	16968
912.062	16938
912.176	17124
912.291	17185
912.405	17132
912.519	17353
912.633	17440
912.748	17094
912.862	17067
912.976	16953
913.09	16835
913.204	16923
913.318	16946
913.431	17052
913.545	16987
913.659	17143
913.772	16881
913.886	16748
914	16755
914.113	16805
914.226	16790
914.34	16736
914.453	16622
914.566	16694
914.68	16672
914.793	16596
914.906	16325
915.019	16268
915.132	16268
915.245	16204
915.358	16276
915.47	16204
915.583	16299
915.696	16424
915.809	16428
915.921	16428
916.034	16299
916.146	16131
916.259	16185
916.371	16215
916.483	16204
916.595	16078
916.708	16219
916.82	16131
916.932	16101
917.044	16135
917.156	16055
917.268	15888
917.38	15941
917.491	15823
917.603	15903
917.715	15964
917.826	15983
917.938	15781
918.049	15808
918.161	15907
918.272	16074
918.384	16044
918.495	15823
918.606	15660
918.717	15553
918.828	15610
918.939	15629
919.05	15488
919.161	15557
919.272	15416
919.383	15568
919.494	15698
919.604	15892
919.715	15584
919.826	15466
919.936	15584
920.047	15724
920.157	15557
920.267	15713
920.378	15629
920.488	15599
920.598	15804
920.708	15953
920.818	15618
920.928	15656
921.038	15899
921.148	15907
921.258	15519
921.368	15386
921.477	15325
921.587	15329
921.697	15192
921.806	15256
921.916	15218
922.025	15032
922.134	14952
922.244	14861
922.353	14933
922.462	14762
922.571	14750
922.68	14621
922.789	14598
922.898	14602
923.007	14473
923.116	14610
923.224	14530
923.333	14564
923.442	14465
923.55	14377
923.659	14434
923.767	14454
923.876	14275
923.984	14370
924.092	14309
924.201	14294
924.309	14240
924.417	14176
924.525	14233
924.633	14240
924.741	15043
924.849	14069
924.956	14088
925.064	13982
925.172	13989
925.279	13940
925.387	13925
925.494	13913
925.602	14016
925.709	13879
925.816	13837
925.924	13860
926.031	13894
926.138	13833
926.245	13879
926.352	13693
926.459	13852
926.566	13788
926.673	13784
926.779	13719
926.886	13571
926.993	13483
927.099	13502
927.206	13388
927.312	13343
927.419	13495
927.525	13422
927.631	13460
927.737	13304
927.843	13327
927.95	13236
928.056	13198
928.162	13282
928.267	13270
928.373	13830
928.479	13278
928.585	13084
928.69	13304
928.796	13232
928.901	13110
929.007	12985
929.112	13038
929.218	12996
929.323	12962
929.428	12954
929.533	12966
929.638	12848
929.743	12867
929.848	12867
929.953	12852
930.058	12817
930.163	12688
930.267	12646
930.372	12772
930.477	12570
930.581	12814
930.685	12734
930.79	12471
930.894	12570
930.998	12414
931.103	12578
931.207	12243
931.311	12171
931.415	12041
931.519	11901
931.623	11840
