Data from test_V78500241_3229.txt Node
Date: Fri Mar 25 16:04:10 CST 2022
User: usil
Spectrometer: V785-0024
Trigger mode: 0
Integration Time (sec): 4.000000E-1
Scans to average: 1
Nonlinearity correction enabled: false
Boxcar width: 0
Storing dark spectrum: false
XAxis mode: Wavelengths
Number of Pixels in Spectrum: 1024
>>>>>Begin Spectral Data<<<<<
801.071	28934
801.214	28953
801.356	28793
801.499	28706
801.641	28481
801.783	28535
801.926	28474
802.068	28557
802.211	28462
802.353	28371
802.496	28299
802.638	28223
802.78	28219
802.923	27991
803.065	28097
803.208	28253
803.35	28204
803.492	28390
803.635	28462
803.777	28257
803.919	28508
804.061	28698
804.204	28554
804.346	28527
804.488	28405
804.63	28272
804.773	28379
804.915	28580
805.057	28622
805.199	28367
805.341	28596
805.483	28618
805.626	28660
805.768	28474
805.91	28626
806.052	28710
806.194	28607
806.336	28790
806.478	28637
806.62	28675
806.762	28835
806.904	28930
807.046	29128
807.188	29140
807.33	29223
807.472	29143
807.614	28991
807.756	29025
807.898	28900
808.04	28873
808.182	28858
808.324	28934
808.465	28999
808.607	29105
808.749	29326
808.891	29345
809.033	29528
809.174	29326
809.316	29311
809.458	29318
809.6	29315
809.741	29406
809.883	29611
810.025	29585
810.166	29524
810.308	29653
810.45	29539
810.591	29558
810.733	29414
810.875	29417
811.016	29204
811.158	29212
811.299	29501
811.441	29512
811.582	29676
811.724	29315
811.865	29322
812.007	29452
812.148	29497
812.29	29589
812.431	29581
812.573	29794
812.714	29699
812.855	29783
812.997	30068
813.138	30030
813.279	29950
813.421	29893
813.562	29882
813.703	29684
813.845	29501
813.986	29284
814.127	29056
814.268	29109
814.41	29102
814.551	29143
814.692	29136
814.833	29018
814.974	29056
815.115	29067
815.256	28980
815.397	28968
815.539	28927
815.68	28930
815.821	28736
815.962	28896
816.103	28919
816.244	28957
816.385	28721
816.526	28630
816.666	28356
816.807	28497
816.948	28508
817.089	28497
817.23	28466
817.371	28474
817.512	28310
817.653	28390
817.793	28234
817.934	28386
818.075	28344
818.216	28519
818.356	28284
818.497	28386
818.638	28078
818.778	28204
818.919	28177
819.06	28223
819.2	28329
819.341	28363
819.481	28367
819.622	28470
819.762	28885
819.903	28668
820.043	28557
820.184	28656
820.324	28405
820.465	28569
820.605	28641
820.746	28653
820.886	28341
821.026	28523
821.167	28599
821.307	28478
821.447	28386
821.588	28314
821.728	28204
821.868	28128
822.008	27884
822.149	27831
822.289	27884
822.429	27671
822.569	27469
822.709	27553
822.849	27405
822.99	27576
823.13	27287
823.27	27355
823.41	27291
823.55	27119
823.69	27321
823.83	27047
823.97	27028
824.11	26967
824.25	26895
824.389	27089
824.529	27077
824.669	26963
824.809	27100
824.949	27188
825.089	27157
825.228	27028
825.368	26944
825.508	26773
825.648	26956
825.787	27017
825.927	26937
826.067	26963
826.206	26899
826.346	26990
826.485	27028
826.625	26857
826.765	26925
826.904	27013
827.044	26758
827.183	26682
827.323	26579
827.462	26834
827.601	26667
827.741	26625
827.88	26735
828.02	26522
828.159	26655
828.298	26807
828.437	26838
828.577	26526
828.716	26746
828.855	26575
828.994	26404
829.134	26442
829.273	26362
829.412	26427
829.551	26218
829.69	26271
829.829	26385
829.968	26473
830.107	26309
830.246	26385
830.385	26259
830.524	26271
830.663	26172
830.802	26100
830.941	26027
831.08	25890
831.219	26088
831.357	26012
831.496	26366
831.635	26005
831.774	25807
831.913	25746
832.051	25689
832.19	25563
832.329	25693
832.467	25639
832.606	25605
832.744	25620
832.883	25597
833.022	25533
833.16	25651
833.299	25738
833.437	25704
833.576	25704
833.714	25712
833.852	25700
833.991	25814
834.129	25685
834.267	25624
834.406	25727
834.544	25628
834.682	25575
834.821	25635
834.959	25822
835.097	25788
835.235	25807
835.373	25712
835.511	25708
835.65	25495
835.788	25468
835.926	25316
836.064	25362
836.202	25282
836.34	25540
836.478	25514
836.615	25438
836.753	25312
836.891	25495
837.029	25479
837.167	25510
837.305	25430
837.443	25396
837.58	25327
837.718	25251
837.856	25335
837.993	25217
838.131	25270
838.269	25168
838.406	25282
838.544	25091
838.681	24966
838.819	24924
838.956	24681
839.094	24589
839.231	24890
839.369	24878
839.506	25137
839.643	25015
839.781	24745
839.918	24753
840.055	24677
840.193	24741
840.33	24665
840.467	24810
840.604	24817
840.742	25012
840.879	24688
841.016	24601
841.153	24540
841.29	24810
841.427	24559
841.564	24696
841.701	24673
841.838	24612
841.975	24551
842.112	24570
842.249	24479
842.385	24464
842.522	24555
842.659	24544
842.796	24346
842.933	24494
843.069	24388
843.206	24471
843.343	24578
843.479	24479
843.616	24399
843.752	24224
843.889	24194
844.025	24475
844.162	24182
844.298	24350
844.435	24155
844.571	24083
844.708	24228
844.844	24414
844.98	24315
845.117	24281
845.253	24201
845.389	24038
845.525	24182
845.661	24083
845.798	23999
845.934	24003
846.07	23893
846.206	23977
846.342	24049
846.478	23958
846.614	23813
846.75	23684
846.886	23718
847.022	23680
847.158	23684
847.294	23737
847.429	23722
847.565	23722
847.701	23851
847.837	23459
847.972	23311
848.108	23395
848.244	23425
848.379	23147
848.515	23216
848.65	23159
848.786	23220
848.921	23288
849.057	23246
849.192	23337
849.328	23376
849.463	23273
849.598	23303
849.734	23185
849.869	23010
850.004	23025
850.14	23105
850.275	22984
850.41	22972
850.545	22828
850.68	23006
850.815	22953
850.95	22999
851.085	23204
851.22	23079
851.355	22999
851.49	23117
851.625	23014
851.76	22934
851.895	22930
852.03	22927
852.165	22961
852.299	22961
852.434	23121
852.569	23052
852.703	23060
852.838	23064
852.973	23242
853.107	23147
853.242	23022
853.376	22881
853.511	22637
853.645	22889
853.78	22987
853.914	22805
854.048	22717
854.183	22771
854.317	22889
854.451	22953
854.585	22869
854.72	22953
854.854	22942
854.988	22717
855.122	22717
855.256	22873
855.39	22774
855.524	22946
855.658	22923
855.792	22752
855.926	22816
856.06	22835
856.194	22923
856.327	22733
856.461	22812
856.595	22790
856.729	22790
856.862	22972
856.996	22733
857.13	22942
857.263	22934
857.397	22877
857.53	22733
857.664	22900
857.797	22812
857.931	22934
858.064	22881
858.197	22930
858.331	22976
858.464	22759
858.597	22812
858.731	22744
858.864	22778
858.997	22881
859.13	22675
859.263	22843
859.396	22862
859.529	22877
859.662	22824
859.795	22622
859.928	22809
860.061	22965
860.194	22930
860.327	22866
860.46	22763
860.592	23006
860.725	23010
860.858	22987
860.99	22843
861.123	22831
861.256	22812
861.388	22820
861.521	23570
861.653	22771
861.786	22630
861.918	22645
862.05	22596
862.183	22847
862.315	22793
862.447	22820
862.58	22702
862.712	22573
862.844	22596
862.976	22694
863.108	22512
863.24	22930
863.372	22577
863.504	22478
863.636	22512
863.768	22565
863.9	22573
864.032	22546
864.164	22603
864.296	22546
864.428	22592
864.559	22615
864.691	22508
864.823	22542
864.954	22455
865.086	22569
865.217	22428
865.349	22356
865.48	22382
865.612	22497
865.743	22451
865.875	22451
866.006	22451
866.137	22443
866.269	22390
866.4	22318
866.531	22417
866.662	22314
866.793	22287
866.924	22360
867.055	22276
867.186	22379
867.317	22402
867.448	22249
867.579	22333
867.71	22310
867.841	22109
867.972	22306
868.103	22371
868.233	22291
868.364	22451
868.495	22421
868.625	22500
868.756	22713
868.886	22535
869.017	22527
869.147	22542
869.278	22554
869.408	22554
869.539	22645
869.669	22691
869.799	22687
869.929	22710
870.06	22725
870.19	22957
870.32	22820
870.45	22991
870.58	22904
870.71	23025
870.84	23204
870.97	22858
871.1	22930
871.23	23136
871.36	23204
871.489	23041
871.619	23105
871.749	23056
871.879	23174
872.008	23174
872.138	23136
872.267	23121
872.397	23048
872.526	22984
872.656	22904
872.785	23010
872.915	23155
873.044	23178
873.173	23197
873.303	23288
873.432	23273
873.561	23242
873.69	23212
873.819	23174
873.948	23273
874.077	23200
874.206	23132
874.335	23220
874.464	23315
874.593	23402
874.722	23296
874.851	23463
874.979	23482
875.108	23395
875.237	23242
875.365	23322
875.494	23376
875.623	23509
875.751	23277
875.88	23398
876.008	23520
876.136	23497
876.265	23729
876.393	23954
876.521	23863
876.65	23927
876.778	23718
876.906	23748
877.034	23691
877.162	23836
877.29	23642
877.418	23684
877.546	23737
877.674	23817
877.802	23874
877.93	23733
878.058	23539
878.185	23707
878.313	23676
878.441	23745
878.568	23573
878.696	23722
878.824	23707
878.951	23767
879.079	23920
879.206	24049
879.333	23866
879.461	23687
879.588	23866
879.715	23912
879.842	24117
879.97	23878
880.097	23581
880.224	23509
880.351	23596
880.478	23691
880.605	23520
880.732	23509
880.859	23687
880.986	23608
881.112	23558
881.239	23562
881.366	23242
881.493	23246
881.619	23102
881.746	23117
881.872	23162
881.999	23067
882.125	23086
882.252	23113
882.378	23067
882.505	23117
882.631	22987
882.757	22778
882.883	22968
883.01	22820
883.136	22637
883.262	22694
883.388	22584
883.514	22831
883.64	22896
883.766	22626
883.892	22550
884.018	22561
884.143	22805
884.269	22809
884.395	22443
884.52	22447
884.646	22405
884.772	22417
884.897	22234
885.023	22337
885.148	22504
885.274	22462
885.399	22535
885.524	22341
885.65	22394
885.775	22371
885.9	22367
886.025	22504
886.15	22489
886.275	22276
886.4	22314
886.525	22325
886.65	22306
886.775	22143
886.9	22455
887.025	22542
887.149	22481
887.274	22234
887.399	22238
887.523	22131
887.648	22032
887.773	22021
887.897	22166
888.021	22211
888.146	22192
888.27	22150
888.395	22154
888.519	22181
888.643	22215
888.767	22128
888.891	22002
889.015	21930
889.139	22051
889.263	21949
889.387	22017
889.511	22169
889.635	22162
889.759	21880
889.883	21907
890.006	21968
890.13	22059
890.254	21926
890.377	21808
890.501	21713
890.624	21644
890.748	21717
890.871	21557
890.995	21469
891.118	21511
891.241	21462
891.364	21473
891.488	21629
891.611	21473
891.734	21568
891.857	21591
891.98	21389
892.103	21583
892.226	21424
892.349	21386
892.471	21325
892.594	21431
892.717	21382
892.839	21321
892.962	21344
893.085	21485
893.207	21393
893.33	21359
893.452	21275
893.575	21424
893.697	21325
893.819	21572
893.941	21625
894.064	21523
894.186	21374
894.308	21306
894.43	21412
894.552	21561
894.674	21496
894.796	21260
894.918	21306
895.04	21226
895.161	21454
895.283	21450
895.405	21321
895.526	21469
895.648	21435
895.769	21431
895.891	21294
896.012	21507
896.134	21511
896.255	21302
896.376	21344
896.498	21104
896.619	21454
896.74	21351
896.861	21405
896.982	21675
897.103	21751
897.224	21606
897.345	21488
897.466	21393
897.587	21488
897.708	21717
897.828	21549
897.949	21431
898.07	21443
898.19	21466
898.311	21591
898.431	21393
898.552	21629
898.672	21682
898.792	21633
898.913	21572
899.033	21378
899.153	21283
899.273	21176
899.393	21466
899.513	21374
899.633	21252
899.753	21283
899.873	21214
899.993	21287
900.113	21131
900.232	21268
900.352	21237
900.472	20998
900.591	20933
900.711	21039
900.83	21047
900.95	21047
901.069	20998
901.189	20902
901.308	20712
901.427	20571
901.546	20659
901.665	20530
901.784	20594
901.904	20530
902.023	20339
902.141	20107
902.26	20256
902.379	20256
902.498	20092
902.617	20005
902.735	20126
902.854	20054
902.973	19974
903.091	19871
903.21	19742
903.328	19803
903.446	19727
903.565	19518
903.683	19639
903.801	19324
903.919	19434
904.038	19540
904.156	19312
904.274	19495
904.392	19297
904.51	19316
904.627	19270
904.745	19324
904.863	19400
904.981	19148
905.098	18878
905.216	19053
905.334	18939
905.451	19038
905.569	18909
905.686	18932
905.803	18890
905.921	18711
906.038	18837
906.155	18783
906.272	18684
906.389	18639
906.506	18578
906.623	18426
906.74	18509
906.857	18323
906.974	18376
907.091	18395
907.208	18673
907.324	18513
907.441	18277
907.557	18098
907.674	18167
907.79	18053
907.907	18171
908.023	18270
908.139	18216
908.256	18152
908.372	18136
908.488	18076
908.604	17973
908.72	17939
908.836	17920
908.952	17916
909.068	17870
909.184	17935
909.3	17840
909.415	17950
909.531	17904
909.647	17634
909.762	17623
909.878	17551
909.993	17516
910.108	17600
910.224	17406
910.339	17520
910.454	17414
910.57	17448
910.685	17334
910.8	17596
910.915	17532
911.03	17440
911.145	17155
911.259	17242
911.374	17189
911.489	17166
911.604	16972
911.718	16972
911.833	16923
911.947	16930
912.062	16831
912.176	16885
912.291	16877
912.405	16854
912.519	17048
912.633	17166
912.748	16991
912.862	16793
912.976	16694
913.09	16618
913.204	16717
913.318	16630
913.431	16717
913.545	16824
913.659	16824
913.772	16584
913.886	16550
914	16459
914.113	16607
914.226	16618
914.34	16497
914.453	16398
914.566	16561
914.68	16386
914.793	16344
914.906	16223
915.019	16032
915.132	16055
915.245	16055
915.358	16067
915.47	16101
915.583	16078
915.696	16109
915.809	16135
915.921	16276
916.034	15975
916.146	16006
916.259	15895
916.371	16067
916.483	15983
916.595	15926
916.708	15922
916.82	15907
916.932	15857
917.044	15842
917.156	15850
917.268	15610
917.38	15762
917.491	15667
917.603	15698
917.715	15622
917.826	15739
917.938	15644
918.049	15542
918.161	15656
918.272	15682
918.384	15789
918.495	15629
918.606	15416
918.717	15340
918.828	15401
918.939	15488
919.05	15279
919.161	15435
919.272	15272
919.383	15192
919.494	15477
919.604	15526
919.715	15279
919.826	15294
919.936	15332
920.047	15405
920.157	15469
920.267	15606
920.378	15340
920.488	15302
920.598	15614
920.708	15603
920.818	15454
920.928	15466
921.038	15599
921.148	15523
921.258	15370
921.368	15279
921.477	15157
921.587	15077
921.697	15001
921.806	15085
921.916	14918
922.025	14727
922.134	14678
922.244	14640
922.353	14727
922.462	14632
922.571	14533
922.68	14389
922.789	14412
922.898	14518
923.007	14374
923.116	14389
923.224	14320
923.333	14252
923.442	14180
923.55	14248
923.659	14210
923.767	14240
923.876	14016
923.984	14202
924.092	14058
924.201	14092
924.309	14065
924.417	14096
924.525	14035
924.633	13993
924.741	14834
924.849	13750
924.956	13970
925.064	13723
925.172	13731
925.279	13723
925.387	13719
925.494	13761
925.602	13833
925.709	13727
925.816	13689
925.924	13696
926.031	13704
926.138	13636
926.245	13685
926.352	13632
926.459	13719
926.566	13655
926.673	13567
926.779	13468
926.886	13449
926.993	13331
927.099	13365
927.206	13232
927.312	13206
927.419	13293
927.525	13247
927.631	13343
927.737	13145
927.843	13129
927.95	13042
928.056	13088
928.162	13080
928.267	13091
928.373	13613
928.479	13088
928.585	12897
928.69	13023
928.796	13095
928.901	12916
929.007	12817
929.112	12939
929.218	12970
929.323	12817
929.428	12726
929.533	12970
929.638	12631
929.743	12665
929.848	12730
929.953	12696
930.058	12612
930.163	12464
930.267	12483
930.372	12566
930.477	12441
930.581	12620
930.685	12490
930.79	12285
930.894	12292
930.998	12304
931.103	12513
931.207	12038
931.311	12026
931.415	11836
931.519	11737
931.623	11684
