Data from test_V78500241_1218.txt Node
Date: Fri Mar 25 15:50:14 CST 2022
User: usil
Spectrometer: V785-0024
Trigger mode: 0
Integration Time (sec): 4.000000E-1
Scans to average: 1
Nonlinearity correction enabled: false
Boxcar width: 0
Storing dark spectrum: false
XAxis mode: Wavelengths
Number of Pixels in Spectrum: 1024
>>>>>Begin Spectral Data<<<<<
801.071	28839
801.214	28729
801.356	28512
801.499	28405
801.641	28303
801.783	28238
801.926	28348
802.068	28341
802.211	28238
802.353	28192
802.496	27998
802.638	27972
802.78	28029
802.923	27937
803.065	27880
803.208	27911
803.35	28082
803.492	28204
803.635	28196
803.777	28150
803.919	28348
804.061	28565
804.204	28284
804.346	28181
804.488	28204
804.63	28086
804.773	28188
804.915	28276
805.057	28310
805.199	28219
805.341	28303
805.483	28413
805.626	28401
805.768	28207
805.91	28322
806.052	28440
806.194	28363
806.336	28717
806.478	28390
806.62	28504
806.762	28561
806.904	28664
807.046	28873
807.188	28736
807.33	29064
807.472	28816
807.614	28729
807.756	28786
807.898	28721
808.04	28672
808.182	28554
808.324	28721
808.465	28831
808.607	28915
808.749	29025
808.891	29269
809.033	29223
809.174	29162
809.316	29060
809.458	29162
809.6	29079
809.741	29083
809.883	29197
810.025	29307
810.166	29436
810.308	29372
810.45	29368
810.591	29349
810.733	29170
810.875	29128
811.016	28987
811.158	29018
811.299	29151
811.441	29337
811.582	29284
811.724	29235
811.865	29220
812.007	29147
812.148	29136
812.29	29143
812.431	29292
812.573	29535
812.714	29608
812.855	29604
812.997	29672
813.138	29726
813.279	29862
813.421	29718
813.562	29558
813.703	29695
813.845	29379
813.986	29102
814.127	29010
814.268	28881
814.41	28881
814.551	28949
814.692	29037
814.833	28790
814.974	28828
815.115	28843
815.256	28748
815.397	28759
815.539	28786
815.68	28615
815.821	28512
815.962	28653
816.103	28706
816.244	28561
816.385	28417
816.526	28424
816.666	28173
816.807	28082
816.948	28185
817.089	28329
817.23	28325
817.371	28223
817.512	28295
817.653	28093
817.793	28181
817.934	28166
818.075	28143
818.216	28131
818.356	28086
818.497	28105
818.638	27869
818.778	27907
818.919	27861
819.06	28021
819.2	28002
819.341	28010
819.481	28097
819.622	28204
819.762	28371
819.903	28443
820.043	28348
820.184	28249
820.324	28322
820.465	28413
820.605	28207
820.746	28253
820.886	28215
821.026	28268
821.167	28204
821.307	28322
821.447	28215
821.588	28082
821.728	27914
821.868	27751
822.008	27755
822.149	27583
822.289	27682
822.429	27329
822.569	27321
822.709	27252
822.849	27131
822.99	27116
823.13	27127
823.27	27154
823.41	27036
823.55	26899
823.69	27116
823.83	27062
823.97	26960
824.11	26872
824.25	26891
824.389	26743
824.529	26933
824.669	26826
824.809	26994
824.949	26868
825.089	26853
825.228	26811
825.368	26659
825.508	26655
825.648	26659
825.787	26659
825.927	26701
826.067	26682
826.206	26739
826.346	26693
826.485	26849
826.625	26644
826.765	26724
826.904	26621
827.044	26404
827.183	26629
827.323	26427
827.462	26450
827.601	26427
827.741	26461
827.88	26473
828.02	26355
828.159	26343
828.298	26552
828.437	26476
828.577	26294
828.716	26499
828.855	26393
828.994	26142
829.134	26031
829.273	26157
829.412	26077
829.551	26122
829.69	26065
829.829	26149
829.968	26286
830.107	26244
830.246	26107
830.385	26031
830.524	26050
830.663	25951
830.802	25871
830.941	25696
831.08	25651
831.219	25864
831.357	25753
831.496	25875
831.635	25677
831.774	25685
831.913	25613
832.051	25502
832.19	25472
832.329	25491
832.467	25396
832.606	25327
832.744	25441
832.883	25266
833.022	25346
833.16	25278
833.299	25377
833.437	25373
833.576	25411
833.714	25468
833.852	25438
833.991	25510
834.129	25616
834.267	25658
834.406	25449
834.544	25502
834.682	25464
834.821	25457
834.959	25666
835.097	25232
835.235	25403
835.373	25362
835.511	25559
835.65	25282
835.788	25388
835.926	25331
836.064	25145
836.202	25015
836.34	25362
836.478	25327
836.615	25244
836.753	25232
836.891	25255
837.029	25164
837.167	25282
837.305	25145
837.443	24981
837.58	25072
837.718	25160
837.856	25236
837.993	25069
838.131	25110
838.269	25031
838.406	24970
838.544	24939
838.681	24776
838.819	24764
838.956	24555
839.094	24509
839.231	24604
839.369	24719
839.506	25099
839.643	24665
839.781	24517
839.918	24616
840.055	24616
840.193	24608
840.33	24414
840.467	24505
840.604	24460
840.742	24703
840.879	24350
841.016	24384
841.153	24357
841.29	24563
841.427	24429
841.564	24559
841.701	24448
841.838	24410
841.975	24414
842.112	24441
842.249	24296
842.385	24292
842.522	24479
842.659	24277
842.796	24266
842.933	24079
843.069	23969
843.206	24235
843.343	24125
843.479	24163
843.616	24152
843.752	24007
843.889	23958
844.025	24121
844.162	24034
844.298	24091
844.435	24038
844.571	23999
844.708	24041
844.844	24129
844.98	24121
845.117	24018
845.253	23805
845.389	23824
845.525	23866
845.661	23729
845.798	23764
845.934	23821
846.07	23737
846.206	23718
846.342	23840
846.478	23619
846.614	23467
846.75	23455
846.886	23509
847.022	23452
847.158	23501
847.294	23505
847.429	23463
847.565	23395
847.701	23661
847.837	23159
847.972	23056
848.108	23311
848.244	23311
848.379	22995
848.515	22987
848.65	23086
848.786	22900
848.921	22942
849.057	23189
849.192	23025
849.328	23094
849.463	23064
849.598	22900
849.734	22984
849.869	22805
850.004	22767
850.14	22873
850.275	22782
850.41	22675
850.545	22733
850.68	22656
850.815	22831
850.95	22736
851.085	23003
851.22	22904
851.355	22835
851.49	22805
851.625	22828
851.76	22778
851.895	22584
852.03	22675
852.165	22812
852.299	22793
852.434	22904
852.569	22809
852.703	22812
852.838	22793
852.973	22953
853.107	22839
853.242	22729
853.376	22618
853.511	22500
853.645	22489
853.78	22820
853.914	22603
854.048	22729
854.183	22542
854.317	22592
854.451	22824
854.585	22675
854.72	22489
854.854	22710
854.988	22702
855.122	22599
855.256	22523
855.39	22630
855.524	22717
855.658	22615
855.792	22577
855.926	22615
856.06	22588
856.194	22672
856.327	22557
856.461	22459
856.595	22519
856.729	22561
856.862	22812
856.996	22618
857.13	22584
857.263	22592
857.397	22744
857.53	22573
857.664	22679
857.797	22687
857.931	22630
858.064	22725
858.197	22752
858.331	22443
858.464	22561
858.597	22523
858.731	22557
858.864	22497
858.997	22618
859.13	22641
859.263	22443
859.396	22653
859.529	22569
859.662	22561
859.795	22561
859.928	22599
860.061	22740
860.194	22698
860.327	22626
860.46	22649
860.592	22672
860.725	22672
860.858	22710
860.99	22546
861.123	22569
861.256	22573
861.388	22630
861.521	23273
861.653	22516
861.786	22428
861.918	22318
862.05	22367
862.183	22493
862.315	22459
862.447	22538
862.58	22497
862.712	22318
862.844	22409
862.976	22424
863.108	22329
863.24	22786
863.372	22215
863.504	22238
863.636	22356
863.768	22280
863.9	22287
864.032	22230
864.164	22162
864.296	22344
864.428	22276
864.559	22348
864.691	22394
864.823	22329
864.954	22325
865.086	22242
865.217	22177
865.349	22090
865.48	22169
865.612	22230
865.743	22348
865.875	22280
866.006	22242
866.137	22265
866.269	22238
866.4	22124
866.531	22139
866.662	22143
866.793	22017
866.924	22112
867.055	22173
867.186	22150
867.317	22128
867.448	22059
867.579	22109
867.71	22010
867.841	22048
867.972	22044
868.103	22002
868.233	22025
868.364	22006
868.495	22211
868.625	22390
868.756	22402
868.886	22207
869.017	22337
869.147	22394
869.278	22512
869.408	22344
869.539	22219
869.669	22375
869.799	22379
869.929	22348
870.06	22459
870.19	22634
870.32	22725
870.45	22649
870.58	22713
870.71	22740
870.84	22881
870.97	22592
871.1	22740
871.23	22793
871.36	22869
871.489	22820
871.619	22923
871.749	23006
871.879	22919
872.008	23071
872.138	22915
872.267	22896
872.397	22698
872.526	22767
872.656	22774
872.785	22850
872.915	22866
873.044	22934
873.173	23071
873.303	23071
873.432	23052
873.561	23151
873.69	22946
873.819	22953
873.948	22927
874.077	22900
874.206	22892
874.335	22938
874.464	23102
874.593	22972
874.722	23143
874.851	23151
874.979	23124
875.108	23170
875.237	23086
875.365	23162
875.494	23162
875.623	23113
875.751	23117
875.88	23159
876.008	23189
876.136	23341
876.265	23554
876.393	23512
876.521	23589
876.65	23471
876.778	23558
876.906	23623
877.034	23433
877.162	23566
877.29	23490
877.418	23455
877.546	23436
877.674	23535
877.802	23505
877.93	23429
878.058	23414
878.185	23391
878.313	23417
878.441	23490
878.568	23318
878.696	23356
878.824	23592
878.951	23539
879.079	23661
879.206	23699
879.333	23596
879.461	23566
879.588	23608
879.715	23691
879.842	23809
879.97	23558
880.097	23414
880.224	23353
880.351	23364
880.478	23307
880.605	23265
880.732	23383
880.859	23429
880.986	23189
881.112	23254
881.239	23128
881.366	23132
881.493	22927
881.619	22957
881.746	22835
881.872	22984
881.999	22797
882.125	22953
882.252	22927
882.378	22820
882.505	22965
882.631	22641
882.757	22782
882.883	22596
883.01	22641
883.136	22531
883.262	22398
883.388	22436
883.514	22542
883.64	22622
883.766	22417
883.892	22238
884.018	22341
884.143	22561
884.269	22580
884.395	22181
884.52	22128
884.646	22211
884.772	22101
884.897	22044
885.023	22166
885.148	22226
885.274	22265
885.399	22272
885.524	22112
885.65	22173
885.775	22226
885.9	22093
886.025	22337
886.15	22310
886.275	22128
886.4	22059
886.525	22097
886.65	22070
886.775	22124
886.9	22284
887.025	22303
887.149	22234
887.274	22070
887.399	22013
887.523	21956
887.648	21835
887.773	21800
887.897	21968
888.021	22048
888.146	21842
888.27	22055
888.395	22021
888.519	21991
888.643	22051
888.767	21918
888.891	21739
889.015	21667
889.139	21812
889.263	21717
889.387	21819
889.511	21884
889.635	21873
889.759	21759
889.883	21629
890.006	21774
890.13	21800
890.254	21580
890.377	21667
890.501	21500
890.624	21485
890.748	21450
890.871	21439
890.995	21256
891.118	21188
891.241	21313
891.364	21336
891.488	21454
891.611	21336
891.734	21329
891.857	21275
891.98	21237
892.103	21222
892.226	21291
892.349	21211
892.471	21009
892.594	21089
892.717	21154
892.839	21241
892.962	21146
893.085	21077
893.207	21127
893.33	21013
893.452	21077
893.575	21176
893.697	21116
893.819	21325
893.941	21313
894.064	21245
894.186	21150
894.308	21074
894.43	21237
894.552	21249
894.674	21043
894.796	21070
894.918	20982
895.04	21119
895.161	21211
895.283	21154
895.405	21062
895.526	21150
895.648	21085
895.769	21096
895.891	21112
896.012	21214
896.134	21161
896.255	21116
896.376	21020
896.498	21203
896.619	21142
896.74	21108
896.861	21112
896.982	21389
897.103	21504
897.224	21488
897.345	21336
897.466	21272
897.587	21405
897.708	21454
897.828	21355
897.949	21344
898.07	21252
898.19	21313
898.311	21439
898.431	21249
898.552	21332
898.672	21332
898.792	21408
898.913	21317
899.033	21195
899.153	21188
899.273	20960
899.393	21093
899.513	21074
899.633	21112
899.753	20982
899.873	20902
899.993	21214
900.113	20963
900.232	20994
900.352	20887
900.472	20914
900.591	20819
900.711	20872
900.83	20785
900.95	20883
901.069	20902
901.189	20746
901.308	20488
901.427	20473
901.546	20480
901.665	20526
901.784	20294
901.904	20259
902.023	20115
902.141	20035
902.26	19928
902.379	20001
902.498	20046
902.617	19826
902.735	19936
902.854	19921
902.973	19791
903.091	19567
903.21	19578
903.328	19662
903.446	19506
903.565	19384
903.683	19369
903.801	19221
903.919	19362
904.038	19232
904.156	19088
904.274	19069
904.392	19065
904.51	19289
904.627	19031
904.745	19084
904.863	19118
904.981	18878
905.098	18700
905.216	18772
905.334	18787
905.451	18787
905.569	18681
905.686	18757
905.803	18593
905.921	18509
906.038	18654
906.155	18582
906.272	18540
906.389	18540
906.506	18319
906.623	18281
906.74	18372
906.857	18182
906.974	18091
907.091	18407
907.208	18376
907.324	18235
907.441	18220
907.557	18007
907.674	18007
907.79	17939
907.907	18026
908.023	18015
908.139	18026
908.256	17942
908.372	17828
908.488	17798
908.604	17786
908.72	17752
908.836	17798
908.952	17687
909.068	17722
909.184	17824
909.3	17710
909.415	17737
909.531	17619
909.647	17349
909.762	17459
909.878	17448
909.993	17368
910.108	17353
910.224	17376
910.339	17391
910.454	17235
910.57	17227
910.685	17151
910.8	17391
910.915	17265
911.03	17200
911.145	17014
911.259	17045
911.374	16984
911.489	16930
911.604	16869
911.718	16744
911.833	16786
911.947	16679
912.062	16565
912.176	16740
912.291	16744
912.405	16740
912.519	16957
912.633	16927
912.748	16873
912.862	16706
912.976	16554
913.09	16455
913.204	16462
913.318	16573
913.431	16615
913.545	16569
913.659	16603
913.772	16436
913.886	16352
914	16371
914.113	16497
914.226	16405
914.34	16371
914.453	16143
914.566	16265
914.68	16071
914.793	16223
914.906	15949
915.019	15949
915.132	15873
915.245	15827
915.358	15922
915.47	15918
915.583	15876
915.696	15930
915.809	16040
915.921	16006
916.034	15941
916.146	15762
916.259	15739
916.371	15869
916.483	15873
916.595	15660
916.708	15781
916.82	15793
916.932	15698
917.044	15671
917.156	15682
917.268	15625
917.38	15614
917.491	15526
917.603	15534
917.715	15641
917.826	15591
917.938	15504
918.049	15428
918.161	15492
918.272	15663
918.384	15610
918.495	15408
918.606	15332
918.717	15272
918.828	15264
918.939	15367
919.05	15218
919.161	15180
919.272	15104
919.383	15097
919.494	15260
919.604	15462
919.715	15294
919.826	15119
919.936	15188
920.047	15294
920.157	15264
920.267	15351
920.378	15241
920.488	15165
920.598	15294
920.708	15507
920.818	15344
920.928	15237
921.038	15447
921.148	15386
921.258	15066
921.368	15089
921.477	15039
921.587	14914
921.697	14796
921.806	14975
921.916	14815
922.025	14598
922.134	14541
922.244	14602
922.353	14632
922.462	14393
922.571	14427
922.68	14271
922.789	14225
922.898	14191
923.007	14157
923.116	14206
923.224	14225
923.333	14107
923.442	14187
923.55	13963
923.659	14050
923.767	14062
923.876	13932
923.984	14092
924.092	13894
924.201	14012
924.309	13967
924.417	13909
924.525	13883
924.633	13818
924.741	14636
924.849	13582
924.956	13780
925.064	13632
925.172	13616
925.279	13670
925.387	13594
925.494	13620
925.602	13742
925.709	13632
925.816	13468
925.924	13533
926.031	13643
926.138	13597
926.245	13575
926.352	13400
926.459	13491
926.566	13571
926.673	13502
926.779	13282
926.886	13350
926.993	13179
927.099	13141
927.206	13137
927.312	13107
927.419	13190
927.525	13107
927.631	13122
927.737	12954
927.843	13008
927.95	12932
928.056	12920
928.162	12962
928.267	12973
928.373	13613
928.479	13012
928.585	12814
928.69	12840
928.796	12913
928.901	12787
929.007	12696
929.112	12764
929.218	12806
929.323	12692
929.428	12601
929.533	12810
929.638	12570
929.743	12604
929.848	12635
929.953	12585
930.058	12486
930.163	12315
930.267	12369
930.372	12422
930.477	12243
930.581	12570
930.685	12365
930.79	12140
930.894	12258
930.998	12190
931.103	12292
931.207	11958
931.311	11889
931.415	11748
931.519	11516
931.623	11600
