Data from test_V78500241_1044.txt Node
Date: Fri Mar 25 15:49:02 CST 2022
User: usil
Spectrometer: V785-0024
Trigger mode: 0
Integration Time (sec): 4.000000E-1
Scans to average: 1
Nonlinearity correction enabled: false
Boxcar width: 0
Storing dark spectrum: false
XAxis mode: Wavelengths
Number of Pixels in Spectrum: 1024
>>>>>Begin Spectral Data<<<<<
801.071	28139
801.214	28078
801.356	28010
801.499	27857
801.641	27686
801.783	27789
801.926	27812
802.068	27739
802.211	27705
802.353	27603
802.496	27405
802.638	27412
802.78	27287
802.923	27359
803.065	27321
803.208	27340
803.35	27325
803.492	27408
803.635	27701
803.777	27367
803.919	27625
804.061	27926
804.204	27656
804.346	27416
804.488	27462
804.63	27583
804.773	27530
804.915	27523
805.057	27709
805.199	27519
805.341	27629
805.483	27873
805.626	27781
805.768	27542
805.91	27656
806.052	27762
806.194	27736
806.336	28029
806.478	27800
806.62	27652
806.762	27816
806.904	27987
807.046	28310
807.188	28158
807.33	28215
807.472	28234
807.614	28010
807.756	28139
807.898	28006
808.04	28032
808.182	27998
808.324	28169
808.465	28006
808.607	28192
808.749	28352
808.891	28615
809.033	28634
809.174	28470
809.316	28314
809.458	28478
809.6	28413
809.741	28466
809.883	28577
810.025	28744
810.166	28664
810.308	28706
810.45	28721
810.591	28611
810.733	28557
810.875	28394
811.016	28367
811.158	28341
811.299	28394
811.441	28531
811.582	28516
811.724	28386
811.865	28577
812.007	28489
812.148	28478
812.29	28432
812.431	28607
812.573	28618
812.714	28892
812.855	28980
812.997	29060
813.138	29132
813.279	29086
813.421	29022
813.562	29010
813.703	28888
813.845	28603
813.986	28333
814.127	28230
814.268	28120
814.41	28135
814.551	28188
814.692	28177
814.833	28006
814.974	27964
815.115	28131
815.256	27968
815.397	28070
815.539	27945
815.68	27983
815.821	27865
815.962	27960
816.103	27876
816.244	27876
816.385	27804
816.526	27701
816.666	27629
816.807	27420
816.948	27481
817.089	27595
817.23	27580
817.371	27420
817.512	27401
817.653	27488
817.793	27420
817.934	27447
818.075	27443
818.216	27420
818.356	27466
818.497	27211
818.638	27245
818.778	27024
818.919	27146
819.06	27279
819.2	27245
819.341	27576
819.481	27454
819.622	27587
819.762	27614
819.903	27713
820.043	27648
820.184	27583
820.324	27523
820.465	27641
820.605	27663
820.746	27523
820.886	27386
821.026	27481
821.167	27507
821.307	27557
821.447	27485
821.588	27340
821.728	27348
821.868	27032
822.008	26933
822.149	26921
822.289	26944
822.429	26701
822.569	26670
822.709	26617
822.849	26434
822.99	26469
823.13	26434
823.27	26385
823.41	26294
823.55	26248
823.69	26282
823.83	26248
823.97	26328
824.11	26058
824.25	26088
824.389	26153
824.529	26096
824.669	26237
824.809	26142
824.949	26130
825.089	26138
825.228	26103
825.368	25982
825.508	25928
825.648	25966
825.787	25993
825.927	26020
826.067	25993
826.206	25947
826.346	26081
826.485	26069
826.625	25879
826.765	26161
826.904	26001
827.044	25879
827.183	25837
827.323	25681
827.462	25868
827.601	25563
827.741	25704
827.88	25643
828.02	25651
828.159	25734
828.298	25742
828.437	25674
828.577	25677
828.716	25780
828.855	25655
828.994	25365
829.134	25308
829.273	25339
829.412	25289
829.551	25373
829.69	25521
829.829	25499
829.968	25483
830.107	25320
830.246	25384
830.385	25293
830.524	25453
830.663	25187
830.802	25126
830.941	24886
831.08	24943
831.219	25091
831.357	24920
831.496	25194
831.635	24875
831.774	24943
831.913	24928
832.051	24726
832.19	24696
832.329	24753
832.467	24753
832.606	24631
832.744	24566
832.883	24738
833.022	24665
833.16	24700
833.299	24665
833.437	24722
833.576	24703
833.714	24798
833.852	24650
833.991	24738
834.129	24840
834.267	24787
834.406	24734
834.544	24760
834.682	24844
834.821	24566
834.959	24875
835.097	24616
835.235	24688
835.373	24627
835.511	24658
835.65	24490
835.788	24578
835.926	24292
836.064	24311
836.202	24323
836.34	24547
836.478	24627
836.615	24608
836.753	24521
836.891	24673
837.029	24639
837.167	24502
837.305	24308
837.443	24372
837.58	24330
837.718	24433
837.856	24330
837.993	24346
838.131	24369
838.269	24194
838.406	24194
838.544	24095
838.681	24133
838.819	23878
838.956	23916
839.094	23779
839.231	23904
839.369	23965
839.506	24114
839.643	24163
839.781	23824
839.918	23741
840.055	23821
840.193	23874
840.33	23623
840.467	23866
840.604	23802
840.742	24038
840.879	23615
841.016	23813
841.153	23661
841.29	23783
841.427	23794
841.564	23836
841.701	23870
841.838	23649
841.975	23649
842.112	23726
842.249	23653
842.385	23619
842.522	23767
842.659	23600
842.796	23638
842.933	23425
843.069	23608
843.206	23239
843.343	23554
843.479	23554
843.616	23421
843.752	23189
843.889	23421
844.025	23330
844.162	23242
844.298	23414
844.435	23094
844.571	23212
844.708	23273
844.844	23406
844.98	23478
845.117	23345
845.253	23254
845.389	23090
845.525	23277
845.661	23003
845.798	23014
845.934	23079
846.07	23064
846.206	22957
846.342	23083
846.478	22949
846.614	22881
846.75	22626
846.886	22733
847.022	22843
847.158	22755
847.294	22702
847.429	22820
847.565	22637
847.701	22968
847.837	22409
847.972	22466
848.108	22424
848.244	22504
848.379	22382
848.515	22253
848.65	22253
848.786	22284
848.921	22367
849.057	22447
849.192	22371
849.328	22360
849.463	22318
849.598	22219
849.734	22196
849.869	22177
850.004	22029
850.14	22059
850.275	22116
850.41	21922
850.545	22025
850.68	22055
850.815	22078
850.95	22002
851.085	22207
851.22	22192
851.355	22048
851.49	22097
851.625	22097
851.76	22048
851.895	22006
852.03	22055
852.165	22116
852.299	22147
852.434	22131
852.569	21964
852.703	22070
852.838	22078
852.973	22375
853.107	22185
853.242	21975
853.376	21915
853.511	21701
853.645	21747
853.78	22147
853.914	21854
854.048	21876
854.183	21835
854.317	21888
854.451	22002
854.585	22017
854.72	21880
854.854	22055
854.988	21857
855.122	21922
855.256	21797
855.39	21915
855.524	21941
855.658	21911
855.792	21945
855.926	21895
856.06	21918
856.194	21956
856.327	21808
856.461	21873
856.595	21998
856.729	21892
856.862	21983
856.996	22013
857.13	22051
857.263	21994
857.397	22040
857.53	21808
857.664	21797
857.797	21979
857.931	22029
858.064	21991
858.197	22017
858.331	21804
858.464	21751
858.597	21713
858.731	21899
858.864	21831
858.997	21899
859.13	21823
859.263	21899
859.396	21892
859.529	21842
859.662	21808
859.795	21857
859.928	21865
860.061	22101
860.194	22090
860.327	22048
860.46	21846
860.592	22055
860.725	22040
860.858	22078
860.99	21926
861.123	21728
861.256	21915
861.388	21831
861.521	22592
861.653	21766
861.786	21675
861.918	21682
862.05	21789
862.183	21842
862.315	21869
862.447	21888
862.58	21831
862.712	21614
862.844	21618
862.976	21686
863.108	21614
863.24	22067
863.372	21644
863.504	21705
863.636	21614
863.768	21686
863.9	21561
864.032	21595
864.164	21553
864.296	21614
864.428	21743
864.559	21530
864.691	21648
864.823	21652
864.954	21526
865.086	21466
865.217	21599
865.349	21359
865.48	21553
865.612	21526
865.743	21614
865.875	21530
866.006	21534
866.137	21428
866.269	21424
866.4	21530
866.531	21424
866.662	21367
866.793	21283
866.924	21378
867.055	21469
867.186	21420
867.317	21340
867.448	21351
867.579	21485
867.71	21321
867.841	21382
867.972	21378
868.103	21416
868.233	21443
868.364	21359
868.495	21485
868.625	21614
868.756	21835
868.886	21606
869.017	21488
869.147	21732
869.278	21842
869.408	21583
869.539	21652
869.669	21690
869.799	21675
869.929	21819
870.06	21808
870.19	21888
870.32	21915
870.45	22029
870.58	22093
870.71	22147
870.84	22139
870.97	22162
871.1	21949
871.23	22185
871.36	22295
871.489	22162
871.619	22181
871.749	22329
871.879	22234
872.008	22428
872.138	22238
872.267	22223
872.397	22226
872.526	22105
872.656	22010
872.785	22131
872.915	22356
873.044	22261
873.173	22226
873.303	22417
873.432	22375
873.561	22310
873.69	22192
873.819	22272
873.948	22348
874.077	22230
874.206	22230
874.335	22280
874.464	22405
874.593	22523
874.722	22405
874.851	22436
874.979	22603
875.108	22531
875.237	22481
875.365	22493
875.494	22390
875.623	22603
875.751	22569
875.88	22607
876.008	22607
876.136	22767
876.265	22911
876.393	23094
876.521	22991
876.65	22927
876.778	22938
876.906	22771
877.034	22763
877.162	22904
877.29	22824
877.418	22740
877.546	22790
877.674	22854
877.802	22782
877.93	22889
878.058	22885
878.185	22797
878.313	22866
878.441	22873
878.568	22782
878.696	22896
878.824	22908
878.951	22938
879.079	23098
879.206	23140
879.333	22999
879.461	22805
879.588	22896
879.715	23037
879.842	23121
879.97	22923
880.097	22748
880.224	22577
880.351	22527
880.478	22702
880.605	22584
880.732	22660
880.859	22831
880.986	22694
881.112	22729
881.239	22573
881.366	22367
881.493	22352
881.619	22204
881.746	22329
881.872	22299
881.999	22181
882.125	22295
882.252	22219
882.378	22109
882.505	22219
882.631	22154
882.757	21994
882.883	22006
883.01	21941
883.136	21747
883.262	21819
883.388	21755
883.514	21930
883.64	21949
883.766	21762
883.892	21698
884.018	21587
884.143	21911
884.269	21918
884.395	21667
884.52	21583
884.646	21504
884.772	21275
884.897	21424
885.023	21629
885.148	21610
885.274	21720
885.399	21671
885.524	21542
885.65	21610
885.775	21553
885.9	21477
886.025	21709
886.15	21515
886.275	21485
886.4	21477
886.525	21519
886.65	21564
886.775	21405
886.9	21774
887.025	21709
887.149	21473
887.274	21279
887.399	21386
887.523	21291
887.648	21241
887.773	21192
887.897	21435
888.021	21382
888.146	21233
888.27	21408
888.395	21450
888.519	21412
888.643	21393
888.767	21332
888.891	21169
889.015	21161
889.139	21150
889.263	21020
889.387	21176
889.511	21348
889.635	21283
889.759	21131
889.883	21077
890.006	20990
890.13	21237
890.254	20963
890.377	20960
890.501	20990
890.624	20731
890.748	20811
890.871	20788
890.995	20689
891.118	20613
891.241	20663
891.364	20754
891.488	20705
891.611	20632
891.734	20663
891.857	20853
891.98	20632
892.103	20785
892.226	20727
892.349	20625
892.471	20522
892.594	20564
892.717	20807
892.839	20621
892.962	20594
893.085	20598
893.207	20431
893.33	20533
893.452	20499
893.575	20625
893.697	20518
893.819	20746
893.941	20731
894.064	20670
894.186	20362
894.308	20518
894.43	20590
894.552	20697
894.674	20598
894.796	20488
894.918	20518
895.04	20484
895.161	20640
895.283	20613
895.405	20419
895.526	20663
895.648	20545
895.769	20590
895.891	20545
896.012	20640
896.134	20670
896.255	20526
896.376	20495
896.498	20598
896.619	20549
896.74	20465
896.861	20594
896.982	20963
897.103	20941
897.224	20739
897.345	20815
897.466	20724
897.587	20746
897.708	21093
897.828	20750
897.949	20777
898.07	20609
898.19	20720
898.311	20781
898.431	20800
898.552	20750
898.672	20830
898.792	20937
898.913	20693
899.033	20640
899.153	20682
899.273	20530
899.393	20583
899.513	20583
899.633	20495
899.753	20545
899.873	20537
899.993	20579
900.113	20457
900.232	20461
900.352	20446
900.472	20374
900.591	20313
900.711	20324
900.83	20130
900.95	20381
901.069	20415
901.189	20145
901.308	19986
901.427	19837
901.546	19898
901.665	19959
901.784	19928
901.904	19723
902.023	19601
902.141	19480
902.26	19411
902.379	19502
902.498	19422
902.617	19335
902.735	19373
902.854	19362
902.973	19343
903.091	19118
903.21	19046
903.328	19129
903.446	19072
903.565	18840
903.683	18875
903.801	18631
903.919	18817
904.038	18791
904.156	18563
904.274	18741
904.392	18566
904.51	18589
904.627	18521
904.745	18506
904.863	18711
904.981	18498
905.098	18186
905.216	18300
905.334	18220
905.451	18357
905.569	18247
905.686	18334
905.803	18205
905.921	18087
906.038	18182
906.155	18209
906.272	17889
906.389	18003
906.506	17752
906.623	17863
906.74	17779
906.857	17703
906.974	17581
907.091	17859
907.208	17999
907.324	17752
907.441	17676
907.557	17512
907.674	17406
907.79	17463
907.907	17452
908.023	17611
908.139	17490
908.256	17482
908.372	17326
908.488	17379
908.604	17334
908.72	17254
908.836	17269
908.952	17105
909.068	17288
909.184	17330
909.3	17170
909.415	17231
909.531	17280
909.647	16949
909.762	16999
909.878	16869
909.993	16911
910.108	16866
910.224	16854
910.339	16919
910.454	16786
910.57	16774
910.685	16634
910.8	16915
910.915	16915
911.03	16721
911.145	16470
911.259	16527
911.374	16584
911.489	16462
911.604	16322
911.718	16348
911.833	16287
911.947	16166
912.062	16238
912.176	16379
912.291	16242
912.405	16234
912.519	16462
912.633	16466
912.748	16322
912.862	16238
912.976	16143
913.09	15884
913.204	15968
913.318	16185
913.431	16196
913.545	16166
913.659	16204
913.772	16086
913.886	15869
914	15884
914.113	15960
914.226	16002
914.34	15934
914.453	15751
914.566	15937
914.68	15679
914.793	15755
914.906	15519
915.019	15507
915.132	15462
915.245	15469
915.358	15351
915.47	15439
915.583	15386
915.696	15526
915.809	15572
915.921	15629
916.034	15378
916.146	15321
916.259	15393
916.371	15447
916.483	15435
916.595	15363
916.708	15294
916.82	15363
916.932	15283
917.044	15287
917.156	15218
917.268	15100
917.38	15036
917.491	15123
917.603	15131
917.715	15207
917.826	15195
917.938	15089
918.049	14990
918.161	14990
918.272	15138
918.384	15104
918.495	14982
918.606	14986
918.717	14800
918.828	14891
918.939	14883
919.05	14762
919.161	14800
919.272	14636
919.383	14674
919.494	14906
919.604	15074
919.715	14830
919.826	14758
919.936	14849
920.047	14872
920.157	14891
920.267	14910
920.378	14724
920.488	14720
920.598	14902
920.708	15085
920.818	14861
920.928	14933
921.038	15142
921.148	15104
921.258	14834
921.368	14712
921.477	14571
921.587	14587
921.697	14507
921.806	14568
921.916	14393
922.025	14202
922.134	14145
922.244	14119
922.353	14153
922.462	14058
922.571	13959
922.68	13868
922.789	13818
922.898	13864
923.007	13734
923.116	13811
923.224	13852
923.333	13879
923.442	13715
923.55	13601
923.659	13666
923.767	13651
923.876	13499
923.984	13590
924.092	13537
924.201	13556
924.309	13628
924.417	13597
924.525	13407
924.633	13438
924.741	14115
924.849	13301
924.956	13400
925.064	13190
925.172	13187
925.279	13209
925.387	13297
925.494	13194
925.602	13320
925.709	13221
925.816	13012
925.924	13175
926.031	13270
926.138	13118
926.245	13171
926.352	13080
926.459	13206
926.566	13251
926.673	13080
926.779	12966
926.886	12954
926.993	12833
927.099	12745
927.206	12711
927.312	12726
927.419	12821
927.525	12760
927.631	12749
927.737	12665
927.843	12654
927.95	12540
928.056	12658
928.162	12597
928.267	12639
928.373	13126
928.479	12726
928.585	12380
928.69	12544
928.796	12585
928.901	12353
929.007	12213
929.112	12384
929.218	12407
929.323	12407
929.428	12194
929.533	12498
929.638	12254
929.743	12319
929.848	12300
929.953	12205
930.058	12136
930.163	11927
930.267	11961
930.372	12178
930.477	11893
930.581	12163
930.685	12091
930.79	11832
930.894	11916
930.998	11908
931.103	12053
931.207	11661
931.311	11539
931.415	11471
931.519	11299
931.623	11265
