Data from test_V78500241_2683.txt Node
Date: Fri Mar 25 16:00:23 CST 2022
User: usil
Spectrometer: V785-0024
Trigger mode: 0
Integration Time (sec): 4.000000E-1
Scans to average: 1
Nonlinearity correction enabled: false
Boxcar width: 0
Storing dark spectrum: false
XAxis mode: Wavelengths
Number of Pixels in Spectrum: 1024
>>>>>Begin Spectral Data<<<<<
801.071	28626
801.214	28687
801.356	28462
801.499	28478
801.641	28215
801.783	28230
801.926	28398
802.068	28421
802.211	28188
802.353	28093
802.496	28173
802.638	27972
802.78	27964
802.923	27831
803.065	27800
803.208	27816
803.35	27804
803.492	28074
803.635	28177
803.777	28063
803.919	28116
804.061	28493
804.204	28128
804.346	28147
804.488	28090
804.63	28333
804.773	28150
804.915	28379
805.057	28333
805.199	28219
805.341	28325
805.483	28436
805.626	28253
805.768	28329
805.91	28405
806.052	28417
806.194	28284
806.336	28523
806.478	28417
806.62	28375
806.762	28489
806.904	28508
807.046	29018
807.188	28927
807.33	28797
807.472	28877
807.614	28801
807.756	28771
807.898	28668
808.04	28466
808.182	28729
808.324	28717
808.465	28607
808.607	28911
808.749	29140
808.891	29075
809.033	29242
809.174	29178
809.316	29006
809.458	29029
809.6	28938
809.741	29124
809.883	29216
810.025	29353
810.166	29315
810.308	29326
810.45	29193
810.591	29178
810.733	29204
810.875	29128
811.016	29132
811.158	28888
811.299	29181
811.441	29246
811.582	29277
811.724	29143
811.865	28987
812.007	29006
812.148	29223
812.29	29178
812.431	29250
812.573	29493
812.714	29520
812.855	29440
812.997	29589
813.138	29802
813.279	29566
813.421	29577
813.562	29490
813.703	29417
813.845	29303
813.986	28942
814.127	28858
814.268	28660
814.41	28812
814.551	28752
814.692	28877
814.833	28710
814.974	28824
815.115	28656
815.256	28523
815.397	28557
815.539	28615
815.68	28645
815.821	28519
815.962	28618
816.103	28588
816.244	28443
816.385	28344
816.526	28299
816.666	28341
816.807	28067
816.948	28143
817.089	28295
817.23	27964
817.371	28101
817.512	28025
817.653	27914
817.793	28059
817.934	28154
818.075	28040
818.216	28048
818.356	28063
818.497	27926
818.638	27713
818.778	27808
818.919	27850
819.06	27960
819.2	28002
819.341	27953
819.481	27941
819.622	28234
819.762	28451
819.903	28310
820.043	28314
820.184	28291
820.324	28329
820.465	28230
820.605	28215
820.746	28135
820.886	27994
821.026	28086
821.167	28036
821.307	28242
821.447	28154
821.588	28051
821.728	27819
821.868	27736
822.008	27534
822.149	27564
822.289	27690
822.429	27180
822.569	27138
822.709	27325
822.849	27199
822.99	27062
823.13	27051
823.27	27062
823.41	26956
823.55	26682
823.69	26861
823.83	27005
823.97	26815
824.11	26583
824.25	26693
824.389	26632
824.529	26758
824.669	26720
824.809	26777
824.949	26762
825.089	26834
825.228	26720
825.368	26469
825.508	26568
825.648	26625
825.787	26552
825.927	26598
826.067	26533
826.206	26640
826.346	26644
826.485	26632
826.625	26598
826.765	26579
826.904	26670
827.044	26396
827.183	26461
827.323	26271
827.462	26533
827.601	26339
827.741	26290
827.88	26317
828.02	26161
828.159	26153
828.298	26313
828.437	26259
828.577	26153
828.716	26465
828.855	26259
828.994	26035
829.134	26020
829.273	26005
829.412	25982
829.551	25932
829.69	26012
829.829	25955
829.968	26100
830.107	26100
830.246	25940
830.385	25925
830.524	25875
830.663	25704
830.802	25734
830.941	25476
831.08	25552
831.219	25681
831.357	25723
831.496	25852
831.635	25700
831.774	25525
831.913	25449
832.051	25468
832.19	25491
832.329	25479
832.467	25312
832.606	25270
832.744	25297
832.883	25346
833.022	25232
833.16	25217
833.299	25293
833.437	25213
833.576	25232
833.714	25350
833.852	25343
833.991	25362
834.129	25544
834.267	25548
834.406	25369
834.544	25339
834.682	25396
834.821	25274
834.959	25426
835.097	25247
835.235	25377
835.373	25335
835.511	25316
835.65	25183
835.788	25240
835.926	25137
836.064	24928
836.202	24890
836.34	25099
836.478	25346
836.615	25236
836.753	25225
836.891	25190
837.029	25285
837.167	25145
837.305	25095
837.443	25053
837.58	25012
837.718	25065
837.856	25061
837.993	24951
838.131	24970
838.269	24863
838.406	24935
838.544	24829
838.681	24486
838.819	24578
838.956	24456
839.094	24479
839.231	24486
839.369	24627
839.506	24894
839.643	24635
839.781	24433
839.918	24483
840.055	24350
840.193	24388
840.33	24247
840.467	24384
840.604	24414
840.742	24623
840.879	24273
841.016	24361
841.153	24258
841.29	24456
841.427	24437
841.564	24414
841.701	24395
841.838	24460
841.975	24190
842.112	24239
842.249	24201
842.385	24247
842.522	24365
842.659	24064
842.796	24235
842.933	24133
843.069	24102
843.206	24178
843.343	24167
843.479	24102
843.616	24136
843.752	23973
843.889	23923
844.025	24026
844.162	23878
844.298	23973
844.435	23893
844.571	23908
844.708	24034
844.844	23958
844.98	24053
845.117	24060
845.253	23878
845.389	23756
845.525	23775
845.661	23733
845.798	23649
845.934	23745
846.07	23657
846.206	23714
846.342	23851
846.478	23566
846.614	23395
846.75	23261
846.886	23402
847.022	23360
847.158	23368
847.294	23322
847.429	23478
847.565	23330
847.701	23535
847.837	23102
847.972	22995
848.108	23113
848.244	23136
848.379	22965
848.515	22896
848.65	22927
848.786	22869
848.921	22976
849.057	23064
849.192	23086
849.328	22965
849.463	22919
849.598	22828
849.734	22755
849.869	22896
850.004	22733
850.14	22786
850.275	22759
850.41	22691
850.545	22733
850.68	22588
850.815	22717
850.95	22596
851.085	22839
851.22	22915
851.355	22725
851.49	22717
851.625	22557
851.76	22710
851.895	22569
852.03	22615
852.165	22672
852.299	22675
852.434	22797
852.569	22687
852.703	22740
852.838	22736
852.973	22615
853.107	22957
853.242	22637
853.376	22523
853.511	22421
853.645	22637
853.78	22577
853.914	22577
854.048	22535
854.183	22535
854.317	22546
854.451	22668
854.585	22489
854.72	22474
854.854	22611
854.988	22527
855.122	22561
855.256	22531
855.39	22497
855.524	22713
855.658	22535
855.792	22618
855.926	22584
856.06	22478
856.194	22592
856.327	22333
856.461	22474
856.595	22550
856.729	22478
856.862	22634
856.996	22634
857.13	22554
857.263	22569
857.397	22637
857.53	22546
857.664	22615
857.797	22607
857.931	22603
858.064	22481
858.197	22634
858.331	22459
858.464	22481
858.597	22409
858.731	22481
858.864	22428
858.997	22485
859.13	22592
859.263	22573
859.396	22500
859.529	22596
859.662	22428
859.795	22432
859.928	22500
860.061	22630
860.194	22691
860.327	22630
860.46	22729
860.592	22626
860.725	22725
860.858	22630
860.99	22675
861.123	22375
861.256	22535
861.388	22531
861.521	23284
861.653	22386
861.786	22356
861.918	22341
862.05	22428
862.183	22455
862.315	22436
862.447	22466
862.58	22443
862.712	22200
862.844	22048
862.976	22363
863.108	22402
863.24	22740
863.372	22211
863.504	22166
863.636	22154
863.768	22352
863.9	22295
864.032	22173
864.164	22112
864.296	22287
864.428	22249
864.559	22402
864.691	22249
864.823	22253
864.954	22162
865.086	22223
865.217	22139
865.349	22036
865.48	22310
865.612	22093
865.743	22318
865.875	22093
866.006	22158
866.137	22177
866.269	22074
866.4	21884
866.531	21911
866.662	21998
866.793	21930
866.924	22025
867.055	22051
867.186	22029
867.317	22086
867.448	22017
867.579	22090
867.71	22025
867.841	21979
867.972	22002
868.103	22021
868.233	21926
868.364	21994
868.495	22150
868.625	22162
868.756	22413
868.886	22207
869.017	22314
869.147	22474
869.278	22436
869.408	22276
869.539	22249
869.669	22291
869.799	22424
869.929	22382
870.06	22367
870.19	22527
870.32	22634
870.45	22740
870.58	22729
870.71	22733
870.84	22828
870.97	22634
871.1	22599
871.23	22877
871.36	22752
871.489	22797
871.619	22866
871.749	22915
871.879	22873
872.008	23025
872.138	22881
872.267	22805
872.397	22740
872.526	22668
872.656	22691
872.785	22706
872.915	22904
873.044	22889
873.173	22850
873.303	22957
873.432	22953
873.561	22934
873.69	22873
873.819	22892
873.948	22911
874.077	22889
874.206	22927
874.335	22885
874.464	23090
874.593	23147
874.722	23159
874.851	23181
874.979	23166
875.108	23277
875.237	23048
875.365	22949
875.494	23052
875.623	23178
875.751	23181
875.88	23094
876.008	23250
876.136	23246
876.265	23539
876.393	23577
876.521	23570
876.65	23623
876.778	23509
876.906	23436
877.034	23516
877.162	23398
877.29	23444
877.418	23395
877.546	23368
877.674	23493
877.802	23440
877.93	23490
878.058	23383
878.185	23455
878.313	23395
878.441	23474
878.568	23277
878.696	23379
878.824	23551
878.951	23642
879.079	23531
879.206	23783
879.333	23592
879.461	23433
879.588	23482
879.715	23646
879.842	23733
879.97	23509
880.097	23311
880.224	23113
880.351	23185
880.478	23311
880.605	23162
880.732	23360
880.859	23509
880.986	23292
881.112	23322
881.239	23212
881.366	23018
881.493	22881
881.619	22847
881.746	22786
881.872	22778
881.999	22771
882.125	22786
882.252	22873
882.378	22744
882.505	22885
882.631	22710
882.757	22626
882.883	22599
883.01	22634
883.136	22497
883.262	22394
883.388	22303
883.514	22626
883.64	22668
883.766	22470
883.892	22306
884.018	22299
884.143	22550
884.269	22569
884.395	22204
884.52	22150
884.646	22169
884.772	22097
884.897	22006
885.023	22055
885.148	22226
885.274	22253
885.399	22322
885.524	22139
885.65	22280
885.775	22082
885.9	22105
886.025	22211
886.15	22158
886.275	22204
886.4	22147
886.525	22124
886.65	21937
886.775	21915
886.9	22238
887.025	22402
887.149	22051
887.274	21838
887.399	21960
887.523	21861
887.648	21869
887.773	21812
887.897	21873
888.021	21892
888.146	21850
888.27	21987
888.395	21926
888.519	21781
888.643	21903
888.767	21838
888.891	21732
889.015	21701
889.139	21686
889.263	21469
889.387	21743
889.511	21953
889.635	21778
889.759	21618
889.883	21686
890.006	21656
890.13	21736
890.254	21595
890.377	21637
890.501	21462
890.624	21363
890.748	21382
890.871	21405
890.995	21218
891.118	21119
891.241	21264
891.364	21214
891.488	21485
891.611	21245
891.734	21291
891.857	21374
891.98	21195
892.103	21214
892.226	21283
892.349	21218
892.471	20914
892.594	21199
892.717	21173
892.839	21165
892.962	21173
893.085	21157
893.207	21150
893.33	21070
893.452	21039
893.575	21207
893.697	21188
893.819	21272
893.941	21336
894.064	21260
894.186	21047
894.308	21013
894.43	21199
894.552	21363
894.674	21203
894.796	20952
894.918	21058
895.04	21055
895.161	21135
895.283	21146
895.405	20918
895.526	21142
895.648	21161
895.769	21081
895.891	21081
896.012	21249
896.134	21188
896.255	21017
896.376	21135
896.498	21127
896.619	21058
896.74	21123
896.861	21036
896.982	21435
897.103	21420
897.224	21264
897.345	21275
897.466	21252
897.587	21317
897.708	21443
897.828	21412
897.949	21294
898.07	21161
898.19	21317
898.311	21458
898.431	21184
898.552	21313
898.672	21283
898.792	21416
898.913	21268
899.033	21272
899.153	21146
899.273	21070
899.393	21005
899.513	20982
899.633	21001
899.753	21100
899.873	21001
899.993	21146
900.113	21013
900.232	21043
900.352	20971
900.472	20887
900.591	20773
900.711	20853
900.83	20823
900.95	20819
901.069	20857
901.189	20739
901.308	20374
901.427	20294
901.546	20389
901.665	20396
901.784	20473
901.904	20343
902.023	20164
902.141	19913
902.26	19875
902.379	20016
902.498	19860
902.617	19913
902.735	19932
902.854	19875
902.973	19791
903.091	19605
903.21	19563
903.328	19552
903.446	19403
903.565	19331
903.683	19392
903.801	19069
903.919	19320
904.038	19251
904.156	19061
904.274	19209
904.392	19008
904.51	19034
904.627	19103
904.745	18989
904.863	19103
904.981	18909
905.098	18707
905.216	18764
905.334	18837
905.451	18684
905.569	18684
905.686	18684
905.803	18757
905.921	18612
906.038	18658
906.155	18525
906.272	18441
906.389	18380
906.506	18308
906.623	18194
906.74	18285
906.857	18159
906.974	18129
907.091	18376
907.208	18395
907.324	18323
907.441	18087
907.557	18015
907.674	17992
907.79	17885
907.907	17935
908.023	17912
908.139	17999
908.256	17931
908.372	17748
908.488	17779
908.604	17779
908.72	17714
908.836	17718
908.952	17760
909.068	17733
909.184	17893
909.3	17699
909.415	17847
909.531	17764
909.647	17490
909.762	17345
909.878	17410
909.993	17512
910.108	17463
910.224	17387
910.339	17341
910.454	17235
910.57	17250
910.685	17117
910.8	17421
910.915	17349
911.03	17197
911.145	17060
911.259	17052
911.374	16984
911.489	16984
911.604	16809
911.718	16729
911.833	16717
911.947	16634
912.062	16611
912.176	16713
912.291	16725
912.405	16664
912.519	16999
912.633	16889
912.748	16782
912.862	16618
912.976	16596
913.09	16394
913.204	16508
913.318	16580
913.431	16569
913.545	16641
913.659	16637
913.772	16432
913.886	16447
914	16230
914.113	16424
914.226	16455
914.34	16325
914.453	16246
914.566	16295
914.68	16169
914.793	16166
914.906	15968
915.019	16002
915.132	15953
915.245	15903
915.358	15903
915.47	15911
915.583	15865
915.696	15987
915.809	15895
915.921	16067
916.034	15846
916.146	15797
916.259	15770
916.371	15888
916.483	15842
916.595	15751
916.708	15739
916.82	15816
916.932	15762
917.044	15690
917.156	15644
917.268	15519
917.38	15595
917.491	15625
917.603	15549
917.715	15549
917.826	15606
917.938	15420
918.049	15340
918.161	15447
918.272	15633
918.384	15614
918.495	15504
918.606	15317
918.717	15184
918.828	15272
918.939	15321
919.05	15173
919.161	15241
919.272	15100
919.383	15142
919.494	15154
919.604	15568
919.715	15279
919.826	15180
919.936	15199
920.047	15256
920.157	15218
920.267	15344
920.378	15214
920.488	15188
920.598	15378
920.708	15458
920.818	15378
920.928	15279
921.038	15485
921.148	15500
921.258	15184
921.368	15131
921.477	15028
921.587	14929
921.697	14914
921.806	14963
921.916	14746
922.025	14659
922.134	14625
922.244	14613
922.353	14598
922.462	14469
922.571	14389
922.68	14263
922.789	14237
922.898	14259
923.007	14252
923.116	14210
923.224	14210
923.333	14218
923.442	14073
923.55	14088
923.659	14020
923.767	14183
923.876	14031
923.984	14012
924.092	13986
924.201	13978
924.309	13868
924.417	13921
924.525	13909
924.633	13845
924.741	14754
924.849	13575
924.956	13746
925.064	13689
925.172	13632
925.279	13636
925.387	13666
925.494	13540
925.602	13662
925.709	13647
925.816	13575
925.924	13499
926.031	13590
926.138	13582
926.245	13563
926.352	13441
926.459	13556
926.566	13597
926.673	13411
926.779	13308
926.886	13343
926.993	13168
927.099	13141
927.206	13122
927.312	13118
927.419	13110
927.525	13194
927.631	13084
927.737	13015
927.843	12954
927.95	12905
928.056	12962
928.162	13004
928.267	13080
928.373	13495
928.479	13057
928.585	12814
928.69	12920
928.796	12993
928.901	12871
929.007	12726
929.112	12749
929.218	12715
929.323	12703
929.428	12681
929.533	12787
929.638	12578
929.743	12711
929.848	12604
929.953	12662
930.058	12601
930.163	12365
930.267	12346
930.372	12464
930.477	12350
930.581	12456
930.685	12418
930.79	12182
930.894	12361
930.998	12213
931.103	12281
931.207	12015
931.311	11828
931.415	11733
931.519	11592
931.623	11539
