Data from test_V78500241_101.txt Node
Date: Fri Mar 25 15:42:30 CST 2022
User: usil
Spectrometer: V785-0024
Trigger mode: 0
Integration Time (sec): 4.000000E-1
Scans to average: 1
Nonlinearity correction enabled: false
Boxcar width: 0
Storing dark spectrum: false
XAxis mode: Wavelengths
Number of Pixels in Spectrum: 1024
>>>>>Begin Spectral Data<<<<<
801.071	29756
801.214	29668
801.356	29528
801.499	29516
801.641	29204
801.783	29246
801.926	29334
802.068	29368
802.211	29174
802.353	29147
802.496	28968
802.638	28927
802.78	28900
802.923	28839
803.065	28968
803.208	28885
803.35	28968
803.492	29056
803.635	29128
803.777	29174
803.919	29041
804.061	29410
804.204	29086
804.346	28987
804.488	28824
804.63	29044
804.773	28976
804.915	29041
805.057	29029
805.199	29041
805.341	29052
805.483	29143
805.626	29113
805.768	29102
805.91	29121
806.052	29086
806.194	29014
806.336	29326
806.478	29223
806.62	29124
806.762	29288
806.904	29417
807.046	29558
807.188	29531
807.33	29653
807.472	29600
807.614	29482
807.756	29299
807.898	29372
808.04	29303
808.182	29391
808.324	29455
808.465	29318
808.607	29649
808.749	29687
808.891	29866
809.033	29851
809.174	29627
809.316	29695
809.458	29714
809.6	29851
809.741	29714
809.883	29672
810.025	29874
810.166	29920
810.308	29840
810.45	29893
810.591	29847
810.733	29687
810.875	29695
811.016	29463
811.158	29482
811.299	29752
811.441	29904
811.582	29805
811.724	29703
811.865	29455
812.007	29512
812.148	29585
812.29	29581
812.431	29748
812.573	30068
812.714	30095
812.855	30102
812.997	30285
813.138	30467
813.279	30209
813.421	30121
813.562	30194
813.703	29897
813.845	29923
813.986	29452
814.127	29375
814.268	29315
814.41	29284
814.551	29326
814.692	29482
814.833	29136
814.974	29117
815.115	29273
815.256	29155
815.397	28927
815.539	29048
815.68	28991
815.821	28930
815.962	28972
816.103	28843
816.244	28816
816.385	28835
816.526	28698
816.666	28630
816.807	28291
816.948	28554
817.089	28519
817.23	28367
817.371	28417
817.512	28462
817.653	28303
817.793	28246
817.934	28181
818.075	28462
818.216	28371
818.356	28192
818.497	28234
818.638	28006
818.778	28021
818.919	28010
819.06	28116
819.2	28219
819.341	28154
819.481	28295
819.622	28280
819.762	28569
819.903	28519
820.043	28390
820.184	28295
820.324	28276
820.465	28413
820.605	28394
820.746	28280
820.886	28310
821.026	28303
821.167	28219
821.307	28546
821.447	28207
821.588	28086
821.728	28021
821.868	27903
822.008	27770
822.149	27652
822.289	27667
822.429	27351
822.569	27340
822.709	27397
822.849	27184
822.99	27123
823.13	27176
823.27	27085
823.41	27032
823.55	26743
823.69	26891
823.83	27020
823.97	26940
824.11	26838
824.25	26609
824.389	26781
824.529	26758
824.669	26609
824.809	26804
824.949	26914
825.089	26918
825.228	26765
825.368	26575
825.508	26393
825.648	26663
825.787	26720
825.927	26511
826.067	26476
826.206	26613
826.346	26568
826.485	26571
826.625	26408
826.765	26693
826.904	26530
827.044	26347
827.183	26229
827.323	26103
827.462	26176
827.601	26252
827.741	26161
827.88	26084
828.02	26119
828.159	26153
828.298	26149
828.437	26210
828.577	26115
828.716	26362
828.855	26039
828.994	25906
829.134	25879
829.273	25940
829.412	25887
829.551	25814
829.69	25788
829.829	25841
829.968	25921
830.107	25651
830.246	25887
830.385	25780
830.524	25822
830.663	25567
830.802	25518
830.941	25441
831.08	25358
831.219	25415
831.357	25537
831.496	25586
831.635	25354
831.774	25285
831.913	25236
832.051	25160
832.19	25171
832.329	25255
832.467	25027
832.606	24913
832.744	25015
832.883	25004
833.022	24920
833.16	25088
833.299	25061
833.437	24981
833.576	25042
833.714	24894
833.852	25251
833.991	25012
834.129	25053
834.267	25034
834.406	25145
834.544	24973
834.682	24989
834.821	25012
834.959	25152
835.097	24970
835.235	24924
835.373	25019
835.511	24871
835.65	24856
835.788	24856
835.926	24620
836.064	24589
836.202	24585
836.34	24741
836.478	24924
836.615	24833
836.753	24795
836.891	24852
837.029	24852
837.167	24749
837.305	24738
837.443	24608
837.58	24654
837.718	24802
837.856	24707
837.993	24437
838.131	24578
838.269	24521
838.406	24464
838.544	24475
838.681	24197
838.819	24194
838.956	24083
839.094	24102
839.231	24015
839.369	24125
839.506	24372
839.643	24327
839.781	24011
839.918	23939
840.055	23950
840.193	23992
840.33	23961
840.467	23824
840.604	23931
840.742	24110
840.879	23843
841.016	23752
841.153	23779
841.29	23942
841.427	23889
841.564	23752
841.701	23817
841.838	23786
841.975	23722
842.112	23764
842.249	23524
842.385	23543
842.522	23779
842.659	23566
842.796	23531
842.933	23570
843.069	23455
843.206	23376
843.343	23501
843.479	23509
843.616	23509
843.752	23284
843.889	23284
844.025	23406
844.162	23250
844.298	23395
844.435	23250
844.571	23197
844.708	23391
844.844	23547
844.98	23296
845.117	23303
845.253	23200
845.389	23048
845.525	23227
845.661	23166
845.798	23033
845.934	23071
846.07	22968
846.206	22961
846.342	23166
846.478	22835
846.614	22645
846.75	22675
846.886	22596
847.022	22774
847.158	22820
847.294	22656
847.429	22664
847.565	22622
847.701	22953
847.837	22424
847.972	22352
848.108	22523
848.244	22466
848.379	22436
848.515	22116
848.65	22284
848.786	22200
848.921	22295
849.057	22382
849.192	22230
849.328	22276
849.463	22158
849.598	22162
849.734	22139
849.869	22128
850.004	22070
850.14	21960
850.275	22021
850.41	21922
850.545	21983
850.68	22029
850.815	21937
850.95	22036
851.085	22120
851.22	22063
851.355	21922
851.49	21937
851.625	21884
851.76	21934
851.895	21778
852.03	21831
852.165	21937
852.299	21979
852.434	22036
852.569	22021
852.703	21876
852.838	21945
852.973	22070
853.107	22002
853.242	21884
853.376	21941
853.511	21698
853.645	21705
853.78	21987
853.914	21781
854.048	21781
854.183	21656
854.317	21743
854.451	21972
854.585	21778
854.72	21644
854.854	21743
854.988	21618
855.122	21667
855.256	21629
855.39	21835
855.524	21755
855.658	21770
855.792	21644
855.926	21698
856.06	21781
856.194	21679
856.327	21728
856.461	21644
856.595	21751
856.729	21633
856.862	21884
856.996	21736
857.13	21823
857.263	21728
857.397	21663
857.53	21637
857.664	21812
857.797	21846
857.931	21922
858.064	21812
858.197	21816
858.331	21743
858.464	21633
858.597	21610
858.731	21663
858.864	21675
858.997	21610
859.13	21739
859.263	21713
859.396	21789
859.529	21667
859.662	21523
859.795	21633
859.928	21580
860.061	21808
860.194	21842
860.327	21694
860.46	21568
860.592	21698
860.725	21709
860.858	21686
860.99	21667
861.123	21591
861.256	21526
861.388	21637
861.521	22249
861.653	21542
861.786	21443
861.918	21534
862.05	21667
862.183	21656
862.315	21690
862.447	21743
862.58	21557
862.712	21363
862.844	21515
862.976	21435
863.108	21382
863.24	21743
863.372	21291
863.504	21374
863.636	21405
863.768	21408
863.9	21294
864.032	21298
864.164	21275
864.296	21260
864.428	21625
864.559	21252
864.691	21439
864.823	21313
864.954	21405
865.086	21214
865.217	21245
865.349	21089
865.48	21176
865.612	21222
865.743	21298
865.875	21317
866.006	21188
866.137	21222
866.269	21241
866.4	21165
866.531	21180
866.662	21055
866.793	21070
866.924	21241
867.055	21169
867.186	21237
867.317	21085
867.448	20975
867.579	21058
867.71	21024
867.841	21154
867.972	21203
868.103	21138
868.233	21104
868.364	21104
868.495	21306
868.625	21389
868.756	21420
868.886	21382
869.017	21359
869.147	21408
869.278	21488
869.408	21317
869.539	21435
869.669	21458
869.799	21340
869.929	21526
870.06	21420
870.19	21751
870.32	21549
870.45	21675
870.58	21747
870.71	21880
870.84	21895
870.97	21808
871.1	21819
871.23	21956
871.36	22139
871.489	21915
871.619	21876
871.749	21903
871.879	22006
872.008	22010
872.138	21941
872.267	21918
872.397	21968
872.526	21835
872.656	21846
872.785	21701
872.915	21979
873.044	22036
873.173	22025
873.303	21945
873.432	22074
873.561	22147
873.69	22010
873.819	22093
873.948	22154
874.077	22036
874.206	22051
874.335	21956
874.464	22188
874.593	22287
874.722	22204
874.851	22268
874.979	22234
875.108	22314
875.237	22188
875.365	22032
875.494	22280
875.623	22325
875.751	22074
875.88	22223
876.008	22386
876.136	22440
876.265	22588
876.393	22725
876.521	22717
876.65	22672
876.778	22713
876.906	22523
877.034	22569
877.162	22698
877.29	22493
877.418	22637
877.546	22603
877.674	22550
877.802	22538
877.93	22588
878.058	22542
878.185	22557
878.313	22527
878.441	22523
878.568	22386
878.696	22443
878.824	22729
878.951	22740
879.079	22759
879.206	22778
879.333	22683
879.461	22683
879.588	22733
879.715	22717
879.842	22748
879.97	22535
880.097	22459
880.224	22363
880.351	22413
880.478	22402
880.605	22341
880.732	22470
880.859	22538
880.986	22527
881.112	22493
881.239	22405
881.366	22185
881.493	21953
881.619	21968
881.746	21926
881.872	21934
881.999	21846
882.125	21892
882.252	21998
882.378	22010
882.505	22063
882.631	21778
882.757	21755
882.883	21827
883.01	21724
883.136	21667
883.262	21530
883.388	21614
883.514	21808
883.64	21690
883.766	21561
883.892	21515
884.018	21492
884.143	21576
884.269	21747
884.395	21466
884.52	21325
884.646	21397
884.772	21401
884.897	21359
885.023	21264
885.148	21424
885.274	21435
885.399	21424
885.524	21329
885.65	21351
885.775	21302
885.9	21283
886.025	21469
886.15	21500
886.275	21279
886.4	21317
886.525	21272
886.65	21268
886.775	21203
886.9	21534
887.025	21496
887.149	21355
887.274	21169
887.399	21005
887.523	21096
887.648	20906
887.773	20967
887.897	21093
888.021	21005
888.146	21005
888.27	21176
888.395	21135
888.519	20952
888.643	21032
888.767	21058
888.891	20895
889.015	20754
889.139	20857
889.263	20765
889.387	20944
889.511	21081
889.635	20975
889.759	20826
889.883	20872
890.006	20819
890.13	20975
890.254	20834
890.377	20651
890.501	20552
890.624	20545
890.748	20670
890.871	20541
890.995	20454
891.118	20442
891.241	20442
891.364	20336
891.488	20465
891.611	20393
891.734	20343
891.857	20446
891.98	20328
892.103	20473
892.226	20457
892.349	20313
892.471	20138
892.594	20377
892.717	20400
892.839	20286
892.962	20301
893.085	20442
893.207	20309
893.33	20134
893.452	20157
893.575	20400
893.697	20244
893.819	20442
893.941	20446
894.064	20362
894.186	20248
894.308	20259
894.43	20370
894.552	20385
894.674	20370
894.796	20240
894.918	20267
895.04	20294
895.161	20343
895.283	20328
895.405	20275
895.526	20419
895.648	20259
895.769	20286
895.891	20434
896.012	20423
896.134	20442
896.255	20298
896.376	20404
896.498	20309
896.619	20484
896.74	20320
896.861	20495
896.982	20606
897.103	20883
897.224	20655
897.345	20526
897.466	20499
897.587	20552
897.708	20674
897.828	20625
897.949	20495
898.07	20377
898.19	20419
898.311	20552
898.431	20446
898.552	20495
898.672	20609
898.792	20568
898.913	20461
899.033	20457
899.153	20142
899.273	20149
899.393	20320
899.513	20126
899.633	20237
899.753	20271
899.873	20119
899.993	20233
900.113	20134
900.232	20218
900.352	20149
900.472	20069
900.591	20005
900.711	20115
900.83	19951
900.95	20142
901.069	20187
901.189	19906
901.308	19723
901.427	19670
901.546	19647
901.665	19578
901.784	19624
901.904	19559
902.023	19373
902.141	19217
902.26	19126
902.379	19206
902.498	18993
902.617	19057
902.735	19057
902.854	19061
902.973	19069
903.091	18787
903.21	18654
903.328	18738
903.446	18688
903.565	18559
903.683	18582
903.801	18536
903.919	18502
904.038	18441
904.156	18391
904.274	18441
904.392	18319
904.51	18216
904.627	18311
904.745	18289
904.863	18376
904.981	18129
905.098	18026
905.216	17965
905.334	18003
905.451	18060
905.569	17874
905.686	18007
905.803	17901
905.921	17840
906.038	17863
906.155	17790
906.272	17691
906.389	17642
906.506	17547
906.623	17653
906.74	17509
906.857	17315
906.974	17376
907.091	17558
907.208	17722
907.324	17547
907.441	17406
907.557	17326
907.674	17162
907.79	17064
907.907	17159
908.023	17109
908.139	17147
908.256	17121
908.372	17025
908.488	17010
908.604	16790
908.72	16900
908.836	16942
908.952	16881
909.068	16908
909.184	16919
909.3	16717
909.415	16911
909.531	16839
909.647	16630
909.762	16538
909.878	16436
909.993	16527
910.108	16573
910.224	16542
910.339	16577
910.454	16413
910.57	16276
910.685	16337
910.8	16523
910.915	16512
911.03	16299
911.145	16090
911.259	16230
911.374	16105
911.489	16112
911.604	15979
911.718	15876
911.833	15865
911.947	15759
912.062	15789
912.176	15911
912.291	16036
912.405	15838
912.519	16071
912.633	16112
912.748	15918
912.862	15865
912.976	15622
913.09	15504
913.204	15595
913.318	15656
913.431	15720
913.545	15762
913.659	15751
913.772	15610
913.886	15458
914	15477
914.113	15599
914.226	15572
914.34	15538
914.453	15363
914.566	15500
914.68	15386
914.793	15359
914.906	15222
915.019	15097
915.132	15066
915.245	15070
915.358	15154
915.47	15074
915.583	15093
915.696	15150
915.809	15127
915.921	15184
916.034	14998
916.146	14971
916.259	14914
916.371	15020
916.483	15032
916.595	14849
916.708	14872
916.82	14929
916.932	14941
917.044	14857
917.156	14944
917.268	14697
917.38	14758
917.491	14613
917.603	14785
917.715	14872
917.826	14830
917.938	14667
918.049	14541
918.161	14678
918.272	14773
918.384	14765
918.495	14678
918.606	14438
918.717	14404
918.828	14473
918.939	14545
919.05	14389
919.161	14530
919.272	14282
919.383	14343
919.494	14412
919.604	14708
919.715	14434
919.826	14347
919.936	14393
920.047	14571
920.157	14438
920.267	14602
920.378	14434
920.488	14473
920.598	14537
920.708	14739
920.818	14446
920.928	14602
921.038	14640
921.148	14617
921.258	14233
921.368	14240
921.477	14195
921.587	14278
921.697	14016
921.806	14138
921.916	14001
922.025	13902
922.134	13719
922.244	13696
922.353	13936
922.462	13674
922.571	13578
922.68	13514
922.789	13369
922.898	13438
923.007	13335
923.116	13312
923.224	13396
923.333	13430
923.442	13225
923.55	13232
923.659	13259
923.767	13316
923.876	13183
923.984	13266
924.092	13095
924.201	13179
924.309	13046
924.417	13122
924.525	13091
924.633	13065
924.741	13731
924.849	12875
924.956	13050
925.064	12886
925.172	12719
925.279	12703
925.387	12859
925.494	12875
925.602	12863
925.709	12924
925.816	12722
925.924	12848
926.031	12810
926.138	12719
926.245	12814
926.352	12776
926.459	12802
926.566	12852
926.673	12715
926.779	12620
926.886	12547
926.993	12418
927.099	12407
927.206	12357
927.312	12361
927.419	12414
927.525	12342
927.631	12471
927.737	12384
927.843	12258
927.95	12171
928.056	12171
928.162	12266
928.267	12243
928.373	12890
928.479	12292
928.585	11973
928.69	12163
928.796	12167
928.901	12095
929.007	11961
929.112	12003
929.218	12076
929.323	11958
929.428	11950
929.533	12076
929.638	11870
929.743	11935
929.848	11923
929.953	11802
930.058	11836
930.163	11611
930.267	11623
930.372	11771
930.477	11596
930.581	11779
930.685	11623
930.79	11600
930.894	11554
930.998	11474
931.103	11649
931.207	11288
931.311	11105
931.415	11041
931.519	10877
931.623	10869
