Data from test_V78500241_900.txt Node
Date: Fri Mar 25 15:48:02 CST 2022
User: usil
Spectrometer: V785-0024
Trigger mode: 0
Integration Time (sec): 4.000000E-1
Scans to average: 1
Nonlinearity correction enabled: false
Boxcar width: 0
Storing dark spectrum: false
XAxis mode: Wavelengths
Number of Pixels in Spectrum: 1024
>>>>>Begin Spectral Data<<<<<
801.071	27816
801.214	27667
801.356	27469
801.499	27188
801.641	27344
801.783	27332
801.926	27435
802.068	27378
802.211	27218
802.353	27058
802.496	26998
802.638	26994
802.78	26906
802.923	26979
803.065	26883
803.208	27024
803.35	27028
803.492	27112
803.635	27032
803.777	27100
803.919	27230
804.061	27481
804.204	27123
804.346	26910
804.488	27096
804.63	27195
804.773	27024
804.915	27096
805.057	27169
805.199	27096
805.341	27287
805.483	27283
805.626	27222
805.768	27298
805.91	27256
806.052	27207
806.194	27135
806.336	27306
806.478	27142
806.62	27264
806.762	27416
806.904	27450
807.046	27747
807.188	27583
807.33	27633
807.472	27709
807.614	27641
807.756	27705
807.898	27382
808.04	27595
808.182	27690
808.324	27599
808.465	27622
808.607	27869
808.749	27854
808.891	27998
809.033	28128
809.174	27972
809.316	27876
809.458	27922
809.6	27949
809.741	27930
809.883	28025
810.025	28093
810.166	28166
810.308	28352
810.45	28226
810.591	27964
810.733	27922
810.875	27914
811.016	27934
811.158	27884
811.299	28036
811.441	28051
811.582	28109
811.724	27892
811.865	27850
812.007	27812
812.148	27888
812.29	27953
812.431	28143
812.573	28337
812.714	28306
812.855	28424
812.997	28447
813.138	28622
813.279	28596
813.421	28538
813.562	28599
813.703	28230
813.845	28055
813.986	27850
814.127	27656
814.268	27572
814.41	27576
814.551	27466
814.692	27576
814.833	27515
814.974	27686
815.115	27580
815.256	27557
815.397	27469
815.539	27416
815.68	27500
815.821	27344
815.962	27458
816.103	27443
816.244	27298
816.385	27348
816.526	27123
816.666	26948
816.807	26940
816.948	27047
817.089	27077
817.23	26952
817.371	26971
817.512	27020
817.653	26906
817.793	26815
817.934	26986
818.075	26937
818.216	26986
818.356	26807
818.497	26629
818.638	26697
818.778	26678
818.919	26724
819.06	26750
819.2	26788
819.341	26948
819.481	26876
819.622	27020
819.762	27222
819.903	27119
820.043	27047
820.184	27108
820.324	27028
820.465	26990
820.605	26918
820.746	26948
820.886	26788
821.026	27028
821.167	26960
821.307	26921
821.447	26982
821.588	26758
821.728	26777
821.868	26514
822.008	26286
822.149	26423
822.289	26347
822.429	26012
822.569	26039
822.709	26115
822.849	25887
822.99	25951
823.13	25913
823.27	25700
823.41	25594
823.55	25575
823.69	25712
823.83	25693
823.97	25624
824.11	25426
824.25	25537
824.389	25529
824.529	25487
824.669	25594
824.809	25734
824.949	25594
825.089	25620
825.228	25601
825.368	25301
825.508	25320
825.648	25346
825.787	25403
825.927	25537
826.067	25350
826.206	25430
826.346	25384
826.485	25426
826.625	25407
826.765	25396
826.904	25472
827.044	25198
827.183	25194
827.323	25008
827.462	25107
827.601	25107
827.741	25183
827.88	25091
828.02	25004
828.159	25099
828.298	25099
828.437	25126
828.577	25137
828.716	25244
828.855	24992
828.994	24882
829.134	24703
829.273	24658
829.412	24859
829.551	24677
829.69	24817
829.829	24817
829.968	24856
830.107	24875
830.246	24760
830.385	24745
830.524	24681
830.663	24563
830.802	24623
830.941	24262
831.08	24410
831.219	24593
831.357	24521
831.496	24734
831.635	24448
831.774	24258
831.913	24311
832.051	24114
832.19	24277
832.329	24140
832.467	24110
832.606	24041
832.744	23999
832.883	24110
833.022	23996
833.16	24148
833.299	24148
833.437	24155
833.576	24125
833.714	24110
833.852	24068
833.991	24125
834.129	24163
834.267	24072
834.406	24095
834.544	24277
834.682	24133
834.821	24106
834.959	24304
835.097	24133
835.235	24083
835.373	24038
835.511	24114
835.65	23897
835.788	23935
835.926	23798
836.064	23722
836.202	23703
836.34	23901
836.478	24053
836.615	23729
836.753	23923
836.891	23980
837.029	23908
837.167	24030
837.305	23904
837.443	23828
837.58	23783
837.718	23874
837.856	23805
837.993	23783
838.131	23680
838.269	23577
838.406	23729
838.544	23482
838.681	23425
838.819	23429
838.956	23178
839.094	23162
839.231	23284
839.369	23459
839.506	23680
839.643	23562
839.781	23212
839.918	23033
840.055	23113
840.193	23242
840.33	23113
840.467	23117
840.604	23189
840.742	23551
840.879	23029
841.016	23216
841.153	22980
841.29	23356
841.427	23216
841.564	23227
841.701	23136
841.838	23060
841.975	22972
842.112	23185
842.249	23121
842.385	22942
842.522	23136
842.659	22930
842.796	23010
842.933	22911
843.069	22850
843.206	22934
843.343	22984
843.479	22854
843.616	22949
843.752	22755
843.889	22596
844.025	22801
844.162	22645
844.298	22763
844.435	22664
844.571	22691
844.708	22729
844.844	22820
844.98	22831
845.117	22774
845.253	22710
845.389	22637
845.525	22649
845.661	22497
845.798	22360
845.934	22516
846.07	22333
846.206	22554
846.342	22459
846.478	22436
846.614	22238
846.75	22128
846.886	22135
847.022	22344
847.158	22192
847.294	22185
847.429	22090
847.565	22101
847.701	22413
847.837	21915
847.972	21930
848.108	21983
848.244	21945
848.379	21751
848.515	21785
848.65	21793
848.786	21827
848.921	21720
849.057	21945
849.192	21804
849.328	21918
849.463	21679
849.598	21694
849.734	21679
849.869	21587
850.004	21488
850.14	21496
850.275	21553
850.41	21504
850.545	21477
850.68	21393
850.815	21553
850.95	21637
851.085	21690
851.22	21637
851.355	21580
851.49	21420
851.625	21500
851.76	21576
851.895	21485
852.03	21408
852.165	21416
852.299	21523
852.434	21671
852.569	21549
852.703	21477
852.838	21568
852.973	21656
853.107	21667
853.242	21481
853.376	21435
853.511	21340
853.645	21374
853.78	21428
853.914	21397
854.048	21218
854.183	21268
854.317	21416
854.451	21428
854.585	21298
854.72	21184
854.854	21291
854.988	21264
855.122	21287
855.256	21245
855.39	21241
855.524	21389
855.658	21218
855.792	21401
855.926	21386
856.06	21374
856.194	21416
856.327	21313
856.461	21310
856.595	21230
856.729	21439
856.862	21382
856.996	21378
857.13	21374
857.263	21424
857.397	21420
857.53	21222
857.664	21348
857.797	21408
857.931	21504
858.064	21336
858.197	21492
858.331	21245
858.464	21207
858.597	21226
858.731	21336
858.864	21363
858.997	21382
859.13	21332
859.263	21344
859.396	21367
859.529	21325
859.662	21207
859.795	21302
859.928	21389
860.061	21542
860.194	21515
860.327	21313
860.46	21374
860.592	21443
860.725	21450
860.858	21462
860.99	21348
861.123	21370
861.256	21222
861.388	21340
861.521	21983
861.653	21275
861.786	21032
861.918	21100
862.05	21123
862.183	21165
862.315	21192
862.447	21252
862.58	21188
862.712	21089
862.844	20971
862.976	21104
863.108	21184
863.24	21329
863.372	20910
863.504	21024
863.636	21066
863.768	21089
863.9	20979
864.032	20956
864.164	21104
864.296	21119
864.428	21127
864.559	21093
864.691	21184
864.823	21051
864.954	21081
865.086	21013
865.217	21009
865.349	20864
865.48	20960
865.612	20872
865.743	21089
865.875	20921
866.006	20895
866.137	20937
866.269	20998
866.4	20880
866.531	20845
866.662	20838
866.793	20838
866.924	20845
867.055	20872
867.186	20925
867.317	20842
867.448	20773
867.579	20815
867.71	20971
867.841	20739
867.972	20792
868.103	20769
868.233	20849
868.364	20819
868.495	21009
868.625	20979
868.756	21207
868.886	21024
869.017	21055
869.147	21252
869.278	21233
869.408	21150
869.539	21058
869.669	21112
869.799	21218
869.929	21302
870.06	21275
870.19	21306
870.32	21386
870.45	21447
870.58	21443
870.71	21580
870.84	21557
870.97	21428
871.1	21492
871.23	21644
871.36	21884
871.489	21481
871.619	21694
871.749	21766
871.879	21694
872.008	21835
872.138	21770
872.267	21656
872.397	21561
872.526	21572
872.656	21500
872.785	21564
872.915	21720
873.044	21846
873.173	21709
873.303	21701
873.432	21835
873.561	21903
873.69	21629
873.819	21812
873.948	21850
874.077	21762
874.206	21743
874.335	21675
874.464	21819
874.593	22010
874.722	21892
874.851	22017
874.979	21968
875.108	21953
875.237	21797
875.365	21827
875.494	21842
875.623	22112
875.751	21873
875.88	22078
876.008	21964
876.136	22158
876.265	22341
876.393	22428
876.521	22390
876.65	22428
876.778	22375
876.906	22325
877.034	22234
877.162	22356
877.29	22219
877.418	22276
877.546	22432
877.674	22303
877.802	22276
877.93	22219
878.058	22230
878.185	22223
878.313	22116
878.441	22242
878.568	22150
878.696	22158
878.824	22337
878.951	22436
879.079	22436
879.206	22546
879.333	22546
879.461	22234
879.588	22325
879.715	22390
879.842	22569
879.97	22394
880.097	22192
880.224	22143
880.351	22226
880.478	22188
880.605	22082
880.732	22086
880.859	22329
880.986	22158
881.112	22010
881.239	21991
881.366	21854
881.493	21759
881.619	21660
881.746	21739
881.872	21793
881.999	21709
882.125	21660
882.252	21751
882.378	21679
882.505	21781
882.631	21564
882.757	21435
882.883	21454
883.01	21431
883.136	21462
883.262	21260
883.388	21249
883.514	21359
883.64	21420
883.766	21332
883.892	21127
884.018	21081
884.143	21332
884.269	21458
884.395	21165
884.52	21047
884.646	21009
884.772	21005
884.897	21024
885.023	20975
885.148	21165
885.274	21154
885.399	21123
885.524	21077
885.65	21146
885.775	21062
885.9	21017
886.025	21142
886.15	21070
886.275	21028
886.4	20975
886.525	21036
886.65	20952
886.775	20929
886.9	21127
887.025	21142
887.149	21051
887.274	20864
887.399	20845
887.523	20769
887.648	20769
887.773	20720
887.897	20887
888.021	20777
888.146	20674
888.27	20998
888.395	20925
888.519	20971
888.643	20804
888.767	20788
888.891	20800
889.015	20640
889.139	20697
889.263	20568
889.387	20708
889.511	20785
889.635	20773
889.759	20670
889.883	20476
890.006	20632
890.13	20644
890.254	20465
890.377	20571
890.501	20355
890.624	20275
890.748	20438
890.871	20210
890.995	20176
891.118	20092
891.241	20240
891.364	20263
891.488	20301
891.611	20180
891.734	20358
891.857	20195
891.98	20149
892.103	20172
892.226	20157
892.349	20134
892.471	20054
892.594	20054
892.717	20210
892.839	20035
892.962	20157
893.085	20210
893.207	20252
893.33	20039
893.452	20046
893.575	20237
893.697	20088
893.819	20290
893.941	20180
894.064	20233
894.186	20020
894.308	20005
894.43	20107
894.552	20244
894.674	20252
894.796	19944
894.918	20016
895.04	20077
895.161	20180
895.283	20119
895.405	19913
895.526	20046
895.648	19928
895.769	20115
895.891	20100
896.012	20244
896.134	20153
896.255	20134
896.376	20027
896.498	20001
896.619	20221
896.74	20195
896.861	20256
896.982	20461
897.103	20499
897.224	20393
897.345	20419
897.466	20278
897.587	20381
897.708	20294
897.828	20446
897.949	20259
898.07	20157
898.19	20267
898.311	20438
898.431	20294
898.552	20389
898.672	20396
898.792	20419
898.913	20377
899.033	20263
899.153	20122
899.273	20062
899.393	20058
899.513	20142
899.633	20077
899.753	20054
899.873	20043
899.993	20149
900.113	20202
900.232	20008
900.352	19917
900.472	19940
900.591	19826
900.711	19898
900.83	19784
900.95	19986
901.069	19921
901.189	19833
901.308	19506
901.427	19403
901.546	19529
901.665	19483
901.784	19571
901.904	19350
902.023	19308
902.141	19129
902.26	18977
902.379	19133
902.498	18844
902.617	18837
902.735	18916
902.854	18943
902.973	18901
903.091	18681
903.21	18677
903.328	18661
903.446	18589
903.565	18483
903.683	18426
903.801	18311
903.919	18513
904.038	18456
904.156	18270
904.274	18254
904.392	18178
904.51	18140
904.627	18136
904.745	18289
904.863	18251
904.981	18057
905.098	17889
905.216	17866
905.334	17916
905.451	17942
905.569	17870
905.686	17954
905.803	17783
905.921	17710
906.038	17882
906.155	17611
906.272	17566
906.389	17718
906.506	17490
906.623	17547
906.74	17478
906.857	17231
906.974	17273
907.091	17547
907.208	17497
907.324	17452
907.441	17307
907.557	17151
907.674	17193
907.79	17079
907.907	17094
908.023	17151
908.139	17155
908.256	17220
908.372	16953
908.488	17048
908.604	16869
908.72	16835
908.836	16869
908.952	16854
909.068	16862
909.184	16930
909.3	16873
909.415	16801
909.531	16793
909.647	16542
909.762	16489
909.878	16474
909.993	16512
910.108	16504
910.224	16459
910.339	16558
910.454	16440
910.57	16432
910.685	16303
910.8	16588
910.915	16512
911.03	16268
911.145	16234
911.259	16185
911.374	16097
911.489	16097
911.604	15987
911.718	15964
911.833	15949
911.947	15800
912.062	15755
912.176	15945
912.291	15956
912.405	15915
912.519	16109
912.633	16093
912.748	15930
912.862	15960
912.976	15732
913.09	15606
913.204	15633
913.318	15682
913.431	15713
913.545	15724
913.659	15880
913.772	15648
913.886	15568
914	15488
914.113	15511
914.226	15660
914.34	15656
914.453	15405
914.566	15519
914.68	15370
914.793	15378
914.906	15173
915.019	15180
915.132	15043
915.245	15081
915.358	15119
915.47	15146
915.583	15176
915.696	15161
915.809	15256
915.921	15226
916.034	15074
916.146	14990
916.259	14868
916.371	15150
916.483	15123
916.595	14834
916.708	15047
916.82	14956
916.932	14990
917.044	14887
917.156	14906
917.268	14765
917.38	14785
917.491	14773
917.603	14739
917.715	14845
917.826	14971
917.938	14720
918.049	14533
918.161	14689
918.272	14853
918.384	14883
918.495	14651
918.606	14625
918.717	14556
918.828	14590
918.939	14507
919.05	14442
919.161	14659
919.272	14355
919.383	14377
919.494	14568
919.604	14716
919.715	14442
919.826	14431
919.936	14480
920.047	14549
920.157	14457
920.267	14617
920.378	14537
920.488	14473
920.598	14602
920.708	14830
920.818	14636
920.928	14648
921.038	14868
921.148	14785
921.258	14415
921.368	14332
921.477	14366
921.587	14153
921.697	14103
921.806	14221
921.916	14221
922.025	14020
922.134	13902
922.244	13860
922.353	13913
922.462	13795
922.571	13700
922.68	13639
922.789	13514
922.898	13472
923.007	13438
923.116	13552
923.224	13514
923.333	13525
923.442	13312
923.55	13381
923.659	13312
923.767	13422
923.876	13354
923.984	13396
924.092	13289
924.201	13308
924.309	13301
924.417	13297
924.525	13164
924.633	13179
924.741	14149
924.849	13031
924.956	13122
925.064	12897
925.172	12943
925.279	12871
925.387	13031
925.494	12939
925.602	13034
925.709	12951
925.816	12871
925.924	12871
926.031	12977
926.138	12867
926.245	12920
926.352	12825
926.459	12970
926.566	12966
926.673	12932
926.779	12707
926.886	12726
926.993	12585
927.099	12547
927.206	12483
927.312	12456
927.419	12585
927.525	12517
927.631	12471
927.737	12502
927.843	12410
927.95	12182
928.056	12296
928.162	12327
928.267	12372
928.373	12973
928.479	12418
928.585	12178
928.69	12251
928.796	12334
928.901	12144
929.007	12087
929.112	12197
929.218	12155
929.323	12129
929.428	12076
929.533	12136
929.638	12007
929.743	12072
929.848	12079
929.953	12015
930.058	11874
930.163	11722
930.267	11802
930.372	11859
930.477	11680
930.581	11954
930.685	11805
930.79	11630
930.894	11699
930.998	11627
931.103	11741
931.207	11391
931.311	11425
931.415	11239
931.519	11075
931.623	11079
