Data from test_V78500241_787.txt Node
Date: Fri Mar 25 15:47:15 CST 2022
User: usil
Spectrometer: V785-0024
Trigger mode: 0
Integration Time (sec): 4.000000E-1
Scans to average: 1
Nonlinearity correction enabled: false
Boxcar width: 0
Storing dark spectrum: false
XAxis mode: Wavelengths
Number of Pixels in Spectrum: 1024
>>>>>Begin Spectral Data<<<<<
801.071	27469
801.214	27397
801.356	27119
801.499	26982
801.641	26853
801.783	27074
801.926	27077
802.068	26902
802.211	26819
802.353	26815
802.496	26716
802.638	26617
802.78	26590
802.923	26495
803.065	26507
803.208	26575
803.35	26632
803.492	26655
803.635	26705
803.777	26621
803.919	26864
804.061	27001
804.204	26785
804.346	26602
804.488	26571
804.63	26712
804.773	26625
804.915	26739
805.057	26906
805.199	26739
805.341	26823
805.483	26853
805.626	26804
805.768	26853
805.91	26758
806.052	26952
806.194	26663
806.336	26986
806.478	26785
806.62	26910
806.762	27119
806.904	27108
807.046	27378
807.188	27275
807.33	27370
807.472	27329
807.614	27119
807.756	27306
807.898	27192
808.04	27142
808.182	27119
808.324	27081
808.465	27024
808.607	27344
808.749	27458
808.891	27545
809.033	27698
809.174	27530
809.316	27549
809.458	27458
809.6	27294
809.741	27663
809.883	27739
810.025	27633
810.166	27755
810.308	27675
810.45	27709
810.591	27713
810.733	27591
810.875	27515
811.016	27466
811.158	27454
811.299	27500
811.441	27648
811.582	27663
811.724	27473
811.865	27344
812.007	27420
812.148	27507
812.29	27485
812.431	27618
812.573	27850
812.714	27732
812.855	28116
812.997	28097
813.138	28272
813.279	28162
813.421	28025
813.562	27987
813.703	27770
813.845	27686
813.986	27397
814.127	27268
814.268	27169
814.41	27154
814.551	27154
814.692	27329
814.833	27039
814.974	27184
815.115	27199
815.256	26975
815.397	27024
815.539	27005
815.68	26895
815.821	26861
815.962	26857
816.103	26853
816.244	26708
816.385	26819
816.526	26663
816.666	26613
816.807	26408
816.948	26545
817.089	26442
817.23	26583
817.371	26495
817.512	26393
817.653	26256
817.793	26320
817.934	26408
818.075	26484
818.216	26545
818.356	26358
818.497	26263
818.638	26103
818.778	26115
818.919	26183
819.06	26256
819.2	26237
819.341	26309
819.481	26381
819.622	26476
819.762	26571
819.903	26689
820.043	26613
820.184	26568
820.324	26434
820.465	26507
820.605	26583
820.746	26640
820.886	26366
821.026	26507
821.167	26408
821.307	26507
821.447	26453
821.588	26313
821.728	26134
821.868	26043
822.008	25837
822.149	25917
822.289	25826
822.429	25537
822.569	25518
822.709	25632
822.849	25365
822.99	25331
823.13	25316
823.27	25400
823.41	25225
823.55	25084
823.69	25255
823.83	25244
823.97	25156
824.11	24992
824.25	24916
824.389	24977
824.529	25046
824.669	25061
824.809	25107
824.949	25088
825.089	25046
825.228	25031
825.368	24886
825.508	24856
825.648	24958
825.787	24947
825.927	24932
826.067	24958
826.206	24894
826.346	24924
826.485	24928
826.625	25008
826.765	25027
826.904	25004
827.044	24631
827.183	24566
827.323	24574
827.462	24623
827.601	24578
827.741	24513
827.88	24616
828.02	24452
828.159	24700
828.298	24631
828.437	24589
828.577	24536
828.716	24696
828.855	24627
828.994	24361
829.134	24369
829.273	24300
829.412	24258
829.551	24262
829.69	24330
829.829	24483
829.968	24315
830.107	24281
830.246	24327
830.385	24243
830.524	24205
830.663	24015
830.802	24053
830.941	23980
831.08	23866
831.219	24057
831.357	23977
831.496	24136
831.635	23889
831.774	23798
831.913	23672
832.051	23798
832.19	23653
832.329	23657
832.467	23604
832.606	23592
832.744	23516
832.883	23703
833.022	23501
833.16	23642
833.299	23630
833.437	23592
833.576	23741
833.714	23657
833.852	23722
833.991	23748
834.129	23874
834.267	23638
834.406	23775
834.544	23714
834.682	23604
834.821	23630
834.959	23745
835.097	23627
835.235	23676
835.373	23703
835.511	23634
835.65	23528
835.788	23467
835.926	23478
836.064	23345
836.202	23292
836.34	23531
836.478	23478
836.615	23436
836.753	23539
836.891	23608
837.029	23531
837.167	23410
837.305	23356
837.443	23455
837.58	23364
837.718	23467
837.856	23387
837.993	23200
838.131	23258
838.269	23242
838.406	23083
838.544	23079
838.681	22850
838.819	23010
838.956	22869
839.094	22820
839.231	22904
839.369	22919
839.506	23208
839.643	22991
839.781	22793
839.918	22740
840.055	22790
840.193	22755
840.33	22752
840.467	22771
840.604	22843
840.742	23037
840.879	22622
841.016	22599
841.153	22698
841.29	22816
841.427	22767
841.564	22698
841.701	22653
841.838	22706
841.975	22508
842.112	22584
842.249	22584
842.385	22379
842.522	22645
842.659	22588
842.796	22402
842.933	22424
843.069	22478
843.206	22428
843.343	22481
843.479	22421
843.616	22596
843.752	22272
843.889	22268
844.025	22432
844.162	22200
844.298	22166
844.435	22265
844.571	22204
844.708	22268
844.844	22386
844.98	22398
845.117	22272
845.253	22249
845.389	22139
845.525	22177
845.661	22101
845.798	21930
845.934	21956
846.07	21911
846.206	22029
846.342	22223
846.478	21888
846.614	21682
846.75	21599
846.886	21682
847.022	21724
847.158	21732
847.294	21774
847.429	21705
847.565	21759
847.701	21800
847.837	21420
847.972	21504
848.108	21462
848.244	21568
848.379	21401
848.515	21241
848.65	21298
848.786	21355
848.921	21329
849.057	21393
849.192	21389
849.328	21275
849.463	21218
849.598	21329
849.734	21332
849.869	21051
850.004	21070
850.14	21032
850.275	21047
850.41	20880
850.545	20941
850.68	21108
850.815	21077
850.95	20941
851.085	21306
851.22	21135
851.355	21051
851.49	21047
851.625	21032
851.76	21062
851.895	20864
852.03	20933
852.165	21001
852.299	21142
852.434	21180
852.569	21009
852.703	21062
852.838	21119
852.973	21051
853.107	21096
853.242	21062
853.376	20864
853.511	20902
853.645	20777
853.78	20982
853.914	20952
854.048	20868
854.183	20853
854.317	20933
854.451	21169
854.585	20914
854.72	20902
854.854	21020
854.988	20883
855.122	20960
855.256	20712
855.39	20800
855.524	20887
855.658	20918
855.792	20876
855.926	20910
856.06	20921
856.194	20910
856.327	20880
856.461	20788
856.595	20895
856.729	20990
856.862	21009
856.996	20845
857.13	20880
857.263	20979
857.397	20994
857.53	20902
857.664	20979
857.797	20918
857.931	21020
858.064	21055
858.197	21028
858.331	20880
858.464	20948
858.597	20906
858.731	20880
858.864	20804
858.997	20883
859.13	20765
859.263	20921
859.396	20830
859.529	20899
859.662	20800
859.795	20705
859.928	20845
860.061	21013
860.194	21085
860.327	20918
860.46	20830
860.592	21089
860.725	20933
860.858	20979
860.99	20994
861.123	20731
861.256	20804
861.388	21036
861.521	21473
861.653	20750
861.786	20705
861.918	20739
862.05	20834
862.183	20724
862.315	20937
862.447	20952
862.58	20792
862.712	20651
862.844	20568
862.976	20716
863.108	20564
863.24	21222
863.372	20522
863.504	20659
863.636	20644
863.768	20583
863.9	20564
864.032	20514
864.164	20511
864.296	20632
864.428	20655
864.559	20636
864.691	20777
864.823	20598
864.954	20636
865.086	20579
865.217	20526
865.349	20427
865.48	20499
865.612	20461
865.743	20727
865.875	20518
866.006	20518
866.137	20495
866.269	20609
866.4	20473
866.531	20476
866.662	20393
866.793	20351
866.924	20404
867.055	20552
867.186	20537
867.317	20431
867.448	20370
867.579	20313
867.71	20415
867.841	20412
867.972	20415
868.103	20461
868.233	20454
868.364	20450
868.495	20484
868.625	20648
868.756	20667
868.886	20636
869.017	20705
869.147	20739
869.278	20807
869.408	20705
869.539	20640
869.669	20887
869.799	20686
869.929	20796
870.06	20785
870.19	21001
870.32	21066
870.45	21093
870.58	21005
870.71	21195
870.84	21146
870.97	21112
871.1	21074
871.23	21245
871.36	21374
871.489	21131
871.619	21283
871.749	21306
871.879	21355
872.008	21359
872.138	21245
872.267	21325
872.397	21108
872.526	21096
872.656	21055
872.785	21028
872.915	21268
873.044	21435
873.173	21268
873.303	21401
873.432	21336
873.561	21435
873.69	21405
873.819	21340
873.948	21310
874.077	21447
874.206	21207
874.335	21435
874.464	21473
874.593	21515
874.722	21557
874.851	21496
874.979	21557
875.108	21545
875.237	21408
875.365	21408
875.494	21428
875.623	21614
875.751	21530
875.88	21473
876.008	21572
876.136	21644
876.265	22006
876.393	22082
876.521	22086
876.65	21953
876.778	21876
876.906	21838
877.034	21797
877.162	21838
877.29	21918
877.418	21888
877.546	21880
877.674	21895
877.802	21991
877.93	21743
878.058	21857
878.185	21736
878.313	21884
878.441	21869
878.568	21717
878.696	21918
878.824	21949
878.951	21937
879.079	22181
879.206	22188
879.333	22059
879.461	21937
879.588	22002
879.715	22036
879.842	22215
879.97	21964
880.097	21667
880.224	21827
880.351	21751
880.478	21751
880.605	21755
880.732	21797
880.859	21857
880.986	21652
881.112	21747
881.239	21629
881.366	21275
881.493	21458
881.619	21207
881.746	21199
881.872	21378
881.999	21256
882.125	21325
882.252	21291
882.378	21382
882.505	21348
882.631	21093
882.757	21055
882.883	21081
883.01	20929
883.136	20895
883.262	20925
883.388	20834
883.514	20998
883.64	21009
883.766	20971
883.892	20739
884.018	20792
884.143	21005
884.269	21001
884.395	20720
884.52	20598
884.646	20720
884.772	20590
884.897	20594
885.023	20720
885.148	20800
885.274	20792
885.399	20811
885.524	20621
885.65	20689
885.775	20705
885.9	20530
886.025	20754
886.15	20648
886.275	20556
886.4	20655
886.525	20796
886.65	20587
886.775	20537
886.9	20765
887.025	20826
887.149	20590
887.274	20457
887.399	20469
887.523	20469
887.648	20305
887.773	20370
887.897	20442
888.021	20461
888.146	20431
888.27	20461
888.395	20621
888.519	20480
888.643	20332
888.767	20434
888.891	20267
889.015	20218
889.139	20343
889.263	20096
889.387	20370
889.511	20412
889.635	20324
889.759	20275
889.883	20145
890.006	20145
890.13	20313
890.254	20134
890.377	20069
890.501	20145
890.624	19978
890.748	20020
890.871	19822
890.995	19799
891.118	19757
891.241	19841
891.364	19738
891.488	19913
891.611	19742
891.734	19883
891.857	19780
891.98	19856
892.103	19868
892.226	19871
892.349	19841
892.471	19620
892.594	19685
892.717	19761
892.839	19769
892.962	19658
893.085	19803
893.207	19753
893.33	19719
893.452	19582
893.575	19719
893.697	19708
893.819	19967
893.941	19951
894.064	19947
894.186	19674
894.308	19715
894.43	19693
894.552	19811
894.674	19780
894.796	19753
894.918	19662
895.04	19537
895.161	19841
895.283	19734
895.405	19681
895.526	19647
895.648	19727
895.769	19700
895.891	19765
896.012	19826
896.134	19788
896.255	19742
896.376	19624
896.498	19715
896.619	19681
896.74	19677
896.861	19715
896.982	20115
897.103	20183
897.224	19963
897.345	19887
897.466	19982
897.587	19947
897.708	20081
897.828	19909
897.949	19811
898.07	19826
898.19	19967
898.311	20058
898.431	19913
898.552	19959
898.672	20111
898.792	20103
898.913	19936
899.033	19814
899.153	19772
899.273	19594
899.393	19719
899.513	19693
899.633	19738
899.753	19746
899.873	19575
899.993	19719
900.113	19670
900.232	19731
900.352	19662
900.472	19556
900.591	19476
900.711	19521
900.83	19441
900.95	19540
901.069	19616
901.189	19510
901.308	19209
901.427	19099
901.546	19099
901.665	18981
901.784	19148
901.904	18916
902.023	18932
902.141	18631
902.26	18604
902.379	18700
902.498	18779
902.617	18559
902.735	18711
902.854	18646
902.973	18582
903.091	18357
903.21	18277
903.328	18342
903.446	18049
903.565	18083
903.683	18068
903.801	18003
903.919	18155
904.038	18091
904.156	17859
904.274	18007
904.392	17851
904.51	17863
904.627	17855
904.745	17836
904.863	17923
904.981	17558
905.098	17471
905.216	17459
905.334	17516
905.451	17596
905.569	17524
905.686	17532
905.803	17547
905.921	17311
906.038	17433
906.155	17284
906.272	17246
906.389	17269
906.506	17143
906.623	17003
906.74	17056
906.857	17018
906.974	16946
907.091	17170
907.208	17231
907.324	17105
907.441	17090
907.557	16820
907.674	16748
907.79	16786
907.907	16774
908.023	16763
908.139	16812
908.256	16710
908.372	16771
908.488	16641
908.604	16603
908.72	16478
908.836	16626
908.952	16516
909.068	16462
909.184	16577
909.3	16546
909.415	16523
909.531	16436
909.647	16287
909.762	16207
909.878	16249
909.993	16204
910.108	16177
910.224	16143
910.339	16124
910.454	16071
910.57	16154
910.685	15991
910.8	16196
910.915	16135
911.03	16013
911.145	15892
911.259	15797
911.374	15842
911.489	15720
911.604	15781
911.718	15637
911.833	15462
911.947	15568
912.062	15439
912.176	15496
912.291	15603
912.405	15610
912.519	15743
912.633	15762
912.748	15622
912.862	15553
912.976	15344
913.09	15264
913.204	15367
913.318	15325
913.431	15363
913.545	15332
913.659	15435
913.772	15359
913.886	15131
914	15226
914.113	15321
914.226	15367
914.34	15268
914.453	15039
914.566	15302
914.68	15089
914.793	15020
914.906	14861
915.019	14731
915.132	14667
915.245	14750
915.358	14819
915.47	14941
915.583	14826
915.696	14849
915.809	14994
915.921	14944
916.034	14640
916.146	14705
916.259	14678
916.371	14727
916.483	14796
916.595	14583
916.708	14640
916.82	14655
916.932	14629
917.044	14610
917.156	14587
917.268	14587
917.38	14507
917.491	14488
917.603	14423
917.715	14564
917.826	14526
917.938	14396
918.049	14305
918.161	14415
918.272	14533
918.384	14606
918.495	14412
918.606	14210
918.717	14187
918.828	14275
918.939	14267
919.05	14130
919.161	14278
919.272	14031
919.383	14077
919.494	14286
919.604	14457
919.715	14172
919.826	14183
919.936	14183
920.047	14221
920.157	14168
920.267	14358
920.378	14233
920.488	14142
920.598	14427
920.708	14518
920.818	14256
920.928	14256
921.038	14434
921.148	14419
921.258	14191
921.368	14126
921.477	13909
921.587	13925
921.697	13799
921.806	13940
921.916	13860
922.025	13655
922.134	13628
922.244	13441
922.353	13715
922.462	13464
922.571	13445
922.68	13331
922.789	13228
922.898	13206
923.007	13160
923.116	13297
923.224	13198
923.333	13270
923.442	13069
923.55	13031
923.659	13152
923.767	13187
923.876	12973
923.984	13126
924.092	12947
924.201	12981
924.309	13000
924.417	12939
924.525	12924
924.633	12928
924.741	13963
924.849	12688
924.956	12859
925.064	12783
925.172	12665
925.279	12669
925.387	12707
925.494	12681
925.602	12806
925.709	12681
925.816	12585
925.924	12582
926.031	12658
926.138	12612
926.245	12688
926.352	12517
926.459	12677
926.566	12730
926.673	12623
926.779	12403
926.886	12578
926.993	12254
927.099	12186
927.206	12201
927.312	12186
927.419	12311
927.525	12232
927.631	12346
927.737	12148
927.843	12133
927.95	11999
928.056	12053
928.162	12068
928.267	12171
928.373	12707
928.479	12175
928.585	11882
928.69	11988
928.796	12125
928.901	11901
929.007	11798
929.112	11977
929.218	12041
929.323	11843
929.428	11901
929.533	11893
929.638	11764
929.743	11817
929.848	11779
929.953	11824
930.058	11714
930.163	11512
930.267	11611
930.372	11661
930.477	11493
930.581	11646
930.685	11581
930.79	11326
930.894	11440
930.998	11353
931.103	11467
931.207	11086
931.311	11124
931.415	10976
931.519	10786
931.623	10782
