Data from test_V78500241_481.txt Node
Date: Fri Mar 25 15:45:08 CST 2022
User: usil
Spectrometer: V785-0024
Trigger mode: 0
Integration Time (sec): 4.000000E-1
Scans to average: 1
Nonlinearity correction enabled: false
Boxcar width: 0
Storing dark spectrum: false
XAxis mode: Wavelengths
Number of Pixels in Spectrum: 1024
>>>>>Begin Spectral Data<<<<<
801.071	27378
801.214	27420
801.356	27199
801.499	27112
801.641	27047
801.783	27024
801.926	27165
802.068	27062
802.211	26960
802.353	26895
802.496	26765
802.638	26674
802.78	26659
802.923	26621
803.065	26609
803.208	26587
803.35	26541
803.492	26712
803.635	26857
803.777	26602
803.919	26765
804.061	27104
804.204	26800
804.346	26765
804.488	26765
804.63	26819
804.773	26674
804.915	26754
805.057	26887
805.199	26701
805.341	26857
805.483	26887
805.626	26895
805.768	26990
805.91	26963
806.052	26842
806.194	26849
806.336	27089
806.478	26933
806.62	26971
806.762	27005
806.904	27230
807.046	27405
807.188	27367
807.33	27401
807.472	27485
807.614	27287
807.756	27260
807.898	27055
808.04	26963
808.182	27218
808.324	27017
808.465	27195
808.607	27355
808.749	27511
808.891	27660
809.033	27686
809.174	27610
809.316	27656
809.458	27614
809.6	27526
809.741	27717
809.883	27690
810.025	27709
810.166	27880
810.308	27865
810.45	27831
810.591	27819
810.733	27656
810.875	27618
811.016	27389
811.158	27542
811.299	27637
811.441	27641
811.582	27705
811.724	27374
811.865	27405
812.007	27580
812.148	27443
812.29	27488
812.431	27663
812.573	27895
812.714	27914
812.855	28013
812.997	28105
813.138	28470
813.279	28204
813.421	28261
813.562	27956
813.703	27884
813.845	27690
813.986	27279
814.127	27237
814.268	27260
814.41	27226
814.551	27154
814.692	27207
814.833	27214
814.974	27272
815.115	27047
815.256	26914
815.397	26998
815.539	27112
815.68	27051
815.821	26823
815.962	27036
816.103	27017
816.244	26868
816.385	26754
816.526	26769
816.666	26560
816.807	26457
816.948	26663
817.089	26492
817.23	26609
817.371	26511
817.512	26476
817.653	26389
817.793	26431
817.934	26377
818.075	26408
818.216	26419
818.356	26374
818.497	26362
818.638	26050
818.778	26138
818.919	26180
819.06	26328
819.2	26298
819.341	26412
819.481	26442
819.622	26549
819.762	26781
819.903	26720
820.043	26701
820.184	26670
820.324	26511
820.465	26640
820.605	26564
820.746	26514
820.886	26412
821.026	26492
821.167	26438
821.307	26488
821.447	26476
821.588	26343
821.728	26240
821.868	26145
822.008	26058
822.149	25898
822.289	25780
822.429	25628
822.569	25662
822.709	25605
822.849	25415
822.99	25392
823.13	25419
823.27	25308
823.41	25213
823.55	25152
823.69	25118
823.83	25232
823.97	25137
824.11	25129
824.25	25065
824.389	24989
824.529	24992
824.669	25065
824.809	25179
824.949	25190
825.089	25152
825.228	25027
825.368	24814
825.508	24901
825.648	25000
825.787	24871
825.927	24875
826.067	24935
826.206	24954
826.346	24924
826.485	24852
826.625	24897
826.765	25080
826.904	24901
827.044	24669
827.183	24844
827.323	24601
827.462	24532
827.601	24627
827.741	24540
827.88	24627
828.02	24376
828.159	24623
828.298	24547
828.437	24551
828.577	24616
828.716	24677
828.855	24574
828.994	24479
829.134	24334
829.273	24300
829.412	24277
829.551	24228
829.69	24243
829.829	24273
829.968	24395
830.107	24391
830.246	24285
830.385	24292
830.524	24095
830.663	24083
830.802	24007
830.941	23878
831.08	23764
831.219	24083
831.357	23923
831.496	24015
831.635	23916
831.774	23752
831.913	23699
832.051	23668
832.19	23646
832.329	23680
832.467	23630
832.606	23657
832.744	23493
832.883	23562
833.022	23471
833.16	23585
833.299	23726
833.437	23611
833.576	23619
833.714	23661
833.852	23691
833.991	23745
834.129	23699
834.267	23627
834.406	23707
834.544	23539
834.682	23687
834.821	23562
834.959	23786
835.097	23562
835.235	23703
835.373	23680
835.511	23547
835.65	23482
835.788	23402
835.926	23433
836.064	23261
836.202	23250
836.34	23455
836.478	23547
836.615	23452
836.753	23444
836.891	23440
837.029	23482
837.167	23459
837.305	23356
837.443	23417
837.58	23318
837.718	23353
837.856	23277
837.993	23265
838.131	23330
838.269	23174
838.406	23181
838.544	23136
838.681	23010
838.819	22919
838.956	22778
839.094	22744
839.231	22831
839.369	23022
839.506	23208
839.643	23003
839.781	22771
839.918	22710
840.055	22809
840.193	22630
840.33	22622
840.467	22713
840.604	22752
840.742	22896
840.879	22519
841.016	22573
841.153	22588
841.29	22778
841.427	22664
841.564	22641
841.701	22649
841.838	22656
841.975	22596
842.112	22531
842.249	22516
842.385	22455
842.522	22656
842.659	22550
842.796	22371
842.933	22493
843.069	22519
843.206	22538
843.343	22447
843.479	22428
843.616	22470
843.752	22238
843.889	22215
844.025	22348
844.162	22261
844.298	22303
844.435	22287
844.571	22131
844.708	22276
844.844	22314
844.98	22459
845.117	22265
845.253	22169
845.389	22032
845.525	22067
845.661	22112
845.798	22051
845.934	21998
846.07	21835
846.206	21892
846.342	22013
846.478	21941
846.614	21724
846.75	21728
846.886	21728
847.022	21682
847.158	21751
847.294	21747
847.429	21728
847.565	21572
847.701	21884
847.837	21492
847.972	21374
848.108	21450
848.244	21420
848.379	21329
848.515	21252
848.65	21313
848.786	21230
848.921	21302
849.057	21412
849.192	21351
849.328	21332
849.463	21306
849.598	21154
849.734	21173
849.869	21180
850.004	21009
850.14	21108
850.275	21039
850.41	20933
850.545	20963
850.68	21043
850.815	21123
850.95	20941
851.085	21157
851.22	21112
851.355	21062
851.49	21127
851.625	21028
851.76	21214
851.895	20891
852.03	21024
852.165	21020
852.299	21055
852.434	21066
852.569	21062
852.703	21001
852.838	21104
852.973	21302
853.107	21150
853.242	21001
853.376	20967
853.511	20758
853.645	20815
853.78	21009
853.914	20921
854.048	20804
854.183	20857
854.317	20918
854.451	21001
854.585	20857
854.72	20830
854.854	20872
854.988	20861
855.122	20826
855.256	20655
855.39	20857
855.524	20842
855.658	20857
855.792	20899
855.926	20807
856.06	20864
856.194	20883
856.327	20910
856.461	20769
856.595	20815
856.729	20906
856.862	20979
856.996	20979
857.13	20990
857.263	20857
857.397	20876
857.53	20811
857.664	20834
857.797	20921
857.931	20944
858.064	20944
858.197	21005
858.331	20918
858.464	20727
858.597	20716
858.731	20902
858.864	20857
858.997	20864
859.13	20887
859.263	20876
859.396	20998
859.529	20872
859.662	20765
859.795	20887
859.928	20807
860.061	20941
860.194	21085
860.327	20910
860.46	20853
860.592	20982
860.725	20979
860.858	20948
860.99	20788
861.123	20716
861.256	20819
861.388	20815
861.521	21564
861.653	20697
861.786	20682
861.918	20689
862.05	20678
862.183	20842
862.315	20697
862.447	20914
862.58	20819
862.712	20583
862.844	20495
862.976	20670
863.108	20621
863.24	21009
863.372	20503
863.504	20609
863.636	20549
863.768	20613
863.9	20549
864.032	20492
864.164	20511
864.296	20609
864.428	20773
864.559	20629
864.691	20636
864.823	20507
864.954	20598
865.086	20560
865.217	20499
865.349	20389
865.48	20530
865.612	20545
865.743	20636
865.875	20480
866.006	20450
866.137	20533
866.269	20492
866.4	20385
866.531	20419
866.662	20324
866.793	20313
866.924	20332
867.055	20412
867.186	20423
867.317	20374
867.448	20275
867.579	20286
867.71	20313
867.841	20320
867.972	20423
868.103	20412
868.233	20385
868.364	20389
868.495	20484
868.625	20518
868.756	20746
868.886	20564
869.017	20613
869.147	20769
869.278	20739
869.408	20720
869.539	20670
869.669	20678
869.799	20720
869.929	20918
870.06	20785
870.19	20986
870.32	20937
870.45	20982
870.58	21089
870.71	21192
870.84	21093
870.97	21051
871.1	21096
871.23	21245
871.36	21294
871.489	21104
871.619	21203
871.749	21188
871.879	21252
872.008	21397
872.138	21363
872.267	21184
872.397	21135
872.526	20982
872.656	21066
872.785	21100
872.915	21157
873.044	21317
873.173	21218
873.303	21302
873.432	21264
873.561	21252
873.69	21355
873.819	21237
873.948	21218
874.077	21264
874.206	21142
874.335	21287
874.464	21401
874.593	21504
874.722	21473
874.851	21519
874.979	21530
875.108	21523
875.237	21485
875.365	21477
875.494	21572
875.623	21564
875.751	21488
875.88	21622
876.008	21633
876.136	21698
876.265	21941
876.393	21994
876.521	21956
876.65	22040
876.778	21968
876.906	21865
877.034	21694
877.162	21743
877.29	21705
877.418	21960
877.546	21945
877.674	21823
877.802	21770
877.93	21911
878.058	21766
878.185	21709
878.313	21774
878.441	21861
878.568	21686
878.696	21850
878.824	21774
878.951	21823
879.079	22067
879.206	22055
879.333	22051
879.461	21915
879.588	21926
879.715	22044
879.842	22139
879.97	21812
880.097	21717
880.224	21648
880.351	21690
880.478	21774
880.605	21610
880.732	21591
880.859	21926
880.986	21751
881.112	21728
881.239	21553
881.366	21488
881.493	21389
881.619	21321
881.746	21310
881.872	21268
881.999	21214
882.125	21272
882.252	21291
882.378	21252
882.505	21374
882.631	21077
882.757	20979
882.883	21039
883.01	21028
883.136	20880
883.262	20872
883.388	20891
883.514	20845
883.64	21020
883.766	21020
883.892	20773
884.018	20743
884.143	20963
884.269	21039
884.395	20686
884.52	20469
884.646	20568
884.772	20590
884.897	20549
885.023	20598
885.148	20708
885.274	20868
885.399	20773
885.524	20590
885.65	20651
885.775	20629
885.9	20590
886.025	20823
886.15	20636
886.275	20492
886.4	20492
886.525	20492
886.65	20473
886.775	20571
886.9	20682
887.025	20849
887.149	20629
887.274	20427
887.399	20419
887.523	20446
887.648	20419
887.773	20161
887.897	20484
888.021	20313
888.146	20301
888.27	20511
888.395	20488
888.519	20423
888.643	20355
888.767	20469
888.891	20233
889.015	20134
889.139	20237
889.263	20229
889.387	20290
889.511	20267
889.635	20358
889.759	20244
889.883	20111
890.006	20130
890.13	20244
890.254	20149
890.377	20058
890.501	19902
890.624	19856
890.748	19959
890.871	19841
890.995	19799
891.118	19628
891.241	19856
891.364	19738
891.488	19925
891.611	19830
891.734	19776
891.857	19818
891.98	19822
892.103	19776
892.226	19814
892.349	19738
892.471	19567
892.594	19674
892.717	19666
892.839	19715
892.962	19727
893.085	19723
893.207	19666
893.33	19556
893.452	19704
893.575	19723
893.697	19719
893.819	19845
893.941	19959
894.064	19830
894.186	19639
894.308	19666
894.43	19700
894.552	19822
894.674	19757
894.796	19510
894.918	19571
895.04	19742
895.161	19868
895.283	19753
895.405	19624
895.526	19746
895.648	19742
895.769	19734
895.891	19811
896.012	19776
896.134	19769
896.255	19734
896.376	19719
896.498	19624
896.619	19704
896.74	19628
896.861	19750
896.982	19959
897.103	20237
897.224	19936
897.345	19879
897.466	19830
897.587	20008
897.708	20073
897.828	19944
897.949	19909
898.07	19826
898.19	19833
898.311	20012
898.431	19871
898.552	19967
898.672	19932
898.792	19944
898.913	19974
899.033	19852
899.153	19723
899.273	19674
899.393	19537
899.513	19715
899.633	19700
899.753	19700
899.873	19677
899.993	19734
900.113	19651
900.232	19696
900.352	19525
900.472	19480
900.591	19377
900.711	19620
900.83	19483
900.95	19533
901.069	19457
901.189	19358
901.308	19061
901.427	19145
901.546	19069
901.665	19004
901.784	19141
901.904	18943
902.023	18802
902.141	18601
902.26	18688
902.379	18654
902.498	18661
902.617	18475
902.735	18650
902.854	18551
902.973	18433
903.091	18319
903.21	18292
903.328	18254
903.446	18155
903.565	18072
903.683	18144
903.801	17927
903.919	18087
904.038	17984
904.156	17764
904.274	18011
904.392	17847
904.51	17687
904.627	17824
904.745	17954
904.863	17980
904.981	17604
905.098	17463
905.216	17497
905.334	17520
905.451	17543
905.569	17440
905.686	17532
905.803	17543
905.921	17292
906.038	17482
906.155	17383
906.272	17197
906.389	17170
906.506	17105
906.623	16972
906.74	17109
906.857	16915
906.974	16991
907.091	17117
907.208	17223
907.324	17064
907.441	16908
907.557	16774
907.674	16820
907.79	16748
907.907	16740
908.023	16839
908.139	16771
908.256	16691
908.372	16637
908.488	16634
908.604	16546
908.72	16474
908.836	16405
908.952	16390
909.068	16440
909.184	16588
909.3	16478
909.415	16519
909.531	16455
909.647	16249
909.762	16223
909.878	16101
909.993	16173
910.108	16215
910.224	16074
910.339	16074
910.454	16105
910.57	16071
910.685	15953
910.8	16196
910.915	16067
911.03	15937
911.145	15854
911.259	15865
911.374	15785
911.489	15679
911.604	15667
911.718	15530
911.833	15538
911.947	15435
912.062	15416
912.176	15739
912.291	15458
912.405	15576
912.519	15717
912.633	15732
912.748	15549
912.862	15496
912.976	15412
913.09	15188
913.204	15367
913.318	15252
913.431	15374
913.545	15435
913.659	15431
913.772	15332
913.886	15108
914	15108
914.113	15233
914.226	15294
914.34	15188
914.453	15093
914.566	15214
914.68	14998
914.793	15093
914.906	14811
915.019	14727
915.132	14769
915.245	14781
915.358	14788
915.47	14796
915.583	14686
915.696	14811
915.809	14857
915.921	14937
916.034	14667
916.146	14689
916.259	14716
916.371	14758
916.483	14746
916.595	14667
916.708	14617
916.82	14648
916.932	14545
917.044	14541
917.156	14594
917.268	14381
917.38	14415
917.491	14419
917.603	14446
917.715	14434
917.826	14526
917.938	14389
918.049	14237
918.161	14305
918.272	14507
918.384	14499
918.495	14362
918.606	14240
918.717	14210
918.828	14271
918.939	14301
919.05	14191
919.161	14142
919.272	14005
919.383	14107
919.494	14248
919.604	14362
919.715	14065
919.826	14115
919.936	14077
920.047	14248
920.157	14214
920.267	14385
920.378	14244
920.488	14100
920.598	14431
920.708	14473
920.818	14275
920.928	14263
921.038	14514
921.148	14393
921.258	14161
921.368	14088
921.477	13970
921.587	13890
921.697	13769
921.806	13909
921.916	13715
922.025	13647
922.134	13487
922.244	13506
922.353	13643
922.462	13491
922.571	13285
922.68	13236
922.789	13198
922.898	13316
923.007	13129
923.116	13247
923.224	13110
923.333	13228
923.442	13103
923.55	13004
923.659	13114
923.767	13152
923.876	13034
923.984	13084
924.092	12989
924.201	12993
924.309	12996
924.417	13008
924.525	12890
924.633	12973
924.741	13613
924.849	12665
924.956	12787
925.064	12722
925.172	12612
925.279	12665
925.387	12646
925.494	12555
925.602	12890
925.709	12677
925.816	12544
925.924	12593
926.031	12726
926.138	12574
926.245	12662
926.352	12448
926.459	12620
926.566	12741
926.673	12502
926.779	12372
926.886	12494
926.993	12254
927.099	12304
927.206	12224
927.312	12163
927.419	12304
927.525	12228
927.631	12300
927.737	12136
927.843	12106
927.95	11984
928.056	12011
928.162	12060
928.267	12003
928.373	12700
928.479	12125
928.585	11961
928.69	12045
928.796	12030
928.901	11893
929.007	11783
929.112	11897
929.218	11912
929.323	11832
929.428	11748
929.533	11973
929.638	11718
929.743	11786
929.848	11798
929.953	11695
930.058	11646
930.163	11497
930.267	11600
930.372	11596
930.477	11417
930.581	11676
930.685	11520
930.79	11402
930.894	11402
930.998	11364
931.103	11490
931.207	11041
931.311	11067
931.415	11014
931.519	10793
931.623	10786
