Data from test_V78500241_302.txt Node
Date: Fri Mar 25 15:43:53 CST 2022
User: usil
Spectrometer: V785-0024
Trigger mode: 0
Integration Time (sec): 4.000000E-1
Scans to average: 1
Nonlinearity correction enabled: false
Boxcar width: 0
Storing dark spectrum: false
XAxis mode: Wavelengths
Number of Pixels in Spectrum: 1024
>>>>>Begin Spectral Data<<<<<
801.071	29075
801.214	28946
801.356	28744
801.499	28679
801.641	28615
801.783	28565
801.926	28577
802.068	28542
802.211	28401
802.353	28462
802.496	28242
802.638	28078
802.78	28276
802.923	28143
803.065	28082
803.208	28268
803.35	28219
803.492	28238
803.635	28386
803.777	28303
803.919	28352
804.061	28641
804.204	28409
804.346	28185
804.488	28268
804.63	28371
804.773	28150
804.915	28337
805.057	28401
805.199	28215
805.341	28337
805.483	28516
805.626	28413
805.768	28295
805.91	28417
806.052	28421
806.194	28280
806.336	28603
806.478	28417
806.62	28462
806.762	28527
806.904	28645
807.046	28877
807.188	28938
807.33	28752
807.472	28839
807.614	28786
807.756	28672
807.898	28538
808.04	28455
808.182	28561
808.324	28573
808.465	28588
808.607	28736
808.749	28904
808.891	29132
809.033	29018
809.174	29151
809.316	28972
809.458	28976
809.6	28972
809.741	29227
809.883	28991
810.025	29284
810.166	29227
810.308	29368
810.45	29284
810.591	29345
810.733	29086
810.875	28782
811.016	28873
811.158	29022
811.299	29124
811.441	29132
811.582	29197
811.724	28984
811.865	28911
812.007	28896
812.148	28946
812.29	29105
812.431	29083
812.573	29299
812.714	29395
812.855	29630
812.997	29558
813.138	29657
813.279	29596
813.421	29444
813.562	29554
813.703	29318
813.845	29147
813.986	28767
814.127	28660
814.268	28523
814.41	28603
814.551	28546
814.692	28771
814.833	28531
814.974	28573
815.115	28588
815.256	28474
815.397	28542
815.539	28519
815.68	28382
815.821	28268
815.962	28322
816.103	28322
816.244	28162
816.385	28010
816.526	28090
816.666	27941
816.807	27888
816.948	27937
817.089	27987
817.23	27812
817.371	27884
817.512	27937
817.653	27736
817.793	27778
817.934	27701
818.075	27880
818.216	27911
818.356	27770
818.497	27698
818.638	27515
818.778	27603
818.919	27553
819.06	27458
819.2	27652
819.341	27618
819.481	27774
819.622	27808
819.762	28109
819.903	28044
820.043	27941
820.184	27812
820.324	27918
820.465	27937
820.605	27876
820.746	27854
820.886	27747
821.026	27903
821.167	27816
821.307	27857
821.447	27793
821.588	27686
821.728	27583
821.868	27378
822.008	27245
822.149	27214
822.289	27180
822.429	26979
822.569	26842
822.709	26929
822.849	26651
822.99	26541
823.13	26579
823.27	26617
823.41	26465
823.55	26438
823.69	26453
823.83	26533
823.97	26453
824.11	26210
824.25	26347
824.389	26187
824.529	26324
824.669	26400
824.809	26484
824.949	26560
825.089	26221
825.228	26351
825.368	26149
825.508	26157
825.648	26122
825.787	26233
825.927	26180
826.067	26134
826.206	26062
826.346	26081
826.485	26183
826.625	26229
826.765	26168
826.904	26172
827.044	25970
827.183	25906
827.323	25712
827.462	25860
827.601	25628
827.741	25765
827.88	25898
828.02	25704
828.159	25784
828.298	25852
828.437	25875
828.577	25639
828.716	25898
828.855	25738
828.994	25464
829.134	25468
829.273	25575
829.412	25422
829.551	25377
829.69	25438
829.829	25487
829.968	25533
830.107	25563
830.246	25396
830.385	25388
830.524	25263
830.663	25255
830.802	25179
830.941	24962
831.08	24954
831.219	24996
831.357	25107
831.496	25152
831.635	24973
831.774	24966
831.913	25000
832.051	24783
832.19	24875
832.329	24897
832.467	24760
832.606	24589
832.744	24722
832.883	24707
833.022	24703
833.16	24821
833.299	24658
833.437	24837
833.576	24730
833.714	24772
833.852	24791
833.991	24779
834.129	24673
834.267	24795
834.406	24753
834.544	24791
834.682	24703
834.821	24544
834.959	24760
835.097	24681
835.235	24856
835.373	24669
835.511	24547
835.65	24574
835.788	24540
835.926	24224
836.064	24292
836.202	24365
836.34	24403
836.478	24547
836.615	24429
836.753	24525
836.891	24673
837.029	24494
837.167	24532
837.305	24353
837.443	24490
837.58	24426
837.718	24395
837.856	24388
837.993	24266
838.131	24315
838.269	24072
838.406	24342
838.544	24155
838.681	24007
838.819	23874
838.956	23851
839.094	23722
839.231	24007
839.369	23935
839.506	24129
839.643	23992
839.781	23866
839.918	23680
840.055	23767
840.193	23809
840.33	23722
840.467	23863
840.604	23672
840.742	23992
840.879	23623
841.016	23596
841.153	23581
841.29	23813
841.427	23695
841.564	23726
841.701	23676
841.838	23547
841.975	23543
842.112	23471
842.249	23512
842.385	23444
842.522	23615
842.659	23463
842.796	23326
842.933	23360
843.069	23402
843.206	23326
843.343	23417
843.479	23444
843.616	23410
843.752	23277
843.889	23094
844.025	23265
844.162	23102
844.298	23322
844.435	23189
844.571	23067
844.708	23121
844.844	23254
844.98	23261
845.117	23277
845.253	23174
845.389	22927
845.525	23022
845.661	22889
845.798	22850
845.934	22885
846.07	22790
846.206	22911
846.342	22915
846.478	22869
846.614	22630
846.75	22615
846.886	22459
847.022	22702
847.158	22656
847.294	22546
847.429	22653
847.565	22489
847.701	22752
847.837	22238
847.972	22234
848.108	22352
848.244	22276
848.379	22280
848.515	22207
848.65	22219
848.786	22158
848.921	22147
849.057	22059
849.192	22299
849.328	22109
849.463	22086
849.598	22143
849.734	22051
849.869	22017
850.004	21892
850.14	21854
850.275	21816
850.41	21831
850.545	21934
850.68	22044
850.815	21899
850.95	21937
851.085	21915
851.22	21911
851.355	21895
851.49	21892
851.625	21850
851.76	21827
851.895	21759
852.03	21732
852.165	21778
852.299	21835
852.434	21857
852.569	21785
852.703	21888
852.838	21911
852.973	21930
853.107	21960
853.242	21808
853.376	21686
853.511	21526
853.645	21660
853.78	21804
853.914	21587
854.048	21564
854.183	21694
854.317	21534
854.451	21785
854.585	21614
854.72	21591
854.854	21766
854.988	21751
855.122	21766
855.256	21644
855.39	21679
855.524	21694
855.658	21660
855.792	21580
855.926	21625
856.06	21641
856.194	21671
856.327	21660
856.461	21663
856.595	21656
856.729	21663
856.862	21732
856.996	21679
857.13	21641
857.263	21850
857.397	21816
857.53	21637
857.664	21622
857.797	21637
857.931	21739
858.064	21545
858.197	21774
858.331	21553
858.464	21572
858.597	21488
858.731	21629
858.864	21561
858.997	21492
859.13	21561
859.263	21568
859.396	21675
859.529	21587
859.662	21549
859.795	21507
859.928	21622
860.061	21705
860.194	21766
860.327	21736
860.46	21614
860.592	21675
860.725	21793
860.858	21759
860.99	21618
861.123	21492
861.256	21557
861.388	21713
861.521	22333
861.653	21507
861.786	21488
861.918	21477
862.05	21519
862.183	21599
862.315	21576
862.447	21629
862.58	21587
862.712	21344
862.844	21272
862.976	21367
863.108	21412
863.24	21694
863.372	21283
863.504	21321
863.636	21291
863.768	21275
863.9	21351
864.032	21294
864.164	21268
864.296	21325
864.428	21317
864.559	21435
864.691	21340
864.823	21344
864.954	21313
865.086	21325
865.217	21275
865.349	21108
865.48	21256
865.612	21325
865.743	21306
865.875	21226
866.006	21127
866.137	21252
866.269	21188
866.4	21146
866.531	21150
866.662	21077
866.793	21104
866.924	21161
867.055	21104
867.186	21157
867.317	21085
867.448	21017
867.579	20994
867.71	21047
867.841	21024
867.972	21173
868.103	21135
868.233	21062
868.364	21116
868.495	21272
868.625	21351
868.756	21393
868.886	21310
869.017	21329
869.147	21485
869.278	21511
869.408	21454
869.539	21313
869.669	21367
869.799	21363
869.929	21462
870.06	21370
870.19	21675
870.32	21603
870.45	21717
870.58	21637
870.71	21797
870.84	21880
870.97	21838
871.1	21819
871.23	21949
871.36	21926
871.489	21922
871.619	21937
871.749	21907
871.879	21941
872.008	22070
872.138	22032
872.267	21945
872.397	21850
872.526	21800
872.656	21743
872.785	21713
872.915	21945
873.044	21968
873.173	21926
873.303	21998
873.432	21888
873.561	22078
873.69	21968
873.819	21884
873.948	21941
874.077	21972
874.206	22032
874.335	22036
874.464	22040
874.593	22192
874.722	22109
874.851	22299
874.979	22249
875.108	22253
875.237	22158
875.365	22070
875.494	22185
875.623	22200
875.751	22322
875.88	22219
876.008	22230
876.136	22500
876.265	22565
876.393	22656
876.521	22744
876.65	22683
876.778	22687
876.906	22603
877.034	22451
877.162	22706
877.29	22523
877.418	22577
877.546	22706
877.674	22447
877.802	22459
877.93	22504
878.058	22516
878.185	22432
878.313	22550
878.441	22645
878.568	22382
878.696	22440
878.824	22672
878.951	22717
879.079	22828
879.206	22831
879.333	22763
879.461	22470
879.588	22626
879.715	22793
879.842	22782
879.97	22508
880.097	22409
880.224	22356
880.351	22424
880.478	22474
880.605	22360
880.732	22363
880.859	22641
880.986	22322
881.112	22447
881.239	22242
881.366	22021
881.493	22048
881.619	22040
881.746	21953
881.872	21998
881.999	21979
882.125	22021
882.252	21987
882.378	21983
882.505	22143
882.631	21918
882.757	21720
882.883	21774
883.01	21580
883.136	21618
883.262	21557
883.388	21572
883.514	21759
883.64	21800
883.766	21595
883.892	21496
884.018	21401
884.143	21690
884.269	21644
884.395	21355
884.52	21241
884.646	21230
884.772	21313
884.897	21195
885.023	21359
885.148	21374
885.274	21420
885.399	21359
885.524	21317
885.65	21294
885.775	21344
885.9	21287
886.025	21378
886.15	21466
886.275	21252
886.4	21310
886.525	21119
886.65	21222
886.775	21157
886.9	21332
887.025	21511
887.149	21165
887.274	20952
887.399	21013
887.523	21047
887.648	20967
887.773	20872
887.897	21154
888.021	21020
888.146	21009
888.27	21165
888.395	21176
888.519	21100
888.643	21123
888.767	21005
888.891	20979
889.015	20880
889.139	20956
889.263	20735
889.387	20861
889.511	21161
889.635	20960
889.759	20830
889.883	20762
890.006	20864
890.13	20948
890.254	20845
890.377	20781
890.501	20541
890.624	20537
890.748	20492
890.871	20469
890.995	20431
891.118	20256
891.241	20434
891.364	20328
891.488	20503
891.611	20358
891.734	20400
891.857	20434
891.98	20465
892.103	20473
892.226	20454
892.349	20343
892.471	20107
892.594	20343
892.717	20309
892.839	20332
892.962	20210
893.085	20400
893.207	20271
893.33	20214
893.452	20267
893.575	20431
893.697	20275
893.819	20404
893.941	20495
894.064	20415
894.186	20202
894.308	20328
894.43	20298
894.552	20514
894.674	20347
894.796	20134
894.918	20256
895.04	20324
895.161	20492
895.283	20396
895.405	20263
895.526	20355
895.648	20408
895.769	20290
895.891	20404
896.012	20419
896.134	20412
896.255	20358
896.376	20324
896.498	20252
896.619	20385
896.74	20324
896.861	20431
896.982	20606
897.103	20838
897.224	20701
897.345	20537
897.466	20571
897.587	20587
897.708	20629
897.828	20556
897.949	20404
898.07	20476
898.19	20518
898.311	20556
898.431	20579
898.552	20511
898.672	20499
898.792	20545
898.913	20511
899.033	20355
899.153	20240
899.273	20119
899.393	20317
899.513	20271
899.633	20259
899.753	20351
899.873	20225
899.993	20248
900.113	20191
900.232	20214
900.352	20153
900.472	20100
900.591	19959
900.711	20039
900.83	19921
900.95	20077
901.069	20092
901.189	19993
901.308	19670
901.427	19578
901.546	19674
901.665	19620
901.784	19559
901.904	19438
902.023	19365
902.141	19171
902.26	19148
902.379	19327
902.498	19027
902.617	19118
902.735	19126
902.854	19088
902.973	19065
903.091	18901
903.21	18734
903.328	18783
903.446	18730
903.565	18551
903.683	18597
903.801	18300
903.919	18563
904.038	18467
904.156	18350
904.274	18475
904.392	18304
904.51	18171
904.627	18422
904.745	18372
904.863	18452
904.981	18205
905.098	18030
905.216	18045
905.334	17885
905.451	18117
905.569	17961
905.686	17969
905.803	17984
905.921	17783
906.038	17923
906.155	17798
906.272	17748
906.389	17608
906.506	17539
906.623	17493
906.74	17554
906.857	17459
906.974	17452
907.091	17554
907.208	17630
907.324	17505
907.441	17410
907.557	17349
907.674	17246
907.79	17121
907.907	17239
908.023	17223
908.139	17189
908.256	17048
908.372	17159
908.488	17136
908.604	16938
908.72	16763
908.836	16896
908.952	16930
909.068	17029
909.184	16984
909.3	16900
909.415	16938
909.531	16854
909.647	16683
909.762	16637
909.878	16519
909.993	16687
910.108	16558
910.224	16630
910.339	16588
910.454	16531
910.57	16421
910.685	16322
910.8	16656
910.915	16504
911.03	16356
911.145	16211
911.259	16158
911.374	16177
911.489	16120
911.604	16093
911.718	15823
911.833	15956
911.947	15797
912.062	15842
912.176	15960
912.291	15941
912.405	15930
912.519	16158
912.633	16116
912.748	15892
912.862	15857
912.976	15736
913.09	15701
913.204	15614
913.318	15656
913.431	15800
913.545	15876
913.659	15816
913.772	15686
913.886	15603
914	15500
914.113	15622
914.226	15629
914.34	15519
914.453	15428
914.566	15629
914.68	15363
914.793	15359
914.906	15252
915.019	15165
915.132	15028
915.245	15074
915.358	15131
915.47	15192
915.583	15150
915.696	15207
915.809	15272
915.921	15245
916.034	15108
916.146	15066
916.259	14941
916.371	15169
916.483	15104
916.595	14944
916.708	14990
916.82	15020
916.932	14975
917.044	14956
917.156	14880
917.268	14788
917.38	14857
917.491	14739
917.603	14777
917.715	14880
917.826	14857
917.938	14754
918.049	14667
918.161	14758
918.272	14845
918.384	14819
918.495	14674
918.606	14632
918.717	14575
918.828	14594
918.939	14511
919.05	14488
919.161	14438
919.272	14355
919.383	14343
919.494	14594
919.604	14743
919.715	14507
919.826	14317
919.936	14465
920.047	14465
920.157	14488
920.267	14606
920.378	14488
920.488	14415
920.598	14674
920.708	14830
920.818	14587
920.928	14518
921.038	14712
921.148	14765
921.258	14454
921.368	14317
921.477	14233
921.587	14218
921.697	14123
921.806	14202
921.916	13963
922.025	13978
922.134	13871
922.244	13811
922.353	13864
922.462	13704
922.571	13639
922.68	13544
922.789	13483
922.898	13514
923.007	13537
923.116	13563
923.224	13430
923.333	13457
923.442	13304
923.55	13339
923.659	13343
923.767	13377
923.876	13217
923.984	13293
924.092	13190
924.201	13259
924.309	13297
924.417	13217
924.525	13179
924.633	13190
924.741	14039
924.849	12935
924.956	13141
925.064	13080
925.172	12875
925.279	12962
925.387	12973
925.494	12924
925.602	13038
925.709	12935
925.816	12798
925.924	12901
926.031	12909
926.138	12829
926.245	12894
926.352	12711
926.459	12932
926.566	12897
926.673	12806
926.779	12616
926.886	12547
926.993	12528
927.099	12448
927.206	12418
927.312	12437
927.419	12570
927.525	12479
927.631	12532
927.737	12403
927.843	12266
927.95	12186
928.056	12292
928.162	12262
928.267	12330
928.373	12958
928.479	12289
928.585	12175
928.69	12292
928.796	12239
928.901	12186
929.007	11973
929.112	12152
929.218	12072
929.323	12003
929.428	11954
929.533	12209
929.638	11950
929.743	11992
929.848	12022
929.953	11969
930.058	11840
930.163	11653
930.267	11680
930.372	11832
930.477	11642
930.581	11961
930.685	11775
930.79	11596
930.894	11585
930.998	11562
931.103	11691
931.207	11364
931.311	11273
931.415	11181
931.519	11075
931.623	10942
