Data from test_V78500241_2055.txt Node
Date: Fri Mar 25 15:56:02 CST 2022
User: usil
Spectrometer: V785-0024
Trigger mode: 0
Integration Time (sec): 4.000000E-1
Scans to average: 1
Nonlinearity correction enabled: false
Boxcar width: 0
Storing dark spectrum: false
XAxis mode: Wavelengths
Number of Pixels in Spectrum: 1024
>>>>>Begin Spectral Data<<<<<
801.071	28904
801.214	28900
801.356	28698
801.499	28725
801.641	28733
801.783	28542
801.926	28744
802.068	28508
802.211	28561
802.353	28618
802.496	28284
802.638	28310
802.78	28333
802.923	28226
803.065	28112
803.208	28131
803.35	28382
803.492	28382
803.635	28546
803.777	28459
803.919	28649
804.061	28763
804.204	28531
804.346	28523
804.488	28337
804.63	28489
804.773	28455
804.915	28630
805.057	28778
805.199	28630
805.341	28626
805.483	28611
805.626	28596
805.768	28535
805.91	28786
806.052	28725
806.194	28523
806.336	28702
806.478	28869
806.62	28618
806.762	28713
806.904	28923
807.046	29277
807.188	29109
807.33	29136
807.472	29292
807.614	29143
807.756	29280
807.898	28968
808.04	29094
808.182	28869
808.324	29037
808.465	29151
808.607	29258
808.749	29402
808.891	29375
809.033	29665
809.174	29417
809.316	29349
809.458	29372
809.6	29322
809.741	29665
809.883	29471
810.025	29684
810.166	29737
810.308	29756
810.45	29627
810.591	29661
810.733	29505
810.875	29315
811.016	29299
811.158	29159
811.299	29410
811.441	29691
811.582	29471
811.724	29455
811.865	29436
812.007	29364
812.148	29459
812.29	29558
812.431	29581
812.573	29832
812.714	29904
812.855	29882
812.997	30068
813.138	30197
813.279	30049
813.421	29988
813.562	29923
813.703	29687
813.845	29627
813.986	29360
814.127	29227
814.268	29151
814.41	29128
814.551	29102
814.692	29071
814.833	29117
814.974	29193
815.115	29155
815.256	29071
815.397	28965
815.539	28919
815.68	29003
815.821	28831
815.962	28869
816.103	28949
816.244	28927
816.385	28691
816.526	28767
816.666	28573
816.807	28405
816.948	28675
817.089	28565
817.23	28459
817.371	28371
817.512	28493
817.653	28554
817.793	28474
817.934	28546
818.075	28561
818.216	28443
818.356	28390
818.497	28405
818.638	28128
818.778	28253
818.919	28234
819.06	28356
819.2	28455
819.341	28512
819.481	28428
819.622	28630
819.762	28820
819.903	28634
820.043	28725
820.184	28588
820.324	28618
820.465	28809
820.605	28706
820.746	28653
820.886	28535
821.026	28531
821.167	28649
821.307	28752
821.447	28531
821.588	28363
821.728	28276
821.868	28215
822.008	28055
822.149	28017
822.289	27880
822.429	27606
822.569	27587
822.709	27660
822.849	27466
822.99	27587
823.13	27485
823.27	27367
823.41	27272
823.55	27207
823.69	27344
823.83	27427
823.97	27127
824.11	27161
824.25	27017
824.389	27047
824.529	27112
824.669	27131
824.809	27233
824.949	27218
825.089	27188
825.228	27119
825.368	27009
825.508	26998
825.648	27047
825.787	27176
825.927	27161
826.067	26982
826.206	27005
826.346	27001
826.485	27070
826.625	27013
826.765	27093
826.904	27070
827.044	26834
827.183	26834
827.323	26819
827.462	26849
827.601	26712
827.741	26682
827.88	26773
828.02	26606
828.159	26655
828.298	26781
828.437	26727
828.577	26617
828.716	26731
828.855	26667
828.994	26427
829.134	26457
829.273	26442
829.412	26358
829.551	26271
829.69	26438
829.829	26362
829.968	26617
830.107	26495
830.246	26457
830.385	26259
830.524	26305
830.663	26244
830.802	26183
830.941	25989
831.08	26077
831.219	26202
831.357	26138
831.496	26176
831.635	25986
831.774	25883
831.913	25894
832.051	25799
832.19	25807
832.329	25811
832.467	25742
832.606	25575
832.744	25658
832.883	25811
833.022	25689
833.16	25609
833.299	25731
833.437	25708
833.576	25731
833.714	25822
833.852	25845
833.991	25738
834.129	25814
834.267	25807
834.406	25757
834.544	25700
834.682	25746
834.821	25734
834.959	25868
835.097	25715
835.235	25670
835.373	25658
835.511	25822
835.65	25696
835.788	25696
835.926	25438
836.064	25457
836.202	25400
836.34	25635
836.478	25670
836.615	25464
836.753	25518
836.891	25537
837.029	25613
837.167	25479
837.305	25434
837.443	25403
837.58	25308
837.718	25518
837.856	25476
837.993	25491
838.131	25354
838.269	25266
838.406	25343
838.544	25187
838.681	25202
838.819	24947
838.956	24913
839.094	24856
839.231	24932
839.369	25145
839.506	25251
839.643	25061
839.781	24856
839.918	24661
840.055	24943
840.193	24814
840.33	24757
840.467	24719
840.604	24840
840.742	25084
840.879	24582
841.016	24684
841.153	24684
841.29	24935
841.427	24817
841.564	24734
841.701	24692
841.838	24802
841.975	24544
842.112	24563
842.249	24578
842.385	24608
842.522	24719
842.659	24574
842.796	24566
842.933	24525
843.069	24448
843.206	24532
843.343	24555
843.479	24620
843.616	24460
843.752	24388
843.889	24296
844.025	24391
844.162	24228
844.298	24353
844.435	24296
844.571	24197
844.708	24357
844.844	24475
844.98	24445
845.117	24395
845.253	24194
845.389	24194
845.525	24121
845.661	24136
845.798	24129
845.934	24068
846.07	23942
846.206	24079
846.342	24190
846.478	23912
846.614	23824
846.75	23710
846.886	23687
847.022	23790
847.158	23802
847.294	23741
847.429	23764
847.565	23642
847.701	24030
847.837	23391
847.972	23512
848.108	23623
848.244	23573
848.379	23231
848.515	23345
848.65	23307
848.786	23315
848.921	23326
849.057	23459
849.192	23292
849.328	23471
849.463	23269
849.598	23143
849.734	23189
849.869	23223
850.004	23102
850.14	23029
850.275	23166
850.41	22965
850.545	23147
850.68	23124
850.815	23105
850.95	23037
851.085	23299
851.22	23166
851.355	23094
851.49	22995
851.625	23029
851.76	22987
851.895	23041
852.03	23022
852.165	23136
852.299	23113
852.434	23117
852.569	23067
852.703	23117
852.838	23147
852.973	23185
853.107	23200
853.242	22904
853.376	22904
853.511	22752
853.645	22923
853.78	22976
853.914	22968
854.048	22824
854.183	22991
854.317	22972
854.451	23155
854.585	22793
854.72	22896
854.854	22949
854.988	22938
855.122	22805
855.256	22774
855.39	22927
855.524	22946
855.658	23022
855.792	22915
855.926	22934
856.06	22991
856.194	23010
856.327	22965
856.461	22873
856.595	22850
856.729	22889
856.862	22972
856.996	22824
857.13	22896
857.263	23071
857.397	23071
857.53	22881
857.664	22972
857.797	23113
857.931	22999
858.064	22938
858.197	23048
858.331	22938
858.464	23006
858.597	22911
858.731	22809
858.864	22786
858.997	22915
859.13	22839
859.263	22915
859.396	22968
859.529	22904
859.662	22885
859.795	22889
859.928	22930
860.061	23185
860.194	23170
860.327	22949
860.46	22877
860.592	23048
860.725	23105
860.858	22930
860.99	22946
861.123	22793
861.256	22942
861.388	22991
861.521	23634
861.653	22774
861.786	22721
861.918	22641
862.05	22820
862.183	22915
862.315	22927
862.447	22949
862.58	22744
862.712	22569
862.844	22656
862.976	22740
863.108	22679
863.24	23143
863.372	22542
863.504	22531
863.636	22706
863.768	22675
863.9	22630
864.032	22497
864.164	22683
864.296	22672
864.428	22774
864.559	22569
864.691	22809
864.823	22767
864.954	22668
865.086	22626
865.217	22550
865.349	22382
865.48	22402
865.612	22550
865.743	22675
865.875	22622
866.006	22531
866.137	22470
866.269	22546
866.4	22565
866.531	22443
866.662	22485
866.793	22531
866.924	22531
867.055	22493
867.186	22363
867.317	22462
867.448	22398
867.579	22360
867.71	22413
867.841	22291
867.972	22443
868.103	22371
868.233	22535
868.364	22440
868.495	22481
868.625	22675
868.756	22759
868.886	22573
869.017	22637
869.147	22786
869.278	22771
869.408	22721
869.539	22653
869.669	22687
869.799	22820
869.929	22801
870.06	22694
870.19	22995
870.32	23022
870.45	23094
870.58	23052
870.71	23200
870.84	23132
870.97	22923
871.1	23083
871.23	23189
871.36	23258
871.489	22949
871.619	23246
871.749	23261
871.879	23296
872.008	23433
872.138	23277
872.267	23322
872.397	23136
872.526	23136
872.656	23155
872.785	23174
872.915	23132
873.044	23341
873.173	23277
873.303	23406
873.432	23349
873.561	23356
873.69	23242
873.819	23212
873.948	23444
874.077	23277
874.206	23231
874.335	23368
874.464	23372
874.593	23497
874.722	23429
874.851	23558
874.979	23516
875.108	23585
875.237	23516
875.365	23402
875.494	23326
875.623	23627
875.751	23436
875.88	23448
876.008	23585
876.136	23531
876.265	23832
876.393	24026
876.521	23984
876.65	23958
876.778	23912
876.906	23805
877.034	23748
877.162	23908
877.29	23786
877.418	23752
877.546	23859
877.674	23809
877.802	23832
877.93	23920
878.058	23866
878.185	23672
878.313	23726
878.441	23756
878.568	23543
878.696	23927
878.824	23783
878.951	23863
879.079	23954
879.206	24098
879.333	23954
879.461	23908
879.588	23863
879.715	23904
879.842	24251
879.97	23855
880.097	23646
880.224	23684
880.351	23672
880.478	23611
880.605	23608
880.732	23577
880.859	23897
880.986	23646
881.112	23592
881.239	23562
881.366	23307
881.493	23178
881.619	23292
881.746	23117
881.872	23132
881.999	23155
882.125	23109
882.252	23254
882.378	23185
882.505	23174
882.631	23052
882.757	23037
882.883	22927
883.01	22881
883.136	22763
883.262	22809
883.388	22675
883.514	22866
883.64	22908
883.766	22778
883.892	22656
884.018	22653
884.143	22771
884.269	22691
884.395	22630
884.52	22474
884.646	22584
884.772	22481
884.897	22455
885.023	22573
885.148	22645
885.274	22634
885.399	22580
885.524	22413
885.65	22557
885.775	22508
885.9	22459
886.025	22504
886.15	22603
886.275	22405
886.4	22466
886.525	22527
886.65	22352
886.775	22531
886.9	22516
887.025	22516
887.149	22459
887.274	22303
887.399	22261
887.523	22200
887.648	22196
887.773	22162
887.897	22166
888.021	22322
888.146	22261
888.27	22314
888.395	22257
888.519	22318
888.643	22169
888.767	22276
888.891	22090
889.015	22006
889.139	22177
889.263	22006
889.387	22204
889.511	22333
889.635	22204
889.759	22105
889.883	21979
890.006	21903
890.13	22188
890.254	21888
890.377	21918
890.501	21747
890.624	21789
890.748	21766
890.871	21709
890.995	21625
891.118	21530
891.241	21625
891.364	21705
891.488	21572
891.611	21538
891.734	21507
891.857	21774
891.98	21576
892.103	21698
892.226	21606
892.349	21515
892.471	21416
892.594	21511
892.717	21424
892.839	21401
892.962	21439
893.085	21420
893.207	21500
893.33	21355
893.452	21340
893.575	21462
893.697	21416
893.819	21568
893.941	21713
894.064	21595
894.186	21397
894.308	21348
894.43	21534
894.552	21610
894.674	21530
894.796	21367
894.918	21348
895.04	21450
895.161	21545
895.283	21435
895.405	21260
895.526	21447
895.648	21298
895.769	21462
895.891	21477
896.012	21466
896.134	21450
896.255	21500
896.376	21462
896.498	21389
896.619	21374
896.74	21332
896.861	21431
896.982	21827
897.103	21800
897.224	21785
897.345	21625
897.466	21545
897.587	21625
897.708	21778
897.828	21629
897.949	21507
898.07	21378
898.19	21526
898.311	21686
898.431	21538
898.552	21564
898.672	21667
898.792	21667
898.913	21629
899.033	21515
899.153	21416
899.273	21302
899.393	21344
899.513	21389
899.633	21325
899.753	21374
899.873	21332
899.993	21340
900.113	21142
900.232	21294
900.352	21081
900.472	21203
900.591	21005
900.711	21074
900.83	21043
900.95	21256
901.069	21245
901.189	20986
901.308	20735
901.427	20632
901.546	20701
901.665	20541
901.784	20678
901.904	20488
902.023	20396
902.141	20233
902.26	20172
902.379	20202
902.498	20221
902.617	20077
902.735	20199
902.854	20172
902.973	20077
903.091	19917
903.21	19753
903.328	19780
903.446	19643
903.565	19620
903.683	19658
903.801	19575
903.919	19609
904.038	19525
904.156	19335
904.274	19426
904.392	19396
904.51	19346
904.627	19384
904.745	19472
904.863	19480
904.981	19179
905.098	18981
905.216	19110
905.334	19065
905.451	18928
905.569	19072
905.686	19107
905.803	19069
905.921	18913
906.038	18798
906.155	18840
906.272	18692
906.389	18669
906.506	18608
906.623	18623
906.74	18639
906.857	18399
906.974	18391
907.091	18574
907.208	18639
907.324	18502
907.441	18319
907.557	18201
907.674	18235
907.79	18201
907.907	18273
908.023	18239
908.139	18296
908.256	18178
908.372	18095
908.488	18114
908.604	17958
908.72	17992
908.836	17984
908.952	17973
909.068	17935
909.184	18186
909.3	18045
909.415	17927
909.531	17942
909.647	17710
909.762	17707
909.878	17554
909.993	17790
910.108	17638
910.224	17638
910.339	17745
910.454	17520
910.57	17509
910.685	17387
910.8	17638
910.915	17699
911.03	17452
911.145	17242
911.259	17200
911.374	17330
911.489	17208
911.604	17174
911.718	17022
911.833	17014
911.947	16934
912.062	16839
912.176	16946
912.291	17052
912.405	16934
912.519	17143
912.633	17121
912.748	16999
912.862	16957
912.976	16793
913.09	16740
913.204	16672
913.318	16782
913.431	16953
913.545	16805
913.659	16854
913.772	16736
913.886	16668
914	16565
914.113	16664
914.226	16645
914.34	16538
914.453	16447
914.566	16504
914.68	16474
914.793	16459
914.906	16188
915.019	16234
915.132	16097
915.245	16131
915.358	16230
915.47	16177
915.583	16109
915.696	16147
915.809	16215
915.921	16306
916.034	16112
916.146	16029
916.259	15968
916.371	16017
916.483	16124
916.595	16002
916.708	15953
916.82	15945
916.932	15907
917.044	15930
917.156	15857
917.268	15770
917.38	15774
917.491	15675
917.603	15747
917.715	15899
917.826	15869
917.938	15648
918.049	15622
918.161	15778
918.272	15781
918.384	15861
918.495	15637
918.606	15595
918.717	15515
918.828	15504
918.939	15393
919.05	15397
919.161	15431
919.272	15367
919.383	15382
919.494	15515
919.604	15736
919.715	15507
919.826	15389
919.936	15469
920.047	15485
920.157	15405
920.267	15671
920.378	15420
920.488	15386
920.598	15572
920.708	15724
920.818	15443
920.928	15500
921.038	15755
921.148	15663
921.258	15408
921.368	15283
921.477	15222
921.587	15142
921.697	15005
921.806	15081
921.916	15020
922.025	14887
922.134	14735
922.244	14788
922.353	14823
922.462	14689
922.571	14651
922.68	14450
922.789	14423
922.898	14415
923.007	14362
923.116	14450
923.224	14480
923.333	14476
923.442	14259
923.55	14248
923.659	14256
923.767	14313
923.876	14259
923.984	14214
924.092	14081
924.201	14187
924.309	14153
924.417	14218
924.525	14046
924.633	14092
924.741	14982
924.849	13936
924.956	14012
925.064	13894
925.172	13727
925.279	13757
925.387	13780
925.494	13742
925.602	13970
925.709	13807
925.816	13780
925.924	13811
926.031	13750
926.138	13681
926.245	13708
926.352	13628
926.459	13772
926.566	13757
926.673	13658
926.779	13632
926.886	13552
926.993	13460
927.099	13407
927.206	13327
927.312	13335
927.419	13392
927.525	13343
927.631	13392
927.737	13263
927.843	13206
927.95	13107
928.056	13175
928.162	13263
928.267	13187
928.373	13898
928.479	13278
928.585	13046
928.69	13004
928.796	13206
928.901	13034
929.007	12909
929.112	12947
929.218	12935
929.323	12901
929.428	12954
929.533	12970
929.638	12810
929.743	12859
929.848	12935
929.953	12787
930.058	12741
930.163	12623
930.267	12582
930.372	12650
930.477	12502
930.581	12745
930.685	12547
930.79	12395
930.894	12422
930.998	12433
931.103	12441
931.207	12224
931.311	12106
931.415	11984
931.519	11817
931.623	11760
