Data from test_V78500241_1721.txt Node
Date: Fri Mar 25 15:53:43 CST 2022
User: usil
Spectrometer: V785-0024
Trigger mode: 0
Integration Time (sec): 4.000000E-1
Scans to average: 1
Nonlinearity correction enabled: false
Boxcar width: 0
Storing dark spectrum: false
XAxis mode: Wavelengths
Number of Pixels in Spectrum: 1024
>>>>>Begin Spectral Data<<<<<
801.071	28341
801.214	28116
801.356	27979
801.499	27907
801.641	27953
801.783	27884
801.926	27835
802.068	27728
802.211	27979
802.353	27690
802.496	27538
802.638	27481
802.78	27469
802.923	27534
803.065	27378
803.208	27473
803.35	27507
803.492	27507
803.635	27736
803.777	27648
803.919	27583
804.061	28032
804.204	27660
804.346	27660
804.488	27675
804.63	27762
804.773	27568
804.915	27762
805.057	27975
805.199	27762
805.341	27869
805.483	27835
805.626	27724
805.768	27717
805.91	27785
806.052	27888
806.194	27770
806.336	28063
806.478	27884
806.62	27873
806.762	27983
806.904	28257
807.046	28242
807.188	28299
807.33	28310
807.472	28291
807.614	28367
807.756	28306
807.898	28200
808.04	28112
808.182	28078
808.324	28207
808.465	28143
808.607	28413
808.749	28531
808.891	28634
809.033	28668
809.174	28519
809.316	28527
809.458	28523
809.6	28546
809.741	28417
809.883	28561
810.025	28710
810.166	28942
810.308	28847
810.45	28774
810.591	28691
810.733	28497
810.875	28584
811.016	28527
811.158	28436
811.299	28565
811.441	28706
811.582	28744
811.724	28577
811.865	28656
812.007	28432
812.148	28508
812.29	28698
812.431	28607
812.573	28774
812.714	28976
812.855	28938
812.997	29117
813.138	29261
813.279	29239
813.421	28987
813.562	28987
813.703	28717
813.845	28660
813.986	28344
814.127	28341
814.268	28299
814.41	28371
814.551	28143
814.692	28310
814.833	28006
814.974	28032
815.115	28139
815.256	28097
815.397	28074
815.539	28181
815.68	27968
815.821	27979
815.962	27991
816.103	27994
816.244	27831
816.385	27778
816.526	27808
816.666	27549
816.807	27500
816.948	27523
817.089	27610
817.23	27564
817.371	27466
817.512	27416
817.653	27545
817.793	27416
817.934	27439
818.075	27504
818.216	27344
818.356	27412
818.497	27367
818.638	27279
818.778	27363
818.919	27188
819.06	27420
819.2	27401
819.341	27500
819.481	27454
819.622	27625
819.762	27717
819.903	27686
820.043	27751
820.184	27606
820.324	27717
820.465	27720
820.605	27523
820.746	27496
820.886	27511
821.026	27690
821.167	27644
821.307	27629
821.447	27530
821.588	27386
821.728	27340
821.868	27249
822.008	27017
822.149	26880
822.289	26902
822.429	26819
822.569	26754
822.709	26648
822.849	26598
822.99	26469
823.13	26465
823.27	26476
823.41	26320
823.55	26088
823.69	26381
823.83	26275
823.97	26256
824.11	26107
824.25	26176
824.389	26115
824.529	26187
824.669	26229
824.809	26256
824.949	26164
825.089	26138
825.228	26240
825.368	25883
825.508	25947
825.648	26092
825.787	25978
825.927	26096
826.067	25982
826.206	26100
826.346	26046
826.485	26176
826.625	25989
826.765	26157
826.904	26046
827.044	25807
827.183	25769
827.323	25677
827.462	25906
827.601	25723
827.741	25670
827.88	25746
828.02	25681
828.159	25719
828.298	25795
828.437	25822
828.577	25712
828.716	25841
828.855	25613
828.994	25403
829.134	25468
829.273	25525
829.412	25365
829.551	25297
829.69	25316
829.829	25510
829.968	25540
830.107	25411
830.246	25324
830.385	25285
830.524	25392
830.663	25137
830.802	25019
830.941	25076
831.08	24939
831.219	25088
831.357	25042
831.496	25126
831.635	24935
831.774	24939
831.913	25015
832.051	24852
832.19	24833
832.329	24776
832.467	24730
832.606	24525
832.744	24608
832.883	24681
833.022	24593
833.16	24631
833.299	24722
833.437	24783
833.576	24844
833.714	24684
833.852	24817
833.991	24856
834.129	24753
834.267	24947
834.406	24798
834.544	24840
834.682	24802
834.821	24768
834.959	24962
835.097	24692
835.235	24734
835.373	24738
835.511	24711
835.65	24760
835.788	24658
835.926	24509
836.064	24323
836.202	24441
836.34	24604
836.478	24677
836.615	24525
836.753	24627
836.891	24635
837.029	24589
837.167	24483
837.305	24418
837.443	24521
837.58	24353
837.718	24464
837.856	24475
837.993	24445
838.131	24311
838.269	24247
838.406	24422
838.544	24159
838.681	24076
838.819	24152
838.956	23851
839.094	23935
839.231	23965
839.369	24018
839.506	24315
839.643	24152
839.781	23866
839.918	23817
840.055	23783
840.193	23836
840.33	23878
840.467	23775
840.604	23904
840.742	24152
840.879	23592
841.016	23741
841.153	23710
841.29	23927
841.427	23764
841.564	23824
841.701	23703
841.838	23775
841.975	23718
842.112	23649
842.249	23638
842.385	23604
842.522	23714
842.659	23665
842.796	23471
842.933	23592
843.069	23531
843.206	23474
843.343	23604
843.479	23486
843.616	23608
843.752	23239
843.889	23223
844.025	23444
844.162	23273
844.298	23467
844.435	23337
844.571	23258
844.708	23345
844.844	23471
844.98	23543
845.117	23349
845.253	23261
845.389	23136
845.525	23273
845.661	23136
845.798	23086
845.934	23117
846.07	22976
846.206	23109
846.342	23216
846.478	23117
846.614	22831
846.75	22584
846.886	22908
847.022	22752
847.158	22778
847.294	22782
847.429	22961
847.565	22713
847.701	22919
847.837	22474
847.972	22531
848.108	22573
848.244	22550
848.379	22481
848.515	22424
848.65	22371
848.786	22409
848.921	22417
849.057	22500
849.192	22413
849.328	22257
849.463	22337
849.598	22375
849.734	22249
849.869	22272
850.004	22219
850.14	22185
850.275	22169
850.41	22086
850.545	22025
850.68	22135
850.815	22310
850.95	22112
851.085	22299
851.22	22386
851.355	22169
851.49	22162
851.625	22006
851.76	22109
851.895	22166
852.03	22109
852.165	22112
852.299	22131
852.434	22268
852.569	22051
852.703	22120
852.838	22181
852.973	22192
853.107	22185
853.242	22063
853.376	21968
853.511	21831
853.645	21945
853.78	22143
853.914	22021
854.048	21987
854.183	21907
854.317	21972
854.451	22177
854.585	21926
854.72	21979
854.854	22078
854.988	21922
855.122	22048
855.256	21873
855.39	21930
855.524	21987
855.658	21953
855.792	21956
855.926	22101
856.06	21964
856.194	22093
856.327	21899
856.461	21823
856.595	21983
856.729	21998
856.862	22120
856.996	22086
857.13	22051
857.263	22051
857.397	22093
857.53	22013
857.664	21968
857.797	21991
857.931	22090
858.064	22017
858.197	22169
858.331	21956
858.464	21869
858.597	21979
858.731	21895
858.864	21911
858.997	21850
859.13	21987
859.263	22082
859.396	21918
859.529	21884
859.662	21937
859.795	21956
859.928	21937
860.061	22059
860.194	21979
860.327	22063
860.46	21964
860.592	22101
860.725	22207
860.858	22116
860.99	21956
861.123	21804
861.256	21907
861.388	22090
861.521	22672
861.653	21869
861.786	21774
861.918	21892
862.05	21831
862.183	21774
862.315	21907
862.447	21968
862.58	21911
862.712	21747
862.844	21736
862.976	21728
863.108	21766
863.24	22051
863.372	21713
863.504	21648
863.636	21507
863.768	21667
863.9	21606
864.032	21561
864.164	21660
864.296	21720
864.428	21694
864.559	21667
864.691	21762
864.823	21781
864.954	21667
865.086	21694
865.217	21660
865.349	21538
865.48	21511
865.612	21610
865.743	21724
865.875	21660
866.006	21496
866.137	21625
866.269	21542
866.4	21591
866.531	21473
866.662	21420
866.793	21504
866.924	21481
867.055	21591
867.186	21462
867.317	21488
867.448	21302
867.579	21378
867.71	21405
867.841	21412
867.972	21599
868.103	21412
868.233	21519
868.364	21477
868.495	21545
868.625	21694
868.756	21930
868.886	21580
869.017	21648
869.147	21819
869.278	21781
869.408	21698
869.539	21724
869.669	21804
869.799	21701
869.929	21892
870.06	21911
870.19	21987
870.32	22048
870.45	22051
870.58	22109
870.71	22226
870.84	22139
870.97	22147
871.1	22101
871.23	22280
871.36	22390
871.489	22150
871.619	22303
871.749	22204
871.879	22440
872.008	22436
872.138	22451
872.267	22265
872.397	22093
872.526	22207
872.656	22135
872.785	22139
872.915	22497
873.044	22485
873.173	22329
873.303	22417
873.432	22519
873.561	22318
873.69	22443
873.819	22455
873.948	22436
874.077	22367
874.206	22234
874.335	22348
874.464	22459
874.593	22691
874.722	22550
874.851	22634
874.979	22405
875.108	22656
875.237	22523
875.365	22394
875.494	22653
875.623	22615
875.751	22592
875.88	22694
876.008	22706
876.136	22740
876.265	22843
876.393	23102
876.521	22938
876.65	22987
876.778	22923
876.906	22999
877.034	22831
877.162	22942
877.29	22908
877.418	23029
877.546	22976
877.674	22786
877.802	22850
877.93	22930
878.058	22793
878.185	22675
878.313	22911
878.441	22976
878.568	22649
878.696	22805
878.824	22904
878.951	23075
879.079	23052
879.206	23220
879.333	23071
879.461	22987
879.588	23052
879.715	23056
879.842	23200
879.97	23029
880.097	22736
880.224	22812
880.351	22752
880.478	22778
880.605	22717
880.732	22687
880.859	22923
880.986	22771
881.112	22763
881.239	22584
881.366	22512
881.493	22363
881.619	22371
881.746	22219
881.872	22360
881.999	22284
882.125	22303
882.252	22409
882.378	22367
882.505	22409
882.631	22063
882.757	21987
882.883	22078
883.01	22021
883.136	21941
883.262	22021
883.388	21884
883.514	21960
883.64	21960
883.766	21835
883.892	21781
884.018	21751
884.143	21899
884.269	22116
884.395	21728
884.52	21538
884.646	21762
884.772	21511
884.897	21606
885.023	21701
885.148	21728
885.274	21827
885.399	21762
885.524	21762
885.65	21682
885.775	21652
885.9	21599
886.025	21694
886.15	21694
886.275	21500
886.4	21431
886.525	21637
886.65	21492
886.775	21523
886.9	21641
887.025	21781
887.149	21530
887.274	21450
887.399	21466
887.523	21317
887.648	21329
887.773	21272
887.897	21477
888.021	21389
888.146	21355
888.27	21466
888.395	21538
888.519	21401
888.643	21473
888.767	21382
888.891	21294
889.015	21283
889.139	21340
889.263	21100
889.387	21336
889.511	21370
889.635	21306
889.759	21135
889.883	21138
890.006	21165
890.13	21218
890.254	20986
890.377	21039
890.501	20956
890.624	21051
890.748	20967
890.871	20861
890.995	20739
891.118	20663
891.241	20739
891.364	20720
891.488	20986
891.611	20849
891.734	20731
891.857	20849
891.98	20739
892.103	20754
892.226	20693
892.349	20617
892.471	20530
892.594	20640
892.717	20678
892.839	20712
892.962	20602
893.085	20705
893.207	20678
893.33	20568
893.452	20537
893.575	20583
893.697	20556
893.819	20701
893.941	20743
894.064	20868
894.186	20651
894.308	20564
894.43	20644
894.552	20838
894.674	20659
894.796	20522
894.918	20693
895.04	20621
895.161	20663
895.283	20693
895.405	20552
895.526	20594
895.648	20648
895.769	20621
895.891	20651
896.012	20678
896.134	20720
896.255	20705
896.376	20636
896.498	20682
896.619	20613
896.74	20636
896.861	20773
896.982	20960
897.103	20979
897.224	20872
897.345	20967
897.466	20781
897.587	20762
897.708	20933
897.828	20868
897.949	20731
898.07	20720
898.19	20754
898.311	20941
898.431	20849
898.552	20861
898.672	20876
898.792	20887
898.913	20857
899.033	20667
899.153	20564
899.273	20564
899.393	20636
899.513	20663
899.633	20674
899.753	20705
899.873	20511
899.993	20545
900.113	20689
900.232	20568
900.352	20476
900.472	20400
900.591	20339
900.711	20476
900.83	20309
900.95	20393
901.069	20556
901.189	20172
901.308	19967
901.427	20054
901.546	19989
901.665	19856
901.784	19852
901.904	19791
902.023	19784
902.141	19415
902.26	19483
902.379	19445
902.498	19491
902.617	19343
902.735	19422
902.854	19457
902.973	19343
903.091	19103
903.21	19084
903.328	19122
903.446	19088
903.565	18943
903.683	18882
903.801	18802
903.919	18848
904.038	18890
904.156	18631
904.274	18772
904.392	18601
904.51	18661
904.627	18635
904.745	18627
904.863	18711
904.981	18547
905.098	18285
905.216	18323
905.334	18384
905.451	18327
905.569	18342
905.686	18388
905.803	18369
905.921	18045
906.038	18216
906.155	18167
906.272	17969
906.389	18098
906.506	17897
906.623	17859
906.74	17904
906.857	17805
906.974	17779
907.091	17946
907.208	17965
907.324	17878
907.441	17737
907.557	17687
907.674	17486
907.79	17581
907.907	17493
908.023	17615
908.139	17573
908.256	17509
908.372	17455
908.488	17478
908.604	17239
908.72	17303
908.836	17235
908.952	17178
909.068	17356
909.184	17406
909.3	17311
909.415	17337
909.531	17315
909.647	17022
909.762	16957
909.878	16976
909.993	17029
910.108	16972
910.224	16809
910.339	16873
910.454	16854
910.57	16706
910.685	16698
910.8	17033
910.915	16858
911.03	16729
911.145	16717
911.259	16592
911.374	16550
911.489	16508
911.604	16352
911.718	16268
911.833	16333
911.947	16242
912.062	16097
912.176	16238
912.291	16344
912.405	16268
912.519	16580
912.633	16489
912.748	16360
912.862	16284
912.976	16090
913.09	15983
913.204	16120
913.318	16101
913.431	16249
913.545	16196
913.659	16109
913.772	16036
913.886	16006
914	15835
914.113	16032
914.226	16006
914.34	16013
914.453	15785
914.566	15972
914.68	15739
914.793	15739
914.906	15572
915.019	15515
915.132	15416
915.245	15526
915.358	15561
915.47	15545
915.583	15557
915.696	15526
915.809	15641
915.921	15622
916.034	15458
916.146	15496
916.259	15321
916.371	15428
916.483	15439
916.595	15450
916.708	15473
916.82	15329
916.932	15397
917.044	15241
917.156	15279
917.268	15138
917.38	15195
917.491	15207
917.603	15233
917.715	15268
917.826	15329
917.938	15047
918.049	14998
918.161	15112
918.272	15252
918.384	15214
918.495	15039
918.606	14971
918.717	14773
918.828	14990
918.939	14994
919.05	14754
919.161	14876
919.272	14689
919.383	14697
919.494	14895
919.604	15039
919.715	14918
919.826	14777
919.936	14868
920.047	14891
920.157	14925
920.267	15028
920.378	14941
920.488	14788
920.598	15036
920.708	15066
920.818	14994
920.928	14963
921.038	15055
921.148	15100
921.258	14842
921.368	14758
921.477	14602
921.587	14545
921.697	14495
921.806	14663
921.916	14488
922.025	14351
922.134	14240
922.244	14240
922.353	14252
922.462	14043
922.571	14058
922.68	13818
922.789	13906
922.898	13955
923.007	13776
923.116	13875
923.224	13849
923.333	13791
923.442	13685
923.55	13674
923.659	13811
923.767	13761
923.876	13658
923.984	13757
924.092	13590
924.201	13556
924.309	13563
924.417	13609
924.525	13540
924.633	13552
924.741	14290
924.849	13270
924.956	13373
925.064	13278
925.172	13179
925.279	13236
925.387	13274
925.494	13324
925.602	13392
925.709	13392
925.816	13183
925.924	13221
926.031	13343
926.138	13110
926.245	13373
926.352	13149
926.459	13259
926.566	13221
926.673	13171
926.779	13023
926.886	12947
926.993	12829
927.099	12848
927.206	12719
927.312	12798
927.419	12913
927.525	12715
927.631	12817
927.737	12738
927.843	12684
927.95	12502
928.056	12654
928.162	12616
928.267	12684
928.373	13354
928.479	12658
928.585	12517
928.69	12593
928.796	12627
928.901	12509
929.007	12357
929.112	12471
929.218	12426
929.323	12395
929.428	12334
929.533	12536
929.638	12277
929.743	12380
929.848	12342
929.953	12315
930.058	12121
930.163	12095
930.267	12026
930.372	12087
930.477	11973
930.581	12148
930.685	12049
930.79	11923
930.894	11935
930.998	11863
931.103	11901
931.207	11714
931.311	11532
931.415	11512
931.519	11284
931.623	11341
