Data from test_V78500241_3411.txt Node
Date: Fri Mar 25 16:05:25 CST 2022
User: usil
Spectrometer: V785-0024
Trigger mode: 0
Integration Time (sec): 4.000000E-1
Scans to average: 1
Nonlinearity correction enabled: false
Boxcar width: 0
Storing dark spectrum: false
XAxis mode: Wavelengths
Number of Pixels in Spectrum: 1024
>>>>>Begin Spectral Data<<<<<
801.071	28755
801.214	28683
801.356	28485
801.499	28363
801.641	28379
801.783	28314
801.926	28451
802.068	28318
802.211	28310
802.353	28181
802.496	28048
802.638	28105
802.78	27922
802.923	27945
803.065	27968
803.208	27873
803.35	27956
803.492	28150
803.635	28287
803.777	28234
803.919	28112
804.061	28531
804.204	28303
804.346	28185
804.488	28249
804.63	28318
804.773	28204
804.915	28291
805.057	28242
805.199	28398
805.341	28367
805.483	28474
805.626	28329
805.768	28356
805.91	28500
806.052	28459
806.194	28299
806.336	28645
806.478	28401
806.62	28459
806.762	28474
806.904	28793
807.046	28999
807.188	28930
807.33	28824
807.472	28927
807.614	29003
807.756	28904
807.898	28809
808.04	28744
808.182	28565
808.324	28824
808.465	28618
808.607	28809
808.749	29296
808.891	29174
809.033	29200
809.174	29113
809.316	29208
809.458	29037
809.6	29197
809.741	29273
809.883	29212
810.025	29455
810.166	29368
810.308	29543
810.45	29360
810.591	29433
810.733	29269
810.875	29128
811.016	29174
811.158	29143
811.299	29284
811.441	29280
811.582	29299
811.724	29330
811.865	29022
812.007	29231
812.148	29231
812.29	29250
812.431	29345
812.573	29474
812.714	29729
812.855	29729
812.997	29733
813.138	29961
813.279	29851
813.421	29756
813.562	29665
813.703	29467
813.845	29383
813.986	29079
814.127	28987
814.268	28911
814.41	28900
814.551	28805
814.692	28892
814.833	28809
814.974	28812
815.115	28877
815.256	28831
815.397	28767
815.539	28862
815.68	28752
815.821	28611
815.962	28740
816.103	28603
816.244	28504
816.385	28531
816.526	28493
816.666	28173
816.807	28097
816.948	28207
817.089	28265
817.23	28204
817.371	28185
817.512	28257
817.653	28147
817.793	28090
817.934	28150
818.075	28215
818.216	28173
818.356	28204
818.497	28036
818.638	27857
818.778	27956
818.919	28082
819.06	28109
819.2	28150
819.341	28109
819.481	28238
819.622	28413
819.762	28557
819.903	28432
820.043	28459
820.184	28371
820.324	28474
820.465	28466
820.605	28329
820.746	28223
820.886	28169
821.026	28337
821.167	28204
821.307	28367
821.447	28181
821.588	28070
821.728	28013
821.868	27774
822.008	27720
822.149	27641
822.289	27671
822.429	27473
822.569	27427
822.709	27344
822.849	27214
822.99	27252
823.13	27260
823.27	27001
823.41	27100
823.55	26872
823.69	27112
823.83	26937
823.97	26910
824.11	26754
824.25	26796
824.389	26815
824.529	26940
824.669	26792
824.809	26895
824.949	26830
825.089	26883
825.228	26891
825.368	26598
825.508	26743
825.648	26727
825.787	26842
825.927	26693
826.067	26712
826.206	26765
826.346	26781
826.485	26849
826.625	26815
826.765	26815
826.904	26880
827.044	26484
827.183	26530
827.323	26358
827.462	26526
827.601	26446
827.741	26381
827.88	26526
828.02	26396
828.159	26473
828.298	26480
828.437	26575
828.577	26476
828.716	26552
828.855	26377
828.994	26107
829.134	26183
829.273	26107
829.412	26191
829.551	26103
829.69	26058
829.829	26240
829.968	26263
830.107	26164
830.246	26191
830.385	26180
830.524	26031
830.663	25841
830.802	25932
830.941	25814
831.08	25841
831.219	25708
831.357	25723
831.496	26119
831.635	25788
831.774	25670
831.913	25578
832.051	25529
832.19	25548
832.329	25586
832.467	25559
832.606	25274
832.744	25209
832.883	25369
833.022	25320
833.16	25457
833.299	25571
833.437	25392
833.576	25491
833.714	25563
833.852	25594
833.991	25537
834.129	25594
834.267	25658
834.406	25586
834.544	25563
834.682	25502
834.821	25510
834.959	25852
835.097	25506
835.235	25529
835.373	25609
835.511	25483
835.65	25324
835.788	25453
835.926	25324
836.064	25091
836.202	25110
836.34	25270
836.478	25346
836.615	25312
836.753	25289
836.891	25411
837.029	25487
837.167	25365
837.305	25137
837.443	25236
837.58	25110
837.718	25152
837.856	25217
837.993	25084
838.131	25141
838.269	24992
838.406	25023
838.544	24894
838.681	24901
838.819	24901
838.956	24593
839.094	24669
839.231	24635
839.369	24821
839.506	25065
839.643	24806
839.781	24574
839.918	24525
840.055	24681
840.193	24532
840.33	24509
840.467	24551
840.604	24719
840.742	24821
840.879	24486
841.016	24494
841.153	24391
841.29	24559
841.427	24490
841.564	24570
841.701	24403
841.838	24327
841.975	24372
842.112	24407
842.249	24239
842.385	24243
842.522	24582
842.659	24262
842.796	24262
842.933	24311
843.069	24213
843.206	24186
843.343	24304
843.479	24346
843.616	24300
843.752	24095
843.889	24171
844.025	24292
844.162	24072
844.298	24095
844.435	24038
844.571	24030
844.708	24163
844.844	24182
844.98	24140
845.117	24178
845.253	23977
845.389	23950
845.525	23954
845.661	23920
845.798	23756
845.934	23817
846.07	23680
846.206	23889
846.342	23851
846.478	23805
846.614	23634
846.75	23490
846.886	23455
847.022	23684
847.158	23615
847.294	23505
847.429	23505
847.565	23463
847.701	23771
847.837	23223
847.972	23174
848.108	23261
848.244	23395
848.379	23060
848.515	23140
848.65	23018
848.786	23075
848.921	23159
849.057	23140
849.192	23128
849.328	23246
849.463	23124
849.598	23086
849.734	23022
849.869	22866
850.004	23014
850.14	22896
850.275	22805
850.41	22961
850.545	22847
850.68	22698
850.815	22911
850.95	22801
851.085	23041
851.22	22972
851.355	22881
851.49	22839
851.625	22995
851.76	22873
851.895	22831
852.03	22831
852.165	22771
852.299	22946
852.434	22831
852.569	22835
852.703	22911
852.838	22885
852.973	22919
853.107	22949
853.242	22847
853.376	22763
853.511	22546
853.645	22637
853.78	22831
853.914	22679
854.048	22816
854.183	22611
854.317	22721
854.451	22949
854.585	22767
854.72	22710
854.854	22698
854.988	22713
855.122	22668
855.256	22569
855.39	22744
855.524	22755
855.658	22713
855.792	22668
855.926	22771
856.06	22691
856.194	22698
856.327	22729
856.461	22755
856.595	22664
856.729	22649
856.862	22809
856.996	22755
857.13	22691
857.263	22736
857.397	22805
857.53	22668
857.664	22816
857.797	22725
857.931	22839
858.064	22713
858.197	22630
858.331	22713
858.464	22698
858.597	22637
858.731	22729
858.864	22656
858.997	22588
859.13	22675
859.263	22660
859.396	22748
859.529	22500
859.662	22752
859.795	22527
859.928	22729
860.061	22847
860.194	22927
860.327	22721
860.46	22675
860.592	22767
860.725	22873
860.858	22786
860.99	22653
861.123	22599
861.256	22717
861.388	22622
861.521	23433
861.653	22443
861.786	22565
861.918	22440
862.05	22538
862.183	22622
862.315	22607
862.447	22668
862.58	22588
862.712	22348
862.844	22375
862.976	22443
863.108	22417
863.24	22771
863.372	22333
863.504	22470
863.636	22519
863.768	22333
863.9	22390
864.032	22276
864.164	22253
864.296	22352
864.428	22519
864.559	22557
864.691	22440
864.823	22497
864.954	22306
865.086	22352
865.217	22314
865.349	22131
865.48	22246
865.612	22188
865.743	22432
865.875	22322
866.006	22162
866.137	22310
866.269	22303
866.4	22306
866.531	22219
866.662	22257
866.793	22196
866.924	22211
867.055	22287
867.186	22215
867.317	22318
867.448	22036
867.579	22177
867.71	22131
867.841	22112
867.972	22226
868.103	22154
868.233	22173
868.364	22181
868.495	22246
868.625	22348
868.756	22554
868.886	22344
869.017	22459
869.147	22531
869.278	22561
869.408	22344
869.539	22516
869.669	22375
869.799	22443
869.929	22504
870.06	22561
870.19	22828
870.32	22653
870.45	22771
870.58	22797
870.71	22972
870.84	23014
870.97	22824
871.1	22801
871.23	22915
871.36	22991
871.489	23052
871.619	22987
871.749	23109
871.879	23231
872.008	23090
872.138	23048
872.267	22930
872.397	22877
872.526	22915
872.656	22923
872.785	22816
872.915	23029
873.044	23220
873.173	23052
873.303	22953
873.432	23151
873.561	23204
873.69	23071
873.819	23128
873.948	23113
874.077	23071
874.206	22923
874.335	23113
874.464	23090
874.593	23311
874.722	23185
874.851	23395
874.979	23254
875.108	23303
875.237	23269
875.365	23094
875.494	23326
875.623	23265
875.751	23174
875.88	23398
876.008	23315
876.136	23516
876.265	23653
876.393	23809
876.521	23703
876.65	23687
876.778	23539
876.906	23535
877.034	23649
877.162	23551
877.29	23676
877.418	23535
877.546	23695
877.674	23634
877.802	23707
877.93	23619
878.058	23497
878.185	23509
878.313	23505
878.441	23558
878.568	23425
878.696	23497
878.824	23592
878.951	23729
879.079	23874
879.206	23866
879.333	23767
879.461	23562
879.588	23695
879.715	23722
879.842	23935
879.97	23722
880.097	23387
880.224	23288
880.351	23467
880.478	23482
880.605	23318
880.732	23334
880.859	23703
880.986	23478
881.112	23448
881.239	23178
881.366	23041
881.493	22946
881.619	23170
881.746	22957
881.872	22957
881.999	22968
882.125	22949
882.252	22949
882.378	23014
882.505	23094
882.631	22793
882.757	22694
882.883	22858
883.01	22622
883.136	22611
883.262	22561
883.388	22573
883.514	22649
883.64	22672
883.766	22603
883.892	22447
884.018	22341
884.143	22531
884.269	22691
884.395	22341
884.52	22287
884.646	22295
884.772	22188
884.897	22116
885.023	22287
885.148	22402
885.274	22462
885.399	22417
885.524	22291
885.65	22272
885.775	22291
885.9	22341
886.025	22379
886.15	22162
886.275	22268
886.4	22158
886.525	22295
886.65	22257
886.775	22291
886.9	22314
887.025	22386
887.149	22249
887.274	21968
887.399	22082
887.523	22188
887.648	22036
887.773	21865
887.897	22139
888.021	22048
888.146	21979
888.27	22044
888.395	22105
888.519	22082
888.643	22086
888.767	22017
888.891	21949
889.015	21736
889.139	21884
889.263	21743
889.387	21838
889.511	22036
889.635	22002
889.759	21778
889.883	21804
890.006	21987
890.13	21975
890.254	21816
890.377	21797
890.501	21610
890.624	21519
890.748	21572
890.871	21359
890.995	21469
891.118	21310
891.241	21378
891.364	21401
891.488	21469
891.611	21412
891.734	21279
891.857	21386
891.98	21507
892.103	21492
892.226	21317
892.349	21275
892.471	21150
892.594	21298
892.717	21401
892.839	21218
892.962	21287
893.085	21264
893.207	21264
893.33	21009
893.452	21127
893.575	21310
893.697	21249
893.819	21351
893.941	21454
894.064	21428
894.186	21176
894.308	21268
894.43	21233
894.552	21370
894.674	21302
894.796	21138
894.918	21199
895.04	21123
895.161	21291
895.283	21306
895.405	21146
895.526	21268
895.648	21241
895.769	21275
895.891	21291
896.012	21317
896.134	21173
896.255	21176
896.376	21275
896.498	21306
896.619	21233
896.74	21264
896.861	21298
896.982	21660
897.103	21603
897.224	21511
897.345	21424
897.466	21386
897.587	21462
897.708	21477
897.828	21481
897.949	21329
898.07	21310
898.19	21344
898.311	21519
898.431	21401
898.552	21363
898.672	21477
898.792	21412
898.913	21405
899.033	21302
899.153	21218
899.273	21096
899.393	21135
899.513	21093
899.633	21180
899.753	21154
899.873	21142
899.993	21138
900.113	21165
900.232	21127
900.352	20994
900.472	20891
900.591	20906
900.711	20891
900.83	20887
900.95	21066
901.069	20990
901.189	20792
901.308	20667
901.427	20400
901.546	20518
901.665	20594
901.784	20389
901.904	20377
902.023	20377
902.141	20008
902.26	20054
902.379	19997
902.498	20073
902.617	19871
902.735	19986
902.854	19974
902.973	19887
903.091	19594
903.21	19746
903.328	19639
903.446	19571
903.565	19445
903.683	19460
903.801	19381
903.919	19312
904.038	19468
904.156	19160
904.274	19255
904.392	19175
904.51	19228
904.627	19251
904.745	19282
904.863	19251
904.981	19019
905.098	18829
905.216	18897
905.334	19004
905.451	18882
905.569	18760
905.686	18837
905.803	18817
905.921	18608
906.038	18741
906.155	18810
906.272	18498
906.389	18631
906.506	18426
906.623	18433
906.74	18361
906.857	18216
906.974	18270
907.091	18445
907.208	18464
907.324	18327
907.441	18243
907.557	18106
907.674	18140
907.79	18034
907.907	18110
908.023	18209
908.139	18072
908.256	18060
908.372	18045
908.488	18019
908.604	17954
908.72	17840
908.836	17733
908.952	17775
909.068	17737
909.184	17897
909.3	17805
909.415	17821
909.531	17745
909.647	17528
909.762	17551
909.878	17516
909.993	17528
910.108	17444
910.224	17406
910.339	17471
910.454	17341
910.57	17284
910.685	17235
910.8	17417
910.915	17364
911.03	17227
911.145	17056
911.259	17025
911.374	17041
911.489	17033
911.604	17010
911.718	16820
911.833	16869
911.947	16710
912.062	16626
912.176	16881
912.291	16767
912.405	16801
912.519	16972
912.633	16927
912.748	16801
912.862	16664
912.976	16588
913.09	16653
913.204	16588
913.318	16645
913.431	16713
913.545	16618
913.659	16664
913.772	16603
913.886	16394
914	16424
914.113	16489
914.226	16489
914.34	16424
914.453	16295
914.566	16493
914.68	16398
914.793	16261
914.906	16147
915.019	16059
915.132	15968
915.245	16002
915.358	16040
915.47	16032
915.583	16013
915.696	16029
915.809	16086
915.921	16029
916.034	15922
916.146	15895
916.259	15915
916.371	15915
916.483	15911
916.595	15800
916.708	15827
916.82	15846
916.932	15778
917.044	15755
917.156	15663
917.268	15648
917.38	15656
917.491	15606
917.603	15679
917.715	15587
917.826	15591
917.938	15504
918.049	15367
918.161	15606
918.272	15675
918.384	15625
918.495	15564
918.606	15401
918.717	15348
918.828	15466
918.939	15397
919.05	15268
919.161	15351
919.272	15043
919.383	15142
919.494	15389
919.604	15610
919.715	15428
919.826	15135
919.936	15325
920.047	15431
920.157	15222
920.267	15450
920.378	15329
920.488	15268
920.598	15424
920.708	15530
920.818	15439
920.928	15454
921.038	15564
921.148	15466
921.258	15310
921.368	15184
921.477	15028
921.587	15028
921.697	14891
921.806	15020
921.916	14830
922.025	14708
922.134	14674
922.244	14743
922.353	14644
922.462	14522
922.571	14389
922.68	14389
922.789	14339
922.898	14355
923.007	14305
923.116	14248
923.224	14290
923.333	14244
923.442	14142
923.55	14111
923.659	14168
923.767	14130
923.876	14126
923.984	14077
924.092	14084
924.201	14020
924.309	14046
924.417	14065
924.525	13978
924.633	13849
924.741	14838
924.849	13681
924.956	13750
925.064	13761
925.172	13620
925.279	13693
925.387	13704
925.494	13563
925.602	13765
925.709	13666
925.816	13616
925.924	13502
926.031	13693
926.138	13597
926.245	13655
926.352	13544
926.459	13616
926.566	13655
926.673	13502
926.779	13343
926.886	13430
926.993	13168
927.099	13247
927.206	13072
927.312	13110
927.419	13263
927.525	13183
927.631	13251
927.737	13126
927.843	13050
927.95	12977
928.056	13034
928.162	13107
928.267	13122
928.373	13582
928.479	13156
928.585	12719
928.69	13000
928.796	12985
928.901	12859
929.007	12757
929.112	12852
929.218	12833
929.323	12722
929.428	12662
929.533	12760
929.638	12627
929.743	12703
929.848	12639
929.953	12604
930.058	12578
930.163	12445
930.267	12460
930.372	12521
930.477	12281
930.581	12582
930.685	12346
930.79	12270
930.894	12319
930.998	12239
931.103	12319
931.207	12034
931.311	11958
931.415	11794
931.519	11619
931.623	11551
