Data from test_V78500241_646.txt Node
Date: Fri Mar 25 15:46:16 CST 2022
User: usil
Spectrometer: V785-0024
Trigger mode: 0
Integration Time (sec): 4.000000E-1
Scans to average: 1
Nonlinearity correction enabled: false
Boxcar width: 0
Storing dark spectrum: false
XAxis mode: Wavelengths
Number of Pixels in Spectrum: 1024
>>>>>Begin Spectral Data<<<<<
801.071	27583
801.214	27610
801.356	27287
801.499	27256
801.641	27226
801.783	27127
801.926	27226
802.068	27081
802.211	27055
802.353	26883
802.496	26857
802.638	26773
802.78	26815
802.923	26811
803.065	26823
803.208	26769
803.35	26823
803.492	26815
803.635	26998
803.777	26868
803.919	26910
804.061	27298
804.204	26967
804.346	26830
804.488	26849
804.63	26967
804.773	26891
804.915	26998
805.057	27131
805.199	26944
805.341	27207
805.483	27020
805.626	27100
805.768	26998
805.91	27256
806.052	27104
806.194	26998
806.336	27275
806.478	27055
806.62	27066
806.762	27180
806.904	27473
807.046	27671
807.188	27568
807.33	27507
807.472	27568
807.614	27439
807.756	27386
807.898	27416
808.04	27264
808.182	27291
808.324	27294
808.465	27363
808.607	27580
808.749	27736
808.891	28017
809.033	27914
809.174	27899
809.316	27797
809.458	27797
809.6	27717
809.741	27857
809.883	27937
810.025	27983
810.166	27968
810.308	27979
810.45	27895
810.591	27865
810.733	27629
810.875	27671
811.016	27701
811.158	27644
811.299	27743
811.441	27972
811.582	27918
811.724	27667
811.865	27633
812.007	27462
812.148	27701
812.29	27800
812.431	27926
812.573	28128
812.714	28261
812.855	28196
812.997	28291
813.138	28443
813.279	28337
813.421	28215
813.562	28101
813.703	28044
813.845	27937
813.986	27705
814.127	27500
814.268	27561
814.41	27462
814.551	27370
814.692	27348
814.833	27294
814.974	27370
815.115	27344
815.256	27161
815.397	27348
815.539	27249
815.68	27275
815.821	27001
815.962	27260
816.103	27127
816.244	27005
816.385	26998
816.526	26883
816.666	26731
816.807	26636
816.948	26731
817.089	26754
817.23	26659
817.371	26609
817.512	26651
817.653	26674
817.793	26629
817.934	26636
818.075	26701
818.216	26670
818.356	26514
818.497	26568
818.638	26328
818.778	26240
818.919	26518
819.06	26442
819.2	26381
819.341	26629
819.481	26651
819.622	26678
819.762	26940
819.903	26944
820.043	26819
820.184	26746
820.324	26716
820.465	26720
820.605	26899
820.746	26781
820.886	26556
821.026	26682
821.167	26720
821.307	26765
821.447	26587
821.588	26575
821.728	26419
821.868	26252
822.008	26130
822.149	26103
822.289	26191
822.429	25830
822.569	25677
822.709	25822
822.849	25502
822.99	25734
823.13	25658
823.27	25655
823.41	25419
823.55	25422
823.69	25422
823.83	25552
823.97	25331
824.11	25274
824.25	25187
824.389	25217
824.529	25194
824.669	25259
824.809	25407
824.949	25343
825.089	25365
825.228	25282
825.368	25076
825.508	25206
825.648	25194
825.787	25190
825.927	25179
826.067	25046
826.206	25179
826.346	25091
826.485	25148
826.625	25080
826.765	25099
826.904	25194
827.044	24928
827.183	24791
827.323	24741
827.462	24977
827.601	24886
827.741	24787
827.88	24825
828.02	24677
828.159	24734
828.298	24795
828.437	24867
828.577	24688
828.716	24859
828.855	24757
828.994	24593
829.134	24532
829.273	24475
829.412	24483
829.551	24418
829.69	24475
829.829	24563
829.968	24574
830.107	24616
830.246	24604
830.385	24456
830.524	24490
830.663	24429
830.802	24247
830.941	24091
831.08	24121
831.219	24289
831.357	24167
831.496	24190
831.635	24171
831.774	24121
831.913	23935
832.051	23901
832.19	24015
832.329	23988
832.467	23802
832.606	23748
832.744	23824
832.883	23710
833.022	23729
833.16	23748
833.299	23893
833.437	23942
833.576	23878
833.714	23767
833.852	23984
833.991	24057
834.129	23870
834.267	23965
834.406	23870
834.544	23767
834.682	23946
834.821	23847
834.959	24110
835.097	23718
835.235	23874
835.373	23836
835.511	23870
835.65	23741
835.788	23741
835.926	23516
836.064	23486
836.202	23490
836.34	23684
836.478	23790
836.615	23634
836.753	23798
836.891	23737
837.029	23771
837.167	23668
837.305	23649
837.443	23531
837.58	23596
837.718	23535
837.856	23680
837.993	23425
838.131	23444
838.269	23360
838.406	23459
838.544	23341
838.681	23223
838.819	23086
838.956	23052
839.094	22987
839.231	22987
839.369	23239
839.506	23398
839.643	23261
839.781	22976
839.918	22965
840.055	23029
840.193	22987
840.33	22984
840.467	22946
840.604	23029
840.742	23273
840.879	22885
841.016	22850
841.153	22968
841.29	23083
841.427	22839
841.564	22991
841.701	22961
841.838	22831
841.975	22797
842.112	22816
842.249	22660
842.385	22698
842.522	22934
842.659	22820
842.796	22683
842.933	22679
843.069	22535
843.206	22618
843.343	22694
843.479	22611
843.616	22755
843.752	22531
843.889	22265
844.025	22557
844.162	22417
844.298	22489
844.435	22394
844.571	22538
844.708	22497
844.844	22550
844.98	22561
845.117	22542
845.253	22440
845.389	22379
845.525	22322
845.661	22337
845.798	22090
845.934	22226
846.07	22276
846.206	22185
846.342	22386
846.478	22261
846.614	22051
846.75	21819
846.886	21838
847.022	22021
847.158	21922
847.294	21949
847.429	22006
847.565	21926
847.701	22128
847.837	21549
847.972	21633
848.108	21778
848.244	21869
848.379	21538
848.515	21545
848.65	21481
848.786	21523
848.921	21610
849.057	21698
849.192	21641
849.328	21595
849.463	21561
849.598	21397
849.734	21428
849.869	21351
850.004	21370
850.14	21412
850.275	21291
850.41	21138
850.545	21226
850.68	21192
850.815	21325
850.95	21344
851.085	21515
851.22	21424
851.355	21291
851.49	21367
851.625	21302
851.76	21226
851.895	21218
852.03	21096
852.165	21378
852.299	21222
852.434	21256
852.569	21268
852.703	21279
852.838	21317
852.973	21363
853.107	21348
853.242	21203
853.376	21176
853.511	20975
853.645	21062
853.78	21176
853.914	21081
854.048	21161
854.183	21020
854.317	21036
854.451	21313
854.585	21005
854.72	21005
854.854	21173
854.988	21036
855.122	21043
855.256	21017
855.39	21039
855.524	21184
855.658	21203
855.792	21096
855.926	21119
856.06	21001
856.194	21112
856.327	21070
856.461	21112
856.595	21028
856.729	21138
856.862	21199
856.996	21169
857.13	21138
857.263	21291
857.397	21287
857.53	21146
857.664	21017
857.797	21260
857.931	21176
858.064	21032
858.197	21359
858.331	21066
858.464	20998
858.597	20971
858.731	21055
858.864	21104
858.997	21119
859.13	21154
859.263	21116
859.396	21123
859.529	21051
859.662	21085
859.795	21077
859.928	21173
860.061	21287
860.194	21306
860.327	21199
860.46	21165
860.592	21199
860.725	21291
860.858	21150
860.99	21077
861.123	20952
861.256	21043
861.388	21089
861.521	21759
861.653	21013
861.786	20891
861.918	21020
862.05	21032
862.183	20979
862.315	21161
862.447	20990
862.58	21058
862.712	20921
862.844	20777
862.976	20842
863.108	20857
863.24	21211
863.372	20720
863.504	20910
863.636	20781
863.768	20948
863.9	20823
864.032	20705
864.164	20762
864.296	20773
864.428	21024
864.559	20975
864.691	21039
864.823	20838
864.954	20800
865.086	20697
865.217	20762
865.349	20545
865.48	20701
865.612	20693
865.743	20750
865.875	20777
866.006	20708
866.137	20792
866.269	20754
866.4	20701
866.531	20644
866.662	20511
866.793	20587
866.924	20636
867.055	20667
867.186	20648
867.317	20617
867.448	20545
867.579	20575
867.71	20522
867.841	20495
867.972	20712
868.103	20598
868.233	20670
868.364	20689
868.495	20750
868.625	20967
868.756	21043
868.886	20811
869.017	20883
869.147	20918
869.278	21077
869.408	20925
869.539	20864
869.669	20982
869.799	20929
869.929	20960
870.06	21127
870.19	21154
870.32	21146
870.45	21287
870.58	21195
870.71	21458
870.84	21507
870.97	21203
871.1	21310
871.23	21485
871.36	21534
871.489	21389
871.619	21382
871.749	21386
871.879	21526
872.008	21599
872.138	21405
872.267	21447
872.397	21523
872.526	21230
872.656	21279
872.785	21226
872.915	21538
873.044	21545
873.173	21458
873.303	21610
873.432	21534
873.561	21663
873.69	21549
873.819	21545
873.948	21511
874.077	21553
874.206	21424
874.335	21511
874.464	21595
874.593	21717
874.722	21686
874.851	21766
874.979	21739
875.108	21827
875.237	21751
875.365	21701
875.494	21747
875.623	21785
875.751	21732
875.88	21823
876.008	21895
876.136	21953
876.265	22086
876.393	22249
876.521	22196
876.65	22120
876.778	22215
876.906	22078
877.034	22055
877.162	22112
877.29	21987
877.418	22120
877.546	22124
877.674	22158
877.802	22029
877.93	22059
878.058	22063
878.185	21994
878.313	22017
878.441	21998
878.568	21941
878.696	22074
878.824	22162
878.951	22147
879.079	22204
879.206	22481
879.333	22204
879.461	22067
879.588	22051
879.715	22139
879.842	22386
879.97	22124
880.097	21880
880.224	21987
880.351	21911
880.478	21880
880.605	21869
880.732	21934
880.859	22109
880.986	21941
881.112	21941
881.239	21865
881.366	21557
881.493	21587
881.619	21496
881.746	21549
881.872	21374
881.999	21435
882.125	21485
882.252	21477
882.378	21542
882.505	21561
882.631	21382
882.757	21207
882.883	21283
883.01	21279
883.136	21112
883.262	21135
883.388	21024
883.514	21184
883.64	21165
883.766	21184
883.892	20960
884.018	20975
884.143	21154
884.269	21260
884.395	20845
884.52	20788
884.646	20925
884.772	20861
884.897	20655
885.023	20823
885.148	20918
885.274	20944
885.399	20921
885.524	20701
885.65	20750
885.775	20868
885.9	20777
886.025	20941
886.15	20849
886.275	20724
886.4	20697
886.525	20868
886.65	20788
886.775	20697
886.9	20918
887.025	20971
887.149	20819
887.274	20697
887.399	20602
887.523	20659
887.648	20606
887.773	20434
887.897	20648
888.021	20659
888.146	20579
888.27	20754
888.395	20644
888.519	20648
888.643	20667
888.767	20697
888.891	20480
889.015	20408
889.139	20431
889.263	20400
889.387	20431
889.511	20545
889.635	20499
889.759	20366
889.883	20419
890.006	20317
890.13	20431
890.254	20381
890.377	20358
890.501	20096
890.624	20233
890.748	20157
890.871	20233
890.995	19993
891.118	19955
891.241	19986
891.364	20001
891.488	20016
891.611	19932
891.734	20062
891.857	20278
891.98	19940
892.103	19978
892.226	20062
892.349	19963
892.471	19746
892.594	20001
892.717	19978
892.839	19951
892.962	19967
893.085	20050
893.207	19932
893.33	19670
893.452	19742
893.575	19936
893.697	19845
893.819	20119
893.941	20039
894.064	20020
894.186	19807
894.308	19849
894.43	19906
894.552	20012
894.674	20027
894.796	19761
894.918	19921
895.04	19890
895.161	19894
895.283	19830
895.405	19837
895.526	19909
895.648	19849
895.769	19879
895.891	19887
896.012	19959
896.134	19951
896.255	19856
896.376	19807
896.498	19860
896.619	20016
896.74	19974
896.861	19879
896.982	20210
897.103	20370
897.224	20244
897.345	20142
897.466	19986
897.587	20039
897.708	20195
897.828	20195
897.949	20100
898.07	20058
898.19	20096
898.311	20244
898.431	19955
898.552	20130
898.672	20180
898.792	20183
898.913	20092
899.033	20039
899.153	19906
899.273	19727
899.393	19875
899.513	19875
899.633	19913
899.753	19925
899.873	19772
899.993	19898
900.113	19681
900.232	19856
900.352	19761
900.472	19670
900.591	19643
900.711	19670
900.83	19689
900.95	19651
901.069	19704
901.189	19529
901.308	19232
901.427	19263
901.546	19289
901.665	19152
901.784	19274
901.904	19126
902.023	19027
902.141	18859
902.26	18859
902.379	18791
902.498	18741
902.617	18673
902.735	18795
902.854	18734
902.973	18650
903.091	18467
903.21	18506
903.328	18483
903.446	18460
903.565	18205
903.683	18251
903.801	18148
903.919	18220
904.038	18220
904.156	18087
904.274	18041
904.392	17939
904.51	18011
904.627	17923
904.745	17954
904.863	18053
904.981	17904
905.098	17707
905.216	17767
905.334	17760
905.451	17680
905.569	17745
905.686	17733
905.803	17646
905.921	17467
906.038	17459
906.155	17493
906.272	17231
906.389	17425
906.506	17273
906.623	17143
906.74	17299
906.857	17124
906.974	17124
907.091	17246
907.208	17307
907.324	17254
907.441	17151
907.557	17018
907.674	16938
907.79	16839
907.907	16930
908.023	17003
908.139	16847
908.256	16869
908.372	16812
908.488	16763
908.604	16725
908.72	16645
908.836	16649
908.952	16725
909.068	16725
909.184	16694
909.3	16577
909.415	16683
909.531	16687
909.647	16344
909.762	16417
909.878	16268
909.993	16348
910.108	16318
910.224	16299
910.339	16303
910.454	16204
910.57	16230
910.685	16055
910.8	16443
910.915	16337
911.03	16143
911.145	16025
911.259	15937
911.374	15975
911.489	15774
911.604	15838
911.718	15698
911.833	15717
911.947	15599
912.062	15580
912.176	15785
912.291	15812
912.405	15705
912.519	15915
912.633	15816
912.748	15781
912.862	15667
912.976	15561
913.09	15397
913.204	15488
913.318	15424
913.431	15492
913.545	15717
913.659	15606
913.772	15420
913.886	15294
914	15313
914.113	15351
914.226	15412
914.34	15416
914.453	15268
914.566	15405
914.68	15173
914.793	15260
914.906	14910
915.019	14990
915.132	14876
915.245	14998
915.358	14952
915.47	15047
915.583	14967
915.696	15001
915.809	15051
915.921	15089
916.034	14876
916.146	14849
916.259	14849
916.371	14876
916.483	14883
916.595	14735
916.708	14857
916.82	14762
916.932	14750
917.044	14708
917.156	14716
917.268	14526
917.38	14682
917.491	14644
917.603	14590
917.715	14746
917.826	14606
917.938	14526
918.049	14488
918.161	14590
918.272	14807
918.384	14796
918.495	14663
918.606	14450
918.717	14351
918.828	14393
918.939	14423
919.05	14301
919.161	14450
919.272	14161
919.383	14278
919.494	14393
919.604	14674
919.715	14415
919.826	14313
919.936	14377
920.047	14400
920.157	14419
920.267	14571
920.378	14415
920.488	14423
920.598	14514
920.708	14655
920.818	14537
920.928	14545
921.038	14590
921.148	14564
921.258	14355
921.368	14275
921.477	14119
921.587	14088
921.697	14027
921.806	14119
921.916	13944
922.025	13765
922.134	13772
922.244	13681
922.353	13791
922.462	13670
922.571	13624
922.68	13324
922.789	13472
922.898	13400
923.007	13400
923.116	13438
923.224	13388
923.333	13301
923.442	13228
923.55	13232
923.659	13198
923.767	13354
923.876	13171
923.984	13301
924.092	13099
924.201	13171
924.309	13171
924.417	13171
924.525	13065
924.633	13053
924.741	13807
924.849	12863
924.956	13000
925.064	12894
925.172	12757
925.279	12791
925.387	12856
925.494	12772
925.602	13000
925.709	12897
925.816	12738
925.924	12711
926.031	12905
926.138	12749
926.245	12772
926.352	12745
926.459	12814
926.566	12776
926.673	12665
926.779	12608
926.886	12601
926.993	12410
927.099	12433
927.206	12338
927.312	12369
927.419	12448
927.525	12426
927.631	12361
927.737	12270
927.843	12273
927.95	12201
928.056	12277
928.162	12323
928.267	12220
928.373	12951
928.479	12342
928.585	12079
928.69	12201
928.796	12213
928.901	12091
929.007	11969
929.112	12064
929.218	12072
929.323	11950
929.428	11992
929.533	12083
929.638	11912
929.743	11889
929.848	12022
929.953	11878
930.058	11783
930.163	11604
930.267	11710
930.372	11745
930.477	11604
930.581	11927
930.685	11585
930.79	11486
930.894	11509
930.998	11570
931.103	11581
931.207	11307
931.311	11197
931.415	11151
931.519	10984
931.623	10942
