Data from test_V78500241_2788.txt Node
Date: Fri Mar 25 16:01:06 CST 2022
User: usil
Spectrometer: V785-0024
Trigger mode: 0
Integration Time (sec): 4.000000E-1
Scans to average: 1
Nonlinearity correction enabled: false
Boxcar width: 0
Storing dark spectrum: false
XAxis mode: Wavelengths
Number of Pixels in Spectrum: 1024
>>>>>Begin Spectral Data<<<<<
801.071	29204
801.214	29178
801.356	28938
801.499	28847
801.641	28725
801.783	28687
801.926	28835
802.068	28733
802.211	28660
802.353	28881
802.496	28588
802.638	28550
802.78	28481
802.923	28436
803.065	28451
803.208	28432
803.35	28535
803.492	28577
803.635	28584
803.777	28664
803.919	28687
804.061	29037
804.204	28736
804.346	28672
804.488	28683
804.63	28809
804.773	28641
804.915	28767
805.057	28892
805.199	28767
805.341	28885
805.483	28824
805.626	28809
805.768	28831
805.91	28923
806.052	28896
806.194	28915
806.336	29037
806.478	28778
806.62	28881
806.762	29132
806.904	29200
807.046	29471
807.188	29391
807.33	29341
807.472	29421
807.614	29414
807.756	29341
807.898	29242
808.04	29147
808.182	29162
808.324	29102
808.465	29315
808.607	29642
808.749	29691
808.891	29756
809.033	29764
809.174	29680
809.316	29554
809.458	29596
809.6	29573
809.741	29718
809.883	29684
810.025	29859
810.166	29790
810.308	29737
810.45	29874
810.591	29824
810.733	29718
810.875	29733
811.016	29665
811.158	29585
811.299	29646
811.441	29714
811.582	29805
811.724	29714
811.865	29718
812.007	29573
812.148	29699
812.29	29756
812.431	29714
812.573	29885
812.714	30106
812.855	30133
812.997	30327
813.138	30384
813.279	30239
813.421	30182
813.562	30095
813.703	29992
813.845	29965
813.986	29585
814.127	29577
814.268	29463
814.41	29551
814.551	29440
814.692	29497
814.833	29250
814.974	29178
815.115	29459
815.256	29292
815.397	29299
815.539	29299
815.68	29086
815.821	29094
815.962	29143
816.103	29242
816.244	29174
816.385	29037
816.526	28908
816.666	28858
816.807	28641
816.948	28774
817.089	28736
817.23	28736
817.371	28717
817.512	28592
817.653	28721
817.793	28649
817.934	28729
818.075	28755
818.216	28736
818.356	28455
818.497	28573
818.638	28554
818.778	28451
818.919	28451
819.06	28512
819.2	28580
819.341	28767
819.481	28812
819.622	28744
819.762	28987
819.903	29025
820.043	29067
820.184	28786
820.324	28847
820.465	28946
820.605	28930
820.746	28839
820.886	28847
821.026	28809
821.167	28763
821.307	28873
821.447	28869
821.588	28744
821.728	28405
821.868	28291
822.008	28135
822.149	28207
822.289	28181
822.429	27964
822.569	27918
822.709	27861
822.849	27660
822.99	27667
823.13	27778
823.27	27625
823.41	27469
823.55	27408
823.69	27561
823.83	27496
823.97	27485
824.11	27370
824.25	27325
824.389	27359
824.529	27504
824.669	27272
824.809	27389
824.949	27504
825.089	27382
825.228	27515
825.368	27161
825.508	27268
825.648	27272
825.787	27336
825.927	27386
826.067	27412
826.206	27230
826.346	27340
826.485	27226
826.625	27222
826.765	27359
826.904	27378
827.044	27123
827.183	27028
827.323	26990
827.462	27036
827.601	26960
827.741	27020
827.88	26933
828.02	26849
828.159	26929
828.298	27032
828.437	26899
828.577	26971
828.716	26960
828.855	26986
828.994	26678
829.134	26537
829.273	26720
829.412	26682
829.551	26537
829.69	26476
829.829	26769
829.968	26811
830.107	26712
830.246	26636
830.385	26636
830.524	26579
830.663	26450
830.802	26377
830.941	26244
831.08	26164
831.219	26366
831.357	26404
831.496	26469
831.635	26278
831.774	26275
831.913	25989
832.051	26012
832.19	26145
832.329	26126
832.467	25795
832.606	25909
832.744	25913
832.883	25917
833.022	25849
833.16	26050
833.299	25951
833.437	26027
833.576	25974
833.714	25944
833.852	26084
833.991	25963
834.129	26119
834.267	25986
834.406	26012
834.544	26046
834.682	25997
834.821	25955
834.959	26199
835.097	25890
835.235	26062
835.373	26012
835.511	26187
835.65	25932
835.788	25883
835.926	25597
836.064	25662
836.202	25635
836.34	25807
836.478	25864
836.615	25780
836.753	25750
836.891	25788
837.029	25849
837.167	25712
837.305	25651
837.443	25586
837.58	25594
837.718	25860
837.856	25700
837.993	25506
838.131	25597
838.269	25460
838.406	25487
838.544	25445
838.681	25118
838.819	25232
838.956	24951
839.094	25004
839.231	25107
839.369	25339
839.506	25457
839.643	25377
839.781	25259
839.918	24996
840.055	25046
840.193	25023
840.33	24806
840.467	25053
840.604	25069
840.742	25255
840.879	24985
841.016	24878
841.153	24871
841.29	25103
841.427	25015
841.564	25088
841.701	24966
841.838	25031
841.975	24916
842.112	24848
842.249	24844
842.385	24745
842.522	25038
842.659	24920
842.796	24692
842.933	24745
843.069	24741
843.206	24726
843.343	24787
843.479	24753
843.616	24730
843.752	24502
843.889	24513
844.025	24646
844.162	24525
844.298	24623
844.435	24505
844.571	24429
844.708	24597
844.844	24604
844.98	24639
845.117	24696
845.253	24456
845.389	24346
845.525	24441
845.661	24433
845.798	24311
845.934	24357
846.07	24258
846.206	24399
846.342	24327
846.478	24186
846.614	23946
846.75	23821
846.886	23969
847.022	24098
847.158	23874
847.294	23999
847.429	23977
847.565	24018
847.701	24232
847.837	23585
847.972	23581
848.108	23798
848.244	23726
848.379	23649
848.515	23573
848.65	23421
848.786	23490
848.921	23642
849.057	23703
849.192	23703
849.328	23623
849.463	23585
849.598	23410
849.734	23425
849.869	23379
850.004	23299
850.14	23395
850.275	23425
850.41	23170
850.545	23299
850.68	23231
850.815	23246
850.95	23231
851.085	23436
851.22	23414
851.355	23292
851.49	23349
851.625	23242
851.76	23391
851.895	23208
852.03	23181
852.165	23391
852.299	23433
852.434	23360
852.569	23486
852.703	23322
852.838	23303
852.973	23467
853.107	23341
853.242	23261
853.376	23113
853.511	23033
853.645	23060
853.78	23128
853.914	23208
854.048	23003
854.183	23109
854.317	23083
854.451	23258
854.585	23105
854.72	23189
854.854	23273
854.988	23056
855.122	23273
855.256	23067
855.39	23220
855.524	23261
855.658	23162
855.792	23181
855.926	23109
856.06	23208
856.194	23322
856.327	23086
856.461	23014
856.595	23098
856.729	23124
856.862	23330
856.996	23197
857.13	23261
857.263	23174
857.397	23296
857.53	23162
857.664	23181
857.797	23170
857.931	23258
858.064	23098
858.197	23261
858.331	23147
858.464	23071
858.597	23060
858.731	23025
858.864	23033
858.997	23006
859.13	23113
859.263	23246
859.396	23220
859.529	23098
859.662	23060
859.795	23090
859.928	23105
860.061	23345
860.194	23330
860.327	23204
860.46	23212
860.592	23235
860.725	23436
860.858	23174
860.99	23037
861.123	23170
861.256	23086
861.388	23189
861.521	23821
861.653	23067
861.786	22847
861.918	22915
862.05	23003
862.183	23033
862.315	23029
862.447	23124
862.58	22999
862.712	22774
862.844	22828
862.976	22873
863.108	22908
863.24	23364
863.372	22805
863.504	22771
863.636	22877
863.768	22786
863.9	22900
864.032	22805
864.164	22797
864.296	22946
864.428	23067
864.559	22915
864.691	22816
864.823	22885
864.954	22896
865.086	22812
865.217	22694
865.349	22679
865.48	22774
865.612	22706
865.743	22763
865.875	22759
866.006	22637
866.137	22725
866.269	22683
866.4	22744
866.531	22710
866.662	22565
866.793	22645
866.924	22580
867.055	22565
867.186	22660
867.317	22683
867.448	22516
867.579	22557
867.71	22569
867.841	22649
867.972	22626
868.103	22596
868.233	22660
868.364	22759
868.495	22702
868.625	22843
868.756	23014
868.886	22839
869.017	22904
869.147	22965
869.278	22980
869.408	23067
869.539	22801
869.669	22908
869.799	23014
869.929	22904
870.06	22892
870.19	23250
870.32	23185
870.45	23181
870.58	23284
870.71	23372
870.84	23311
870.97	23246
871.1	23376
871.23	23535
871.36	23535
871.489	23258
871.619	23436
871.749	23452
871.879	23551
872.008	23528
872.138	23562
872.267	23433
872.397	23387
872.526	23299
872.656	23277
872.785	23250
872.915	23570
873.044	23687
873.173	23482
873.303	23581
873.432	23710
873.561	23657
873.69	23452
873.819	23402
873.948	23642
874.077	23406
874.206	23509
874.335	23429
874.464	23592
874.593	23634
874.722	23592
874.851	23642
874.979	23604
875.108	23847
875.237	23600
875.365	23562
875.494	23600
875.623	23847
875.751	23726
875.88	23672
876.008	23748
876.136	23931
876.265	24140
876.393	24121
876.521	24129
876.65	24125
876.778	24106
876.906	24011
877.034	23927
877.162	23992
877.29	23912
877.418	24034
877.546	24053
877.674	23942
877.802	24064
877.93	24049
878.058	24083
878.185	23798
878.313	23954
878.441	23904
878.568	24007
878.696	23851
878.824	24095
878.951	24049
879.079	24285
879.206	24296
879.333	24201
879.461	24053
879.588	24091
879.715	24163
879.842	24311
879.97	24091
880.097	23809
880.224	23764
880.351	23794
880.478	23798
880.605	23870
880.732	23843
880.859	23908
880.986	24011
881.112	23863
881.239	23726
881.366	23478
881.493	23421
881.619	23296
881.746	23402
881.872	23345
881.999	23455
882.125	23345
882.252	23417
882.378	23383
882.505	23471
882.631	23254
882.757	23140
882.883	23090
883.01	23102
883.136	23060
883.262	22957
883.388	22930
883.514	23060
883.64	23056
883.766	22991
883.892	22805
884.018	22987
884.143	23052
884.269	23094
884.395	22748
884.52	22683
884.646	22767
884.772	22710
884.897	22512
885.023	22831
885.148	22847
885.274	22862
885.399	22729
885.524	22733
885.65	22694
885.775	22683
885.9	22694
886.025	22801
886.15	22850
886.275	22733
886.4	22512
886.525	22698
886.65	22668
886.775	22573
886.9	22748
887.025	22843
887.149	22706
887.274	22409
887.399	22504
887.523	22443
887.648	22291
887.773	22371
887.897	22565
888.021	22603
888.146	22344
888.27	22531
888.395	22516
888.519	22375
888.643	22398
888.767	22512
888.891	22322
889.015	22226
889.139	22341
889.263	22295
889.387	22310
889.511	22481
889.635	22390
889.759	22211
889.883	22139
890.006	22135
890.13	22337
890.254	22105
890.377	22185
890.501	21987
890.624	21964
890.748	21975
890.871	21857
890.995	21823
891.118	21656
891.241	21785
891.364	21838
891.488	21956
891.611	21724
891.734	21797
891.857	21835
891.98	21888
892.103	21793
892.226	21743
892.349	21652
892.471	21576
892.594	21603
892.717	21705
892.839	21728
892.962	21652
893.085	21591
893.207	21671
893.33	21530
893.452	21671
893.575	21709
893.697	21606
893.819	21774
893.941	21884
894.064	21831
894.186	21557
894.308	21610
894.43	21641
894.552	21785
894.674	21667
894.796	21599
894.918	21568
895.04	21576
895.161	21728
895.283	21743
895.405	21641
895.526	21553
895.648	21534
895.769	21606
895.891	21580
896.012	21705
896.134	21606
896.255	21511
896.376	21606
896.498	21576
896.619	21606
896.74	21625
896.861	21523
896.982	21823
897.103	22029
897.224	21956
897.345	21865
897.466	21701
897.587	21736
897.708	21857
897.828	21953
897.949	21819
898.07	21447
898.19	21857
898.311	21800
898.431	21629
898.552	21705
898.672	21888
898.792	21895
898.913	21842
899.033	21781
899.153	21625
899.273	21530
899.393	21507
899.513	21553
899.633	21462
899.753	21568
899.873	21447
899.993	21447
900.113	21329
900.232	21435
900.352	21511
900.472	21237
900.591	21321
900.711	21393
900.83	21199
900.95	21336
901.069	21370
901.189	21180
901.308	20986
901.427	20842
901.546	20853
901.665	20883
901.784	20838
901.904	20705
902.023	20606
902.141	20473
902.26	20324
902.379	20579
902.498	20362
902.617	20294
902.735	20381
902.854	20286
902.973	20130
903.091	20096
903.21	19993
903.328	19974
903.446	19913
903.565	19967
903.683	19978
903.801	19643
903.919	19712
904.038	19719
904.156	19537
904.274	19674
904.392	19468
904.51	19540
904.627	19567
904.745	19502
904.863	19662
904.981	19441
905.098	19171
905.216	19179
905.334	19240
905.451	19209
905.569	19114
905.686	19240
905.803	19152
905.921	18985
906.038	19080
906.155	19053
906.272	18882
906.389	18814
906.506	18776
906.623	18768
906.74	18669
906.857	18661
906.974	18540
907.091	18681
907.208	18829
907.324	18829
907.441	18707
907.557	18456
907.674	18490
907.79	18376
907.907	18441
908.023	18464
908.139	18361
908.256	18304
908.372	18323
908.488	18213
908.604	18186
908.72	18083
908.836	18182
908.952	18114
909.068	18129
909.184	18262
909.3	18083
909.415	18140
909.531	18098
909.647	17794
909.762	17863
909.878	17851
909.993	17874
910.108	17722
910.224	17771
910.339	17752
910.454	17649
910.57	17646
910.685	17528
910.8	17748
910.915	17756
911.03	17608
911.145	17482
911.259	17379
911.374	17322
911.489	17277
911.604	17318
911.718	17079
911.833	17136
911.947	17102
912.062	16908
912.176	17090
912.291	17143
912.405	17147
912.519	17341
912.633	17284
912.748	17261
912.862	17098
912.976	16987
913.09	16885
913.204	16930
913.318	16949
913.431	17086
913.545	17022
913.659	17094
913.772	16908
913.886	16740
914	16721
914.113	16771
914.226	16755
914.34	16691
914.453	16607
914.566	16854
914.68	16611
914.793	16599
914.906	16470
915.019	16333
915.132	16306
915.245	16173
915.358	16314
915.47	16246
915.583	16322
915.696	16223
915.809	16379
915.921	16375
916.034	16211
916.146	16188
916.259	16162
916.371	16257
916.483	16306
916.595	16150
916.708	16150
916.82	16139
916.932	16032
917.044	16101
917.156	16105
917.268	15922
917.38	15956
917.491	15846
917.603	15937
917.715	15972
917.826	16029
917.938	15766
918.049	15709
918.161	15842
918.272	15972
918.384	15953
918.495	15876
918.606	15675
918.717	15538
918.828	15549
918.939	15644
919.05	15568
919.161	15557
919.272	15397
919.383	15428
919.494	15606
919.604	15842
919.715	15663
919.826	15519
919.936	15591
920.047	15713
920.157	15671
920.267	15736
920.378	15633
920.488	15591
920.598	15637
920.708	15884
920.818	15781
920.928	15724
921.038	15911
921.148	15827
921.258	15534
921.368	15405
921.477	15382
921.587	15241
921.697	15211
921.806	15302
921.916	15165
922.025	14948
922.134	14906
922.244	14788
922.353	15009
922.462	14868
922.571	14659
922.68	14507
922.789	14606
922.898	14610
923.007	14404
923.116	14598
923.224	14499
923.333	14590
923.442	14351
923.55	14332
923.659	14336
923.767	14499
923.876	14370
923.984	14423
924.092	14294
924.201	14377
924.309	14309
924.417	14313
924.525	14221
924.633	14225
924.741	15169
924.849	14024
924.956	14153
925.064	14084
925.172	13963
925.279	13814
925.387	14020
925.494	14005
925.602	14031
925.709	13906
925.816	13860
925.924	13887
926.031	13986
926.138	13856
926.245	13871
926.352	13784
926.459	13868
926.566	13864
926.673	13731
926.779	13651
926.886	13586
926.993	13487
927.099	13453
927.206	13407
927.312	13324
927.419	13468
927.525	13472
927.631	13403
927.737	13255
927.843	13198
927.95	13244
928.056	13259
928.162	13308
928.267	13274
928.373	13852
928.479	13320
928.585	13110
928.69	13190
928.796	13202
928.901	13171
929.007	12905
929.112	13122
929.218	13050
929.323	12989
929.428	12886
929.533	13110
929.638	12905
929.743	13015
929.848	12867
929.953	12863
930.058	12852
930.163	12585
930.267	12532
930.372	12791
930.477	12574
930.581	12776
930.685	12620
930.79	12464
930.894	12509
930.998	12437
931.103	12589
931.207	12277
931.311	12190
931.415	12087
931.519	11904
931.623	11802
