Data from test_V78500241_2962.txt Node
Date: Fri Mar 25 16:02:19 CST 2022
User: usil
Spectrometer: V785-0024
Trigger mode: 0
Integration Time (sec): 4.000000E-1
Scans to average: 1
Nonlinearity correction enabled: false
Boxcar width: 0
Storing dark spectrum: false
XAxis mode: Wavelengths
Number of Pixels in Spectrum: 1024
>>>>>Begin Spectral Data<<<<<
801.071	28835
801.214	28790
801.356	28668
801.499	28519
801.641	28462
801.783	28382
801.926	28508
802.068	28470
802.211	28394
802.353	28215
802.496	28230
802.638	28284
802.78	28147
802.923	27911
803.065	27922
803.208	28139
803.35	28207
803.492	28272
803.635	28424
803.777	28246
803.919	28394
804.061	28748
804.204	28466
804.346	28409
804.488	28363
804.63	28356
804.773	28272
804.915	28569
805.057	28398
805.199	28497
805.341	28443
805.483	28493
805.626	28596
805.768	28291
805.91	28565
806.052	28573
806.194	28360
806.336	28702
806.478	28588
806.62	28634
806.762	28721
806.904	28755
807.046	29208
807.188	28972
807.33	28984
807.472	29029
807.614	29113
807.756	29151
807.898	29014
808.04	28816
808.182	28801
808.324	28965
808.465	28885
808.607	29212
808.749	29231
808.891	29326
809.033	29433
809.174	29220
809.316	29258
809.458	29284
809.6	29124
809.741	29425
809.883	29421
810.025	29611
810.166	29551
810.308	29417
810.45	29486
810.591	29520
810.733	29318
810.875	29261
811.016	29322
811.158	29166
811.299	29387
811.441	29429
811.582	29535
811.724	29345
811.865	29189
812.007	29273
812.148	29391
812.29	29425
812.431	29551
812.573	29703
812.714	29748
812.855	29862
812.997	29836
813.138	30072
813.279	29992
813.421	29779
813.562	29802
813.703	29809
813.845	29474
813.986	29356
814.127	29216
814.268	29014
814.41	29056
814.551	28900
814.692	28961
814.833	28930
814.974	28900
815.115	29037
815.256	28854
815.397	28877
815.539	28885
815.68	28850
815.821	28786
815.962	28801
816.103	28698
816.244	28717
816.385	28626
816.526	28698
816.666	28508
816.807	28356
816.948	28443
817.089	28542
817.23	28478
817.371	28318
817.512	28318
817.653	28272
817.793	28253
817.934	28344
818.075	28242
818.216	28417
818.356	28265
818.497	28280
818.638	27998
818.778	28215
818.919	28051
819.06	28192
819.2	28230
819.341	28451
819.481	28352
819.622	28443
819.762	28710
819.903	28615
820.043	28474
820.184	28580
820.324	28489
820.465	28573
820.605	28512
820.746	28356
820.886	28272
821.026	28466
821.167	28390
821.307	28470
821.447	28436
821.588	28177
821.728	28078
821.868	27975
822.008	27800
822.149	28082
822.289	27781
822.429	27561
822.569	27549
822.709	27534
822.849	27291
822.99	27302
823.13	27367
823.27	27218
823.41	27150
823.55	26880
823.69	27188
823.83	27241
823.97	27047
824.11	27062
824.25	26990
824.389	27070
824.529	27096
824.669	27070
824.809	27123
824.949	27138
825.089	26944
825.228	27058
825.368	26944
825.508	26788
825.648	26899
825.787	26899
825.927	26910
826.067	26910
826.206	26857
826.346	26887
826.485	27017
826.625	26796
826.765	26845
826.904	26914
827.044	26727
827.183	26693
827.323	26427
827.462	26739
827.601	26644
827.741	26689
827.88	26682
828.02	26503
828.159	26530
828.298	26568
828.437	26659
828.577	26583
828.716	26705
828.855	26408
828.994	26313
829.134	26225
829.273	26370
829.412	26210
829.551	26259
829.69	26309
829.829	26290
829.968	26404
830.107	26347
830.246	26366
830.385	26240
830.524	26221
830.663	26069
830.802	25982
830.941	25944
831.08	25849
831.219	25970
831.357	26001
831.496	26100
831.635	25791
831.774	25799
831.913	25909
832.051	25635
832.19	25704
832.329	25632
832.467	25685
832.606	25609
832.744	25441
832.883	25556
833.022	25609
833.16	25586
833.299	25563
833.437	25639
833.576	25552
833.714	25738
833.852	25715
833.991	25601
834.129	25742
834.267	25712
834.406	25460
834.544	25567
834.682	25693
834.821	25601
834.959	25674
835.097	25495
835.235	25727
835.373	25632
835.511	25582
835.65	25441
835.788	25510
835.926	25320
836.064	25225
836.202	25346
836.34	25441
836.478	25510
836.615	25316
836.753	25544
836.891	25479
837.029	25438
837.167	25415
837.305	25396
837.443	25282
837.58	25304
837.718	25285
837.856	25266
837.993	25247
838.131	25324
838.269	25133
838.406	25107
838.544	25152
838.681	24863
838.819	24837
838.956	24741
839.094	24772
839.231	24779
839.369	24886
839.506	25183
839.643	25069
839.781	24837
839.918	24703
840.055	24692
840.193	24642
840.33	24677
840.467	24547
840.604	24658
840.742	24871
840.879	24547
841.016	24547
841.153	24517
841.29	24711
841.427	24494
841.564	24616
841.701	24601
841.838	24673
841.975	24460
842.112	24498
842.249	24407
842.385	24380
842.522	24623
842.659	24467
842.796	24384
842.933	24323
843.069	24353
843.206	24266
843.343	24536
843.479	24525
843.616	24353
843.752	24174
843.889	24216
844.025	24384
844.162	24224
844.298	24247
844.435	24136
844.571	24159
844.708	24300
844.844	24266
844.98	24281
845.117	24178
845.253	24186
845.389	23935
845.525	23950
845.661	23908
845.798	23923
845.934	23996
846.07	23920
846.206	23824
846.342	23870
846.478	23908
846.614	23589
846.75	23558
846.886	23577
847.022	23703
847.158	23672
847.294	23596
847.429	23695
847.565	23585
847.701	23855
847.837	23303
847.972	23337
848.108	23558
848.244	23379
848.379	23174
848.515	23208
848.65	23174
848.786	23208
848.921	23250
849.057	23364
849.192	23284
849.328	23322
849.463	23200
849.598	23200
849.734	23136
849.869	23064
850.004	23003
850.14	23022
850.275	23003
850.41	22889
850.545	22934
850.68	22938
850.815	23064
850.95	23029
851.085	23121
851.22	23033
851.355	22927
851.49	22904
851.625	22904
851.76	22980
851.895	22862
852.03	22991
852.165	23113
852.299	22938
852.434	22953
852.569	23071
852.703	22938
852.838	23037
852.973	23113
853.107	23048
853.242	22805
853.376	22752
853.511	22713
853.645	22812
853.78	22999
853.914	22854
854.048	22793
854.183	22812
854.317	22892
854.451	23071
854.585	22839
854.72	22767
854.854	22847
854.988	22721
855.122	22774
855.256	22603
855.39	22713
855.524	22778
855.658	22858
855.792	22824
855.926	22816
856.06	22847
856.194	22854
856.327	22774
856.461	22759
856.595	22744
856.729	22831
856.862	22839
856.996	22835
857.13	22854
857.263	22824
857.397	22949
857.53	22816
857.664	22771
857.797	22843
857.931	22927
858.064	22801
858.197	22877
858.331	22805
858.464	22797
858.597	22603
858.731	22778
858.864	22816
858.997	22816
859.13	22740
859.263	22858
859.396	22774
859.529	22869
859.662	22702
859.795	22683
859.928	22824
860.061	22965
860.194	22999
860.327	22812
860.46	22740
860.592	22812
860.725	23041
860.858	22961
860.99	22828
861.123	22778
861.256	22664
861.388	22721
861.521	23615
861.653	22698
861.786	22580
861.918	22626
862.05	22744
862.183	22710
862.315	22702
862.447	22729
862.58	22767
862.712	22485
862.844	22577
862.976	22531
863.108	22561
863.24	22911
863.372	22478
863.504	22508
863.636	22603
863.768	22497
863.9	22527
864.032	22371
864.164	22489
864.296	22713
864.428	22584
864.559	22645
864.691	22493
864.823	22428
864.954	22443
865.086	22280
865.217	22402
865.349	22379
865.48	22394
865.612	22440
865.743	22596
865.875	22371
866.006	22367
866.137	22284
866.269	22371
866.4	22428
866.531	22341
866.662	22173
866.793	22329
866.924	22299
867.055	22352
867.186	22424
867.317	22230
867.448	22097
867.579	22344
867.71	22257
867.841	22173
867.972	22257
868.103	22196
868.233	22436
868.364	22322
868.495	22428
868.625	22447
868.756	22637
868.886	22523
869.017	22542
869.147	22653
869.278	22759
869.408	22550
869.539	22474
869.669	22721
869.799	22641
869.929	22535
870.06	22729
870.19	22759
870.32	22904
870.45	22885
870.58	22930
870.71	22908
870.84	22938
870.97	22946
871.1	22942
871.23	23140
871.36	23181
871.489	22892
871.619	23128
871.749	23181
871.879	23166
872.008	23246
872.138	23189
872.267	23064
872.397	23071
872.526	22820
872.656	22938
872.785	23006
872.915	23212
873.044	23227
873.173	23227
873.303	23227
873.432	23223
873.561	23178
873.69	23227
873.819	23181
873.948	23128
874.077	23143
874.206	23151
874.335	23174
874.464	23307
874.593	23307
874.722	23292
874.851	23391
874.979	23284
875.108	23421
875.237	23353
875.365	23200
875.494	23269
875.623	23193
875.751	23315
875.88	23387
876.008	23551
876.136	23657
876.265	23737
876.393	23954
876.521	23904
876.65	23870
876.778	23646
876.906	23668
877.034	23653
877.162	23687
877.29	23573
877.418	23634
877.546	23684
877.674	23562
877.802	23608
877.93	23672
878.058	23707
878.185	23570
878.313	23733
878.441	23676
878.568	23684
878.696	23604
878.824	23760
878.951	23783
879.079	23969
879.206	24045
879.333	23790
879.461	23775
879.588	23748
879.715	23863
879.842	24045
879.97	23821
880.097	23634
880.224	23627
880.351	23649
880.478	23341
880.605	23558
880.732	23509
880.859	23752
880.986	23509
881.112	23573
881.239	23467
881.366	23273
881.493	23265
881.619	23117
881.746	23124
881.872	23197
881.999	23064
882.125	23048
882.252	23109
882.378	22999
882.505	23143
882.631	22900
882.757	22710
882.883	22881
883.01	22820
883.136	22786
883.262	22577
883.388	22481
883.514	22748
883.64	22755
883.766	22653
883.892	22557
884.018	22634
884.143	22698
884.269	22835
884.395	22485
884.52	22299
884.646	22455
884.772	22306
884.897	22295
885.023	22478
885.148	22417
885.274	22637
885.399	22470
885.524	22432
885.65	22451
885.775	22382
885.9	22337
886.025	22329
886.15	22440
886.275	22303
886.4	22272
886.525	22322
886.65	22276
886.775	22379
886.9	22516
887.025	22580
887.149	22276
887.274	22234
887.399	22051
887.523	22082
887.648	22078
887.773	22158
887.897	22173
888.021	22158
888.146	21983
888.27	22173
888.395	22204
888.519	22192
888.643	22120
888.767	22204
888.891	22093
889.015	21934
889.139	22002
889.263	21956
889.387	22109
889.511	22093
889.635	22166
889.759	21846
889.883	21945
890.006	21964
890.13	21934
890.254	21876
890.377	21797
890.501	21701
890.624	21610
890.748	21728
890.871	21477
890.995	21412
891.118	21439
891.241	21515
891.364	21481
891.488	21595
891.611	21420
891.734	21462
891.857	21591
891.98	21416
892.103	21473
892.226	21454
892.349	21428
892.471	21283
892.594	21351
892.717	21401
892.839	21443
892.962	21405
893.085	21363
893.207	21294
893.33	21226
893.452	21378
893.575	21401
893.697	21268
893.819	21557
893.941	21485
894.064	21397
894.186	21435
894.308	21275
894.43	21389
894.552	21351
894.674	21378
894.796	21321
894.918	21424
895.04	21317
895.161	21355
895.283	21306
895.405	21222
895.526	21382
895.648	21264
895.769	21306
895.891	21256
896.012	21401
896.134	21336
896.255	21313
896.376	21176
896.498	21329
896.619	21405
896.74	21397
896.861	21488
896.982	21648
897.103	21644
897.224	21572
897.345	21454
897.466	21397
897.587	21534
897.708	21667
897.828	21424
897.949	21363
898.07	21317
898.19	21515
898.311	21576
898.431	21291
898.552	21325
898.672	21583
898.792	21553
898.913	21443
899.033	21405
899.153	21306
899.273	21268
899.393	21226
899.513	21302
899.633	21192
899.753	21363
899.873	21195
899.993	21264
900.113	21199
900.232	21249
900.352	21020
900.472	21085
900.591	21036
900.711	21055
900.83	21032
900.95	21024
901.069	20979
901.189	20960
901.308	20629
901.427	20549
901.546	20518
901.665	20594
901.784	20564
901.904	20499
902.023	20324
902.141	20126
902.26	20065
902.379	20050
902.498	20054
902.617	20035
902.735	20149
902.854	19894
902.973	19890
903.091	19788
903.21	19818
903.328	19658
903.446	19719
903.565	19586
903.683	19624
903.801	19343
903.919	19567
904.038	19392
904.156	19270
904.274	19430
904.392	19312
904.51	19236
904.627	19282
904.745	19419
904.863	19293
904.981	19015
905.098	19000
905.216	18894
905.334	19008
905.451	18993
905.569	18970
905.686	18951
905.803	18958
905.921	18772
906.038	18795
906.155	18821
906.272	18726
906.389	18582
906.506	18528
906.623	18376
906.74	18456
906.857	18422
906.974	18342
907.091	18448
907.208	18513
907.324	18639
907.441	18350
907.557	18155
907.674	18178
907.79	18087
907.907	18152
908.023	18262
908.139	18235
908.256	18155
908.372	18171
908.488	17977
908.604	17851
908.72	17817
908.836	17988
908.952	17889
909.068	17855
909.184	18060
909.3	17855
909.415	17847
909.531	17859
909.647	17691
909.762	17604
909.878	17509
909.993	17577
910.108	17501
910.224	17471
910.339	17524
910.454	17501
910.57	17269
910.685	17242
910.8	17539
910.915	17482
911.03	17459
911.145	17280
911.259	17212
911.374	17124
911.489	17086
911.604	17029
911.718	16911
911.833	16961
911.947	16843
912.062	16786
912.176	16934
912.291	16812
912.405	17010
912.519	17128
912.633	17052
912.748	16980
912.862	16934
912.976	16782
913.09	16626
913.204	16584
913.318	16668
913.431	16862
913.545	16885
913.659	16965
913.772	16740
913.886	16542
914	16500
914.113	16455
914.226	16561
914.34	16554
914.453	16409
914.566	16493
914.68	16440
914.793	16379
914.906	16196
915.019	15994
915.132	16067
915.245	16032
915.358	16173
915.47	16147
915.583	16017
915.696	16090
915.809	16063
915.921	16192
916.034	15972
916.146	16013
916.259	15991
916.371	16006
916.483	15983
916.595	15857
916.708	15876
916.82	15865
916.932	15816
917.044	15873
917.156	15823
917.268	15686
917.38	15720
917.491	15778
917.603	15743
917.715	15800
917.826	15717
917.938	15671
918.049	15473
918.161	15599
918.272	15720
918.384	15789
918.495	15515
918.606	15428
918.717	15431
918.828	15515
918.939	15382
919.05	15378
919.161	15416
919.272	15245
919.383	15302
919.494	15496
919.604	15641
919.715	15466
919.826	15374
919.936	15393
920.047	15504
920.157	15405
920.267	15667
920.378	15435
920.488	15336
920.598	15591
920.708	15679
920.818	15420
920.928	15454
921.038	15713
921.148	15625
921.258	15344
921.368	15218
921.477	15154
921.587	15017
921.697	14986
921.806	15173
921.916	14979
922.025	14792
922.134	14758
922.244	14777
922.353	14804
922.462	14697
922.571	14606
922.68	14533
922.789	14415
922.898	14450
923.007	14332
923.116	14427
923.224	14320
923.333	14404
923.442	14275
923.55	14199
923.659	14309
923.767	14358
923.876	14157
923.984	14168
924.092	14134
924.201	14202
924.309	14046
924.417	14103
924.525	14027
924.633	13947
924.741	14819
924.849	13944
924.956	13894
925.064	13822
925.172	13651
925.279	13803
925.387	13753
925.494	13757
925.602	13959
925.709	13712
925.816	13681
925.924	13670
926.031	13772
926.138	13636
926.245	13674
926.352	13613
926.459	13670
926.566	13769
926.673	13594
926.779	13502
926.886	13609
926.993	13358
927.099	13331
927.206	13285
927.312	13225
927.419	13312
927.525	13232
927.631	13297
927.737	13213
927.843	13152
927.95	13091
928.056	13126
928.162	13050
928.267	13076
928.373	13742
928.479	13228
928.585	12886
928.69	13046
928.796	13069
928.901	12996
929.007	12749
929.112	12856
929.218	12867
929.323	12909
929.428	12692
929.533	12909
929.638	12795
929.743	12707
929.848	12817
929.953	12726
930.058	12684
930.163	12506
930.267	12536
930.372	12650
930.477	12414
930.581	12582
930.685	12559
930.79	12456
930.894	12357
930.998	12315
931.103	12464
931.207	12110
931.311	12015
931.415	11950
931.519	11722
931.623	11703
