Data from test_V78500241_3374.txt Node
Date: Fri Mar 25 16:05:10 CST 2022
User: usil
Spectrometer: V785-0024
Trigger mode: 0
Integration Time (sec): 4.000000E-1
Scans to average: 1
Nonlinearity correction enabled: false
Boxcar width: 0
Storing dark spectrum: false
XAxis mode: Wavelengths
Number of Pixels in Spectrum: 1024
>>>>>Begin Spectral Data<<<<<
801.071	28405
801.214	28493
801.356	28120
801.499	28219
801.641	27846
801.783	28093
801.926	28143
802.068	28070
802.211	27968
802.353	27956
802.496	27827
802.638	27785
802.78	27709
802.923	27694
803.065	27648
803.208	27709
803.35	27766
803.492	27850
803.635	28105
803.777	27888
803.919	27930
804.061	28261
804.204	28051
804.346	27846
804.488	27823
804.63	28010
804.773	27789
804.915	28021
805.057	28112
805.199	28109
805.341	27994
805.483	28078
805.626	28059
805.768	28040
805.91	28166
806.052	28204
806.194	28105
806.336	28265
806.478	28097
806.62	28124
806.762	28219
806.904	28504
807.046	28626
807.188	28607
807.33	28512
807.472	28588
807.614	28478
807.756	28611
807.898	28481
808.04	28459
808.182	28234
808.324	28394
808.465	28459
808.607	28740
808.749	28797
808.891	28949
809.033	28850
809.174	28938
809.316	28710
809.458	28854
809.6	28790
809.741	28987
809.883	29143
810.025	29052
810.166	29147
810.308	29056
810.45	29029
810.591	28968
810.733	28858
810.875	28713
811.016	28683
811.158	28729
811.299	28858
811.441	29041
811.582	28873
811.724	28835
811.865	28793
812.007	28854
812.148	28873
812.29	28873
812.431	28965
812.573	29083
812.714	29162
812.855	29387
812.997	29417
813.138	29592
813.279	29284
813.421	29258
813.562	29356
813.703	29208
813.845	29014
813.986	28630
814.127	28660
814.268	28577
814.41	28500
814.551	28523
814.692	28588
814.833	28466
814.974	28375
815.115	28409
815.256	28436
815.397	28382
815.539	28348
815.68	28363
815.821	28360
815.962	28344
816.103	28246
816.244	28249
816.385	28177
816.526	28204
816.666	27937
816.807	27808
816.948	27800
817.089	27880
817.23	27876
817.371	27785
817.512	27838
817.653	27930
817.793	27850
817.934	27755
818.075	27903
818.216	27808
818.356	27804
818.497	27705
818.638	27637
818.778	27542
818.919	27793
819.06	27656
819.2	27759
819.341	27945
819.481	27709
819.622	27880
819.762	28044
819.903	27983
820.043	28006
820.184	27983
820.324	27934
820.465	28048
820.605	27987
820.746	27911
820.886	27835
821.026	27884
821.167	27941
821.307	27994
821.447	27717
821.588	27838
821.728	27603
821.868	27458
822.008	27416
822.149	27211
822.289	27245
822.429	27081
822.569	26994
822.709	26990
822.849	26682
822.99	26815
823.13	26796
823.27	26792
823.41	26640
823.55	26492
823.69	26705
823.83	26788
823.97	26590
824.11	26457
824.25	26499
824.389	26423
824.529	26514
824.669	26415
824.809	26659
824.949	26594
825.089	26587
825.228	26511
825.368	26282
825.508	26221
825.648	26267
825.787	26396
825.927	26442
826.067	26332
826.206	26305
826.346	26453
826.485	26495
826.625	26358
826.765	26446
826.904	26415
827.044	26218
827.183	26084
827.323	26161
827.462	26130
827.601	26088
827.741	26031
827.88	26084
828.02	25936
828.159	26001
828.298	26115
828.437	26046
828.577	25921
828.716	26153
828.855	25909
828.994	25791
829.134	25784
829.273	25826
829.412	25750
829.551	25727
829.69	25757
829.829	25750
829.968	25784
830.107	25822
830.246	25738
830.385	25609
830.524	25704
830.663	25563
830.802	25479
830.941	25312
831.08	25415
831.219	25426
831.357	25544
831.496	25616
831.635	25301
831.774	25259
831.913	25221
832.051	25206
832.19	25240
832.329	25110
832.467	25061
832.606	25095
832.744	25050
832.883	25084
833.022	24962
833.16	25015
833.299	24970
833.437	25080
833.576	25046
833.714	25164
833.852	25198
833.991	25088
834.129	25133
834.267	25152
834.406	25095
834.544	25179
834.682	25148
834.821	25160
834.959	25308
835.097	24935
835.235	25217
835.373	25236
835.511	24981
835.65	25023
835.788	25008
835.926	24859
836.064	24825
836.202	24810
836.34	25015
836.478	25053
836.615	25027
836.753	24966
836.891	25023
837.029	24985
837.167	25065
837.305	24802
837.443	24829
837.58	24684
837.718	24840
837.856	24753
837.993	24681
838.131	24684
838.269	24631
838.406	24627
838.544	24585
838.681	24479
838.819	24304
838.956	24254
839.094	24174
839.231	24171
839.369	24410
839.506	24734
839.643	24452
839.781	24308
839.918	24194
840.055	24121
840.193	24129
840.33	24087
840.467	24186
840.604	24197
840.742	24270
840.879	24034
841.016	24072
841.153	24015
841.29	24273
841.427	24110
841.564	24327
841.701	24140
841.838	23992
841.975	24072
842.112	24060
842.249	23984
842.385	23977
842.522	24076
842.659	24007
842.796	23859
842.933	23946
843.069	23798
843.206	23824
843.343	23942
843.479	23809
843.616	23893
843.752	23665
843.889	23745
844.025	23691
844.162	23707
844.298	23775
844.435	23623
844.571	23714
844.708	23695
844.844	23923
844.98	23851
845.117	23714
845.253	23592
845.389	23577
845.525	23566
845.661	23463
845.798	23349
845.934	23493
846.07	23425
846.206	23334
846.342	23444
846.478	23501
846.614	23258
846.75	23083
846.886	23132
847.022	23193
847.158	23159
847.294	23052
847.429	23117
847.565	22965
847.701	23307
847.837	22843
847.972	22930
848.108	22976
848.244	22999
848.379	22618
848.515	22721
848.65	22710
848.786	22759
848.921	22706
849.057	22824
849.192	22835
849.328	22710
849.463	22637
849.598	22672
849.734	22538
849.869	22550
850.004	22459
850.14	22500
850.275	22474
850.41	22451
850.545	22402
850.68	22538
850.815	22447
850.95	22455
851.085	22668
851.22	22531
851.355	22519
851.49	22481
851.625	22398
851.76	22421
851.895	22470
852.03	22348
852.165	22546
852.299	22497
852.434	22660
852.569	22424
852.703	22497
852.838	22497
852.973	22668
853.107	22626
853.242	22531
853.376	22276
853.511	22219
853.645	22204
853.78	22470
853.914	22348
854.048	22284
854.183	22322
854.317	22341
854.451	22497
854.585	22421
854.72	22276
854.854	22379
854.988	22436
855.122	22284
855.256	22188
855.39	22303
855.524	22402
855.658	22318
855.792	22280
855.926	22265
856.06	22325
856.194	22459
856.327	22276
856.461	22276
856.595	22318
856.729	22318
856.862	22356
856.996	22447
857.13	22409
857.263	22428
857.397	22519
857.53	22287
857.664	22333
857.797	22421
857.931	22440
858.064	22360
858.197	22398
858.331	22363
858.464	22207
858.597	22139
858.731	22287
858.864	22341
858.997	22375
859.13	22318
859.263	22325
859.396	22390
859.529	22447
859.662	22295
859.795	22310
859.928	22295
860.061	22508
860.194	22512
860.327	22352
860.46	22291
860.592	22504
860.725	22436
860.858	22493
860.99	22253
861.123	22295
861.256	22253
861.388	22436
861.521	22987
861.653	22253
861.786	22147
861.918	22097
862.05	22204
862.183	22257
862.315	22204
862.447	22219
862.58	22291
862.712	22044
862.844	22040
862.976	22200
863.108	22029
863.24	22588
863.372	22010
863.504	22139
863.636	22013
863.768	22188
863.9	22025
864.032	22032
864.164	22093
864.296	22128
864.428	22139
864.559	22090
864.691	22048
864.823	22032
864.954	22036
865.086	22078
865.217	22021
865.349	21850
865.48	21892
865.612	21857
865.743	22074
865.875	22010
866.006	21953
866.137	21846
866.269	21861
866.4	21926
866.531	21755
866.662	21892
866.793	21850
866.924	21797
867.055	21915
867.186	21892
867.317	21949
867.448	21686
867.579	21827
867.71	21797
867.841	21618
867.972	21907
868.103	21884
868.233	21926
868.364	21804
868.495	21972
868.625	22116
868.756	22215
868.886	22051
869.017	22010
869.147	22082
869.278	22249
869.408	22093
869.539	22082
869.669	22082
869.799	22120
869.929	22303
870.06	22219
870.19	22462
870.32	22382
870.45	22348
870.58	22474
870.71	22675
870.84	22554
870.97	22489
871.1	22436
871.23	22683
871.36	22698
871.489	22554
871.619	22706
871.749	22835
871.879	22733
872.008	22858
872.138	22672
872.267	22557
872.397	22698
872.526	22504
872.656	22637
872.785	22618
872.915	22771
873.044	22771
873.173	22675
873.303	22729
873.432	22949
873.561	22812
873.69	22725
873.819	22752
873.948	22774
874.077	22774
874.206	22721
874.335	22858
874.464	22774
874.593	22862
874.722	22797
874.851	22972
874.979	22980
875.108	23010
875.237	22915
875.365	22881
875.494	23033
875.623	23003
875.751	22919
875.88	22980
876.008	23041
876.136	23105
876.265	23391
876.393	23512
876.521	23436
876.65	23414
876.778	23303
876.906	23265
877.034	23254
877.162	23322
877.29	23223
877.418	23239
877.546	23307
877.674	23296
877.802	23372
877.93	23376
878.058	23239
878.185	23170
878.313	23231
878.441	23280
878.568	23064
878.696	23185
878.824	23364
878.951	23315
879.079	23478
879.206	23558
879.333	23455
879.461	23273
879.588	23463
879.715	23425
879.842	23566
879.97	23368
880.097	23220
880.224	23178
880.351	23083
880.478	23147
880.605	22930
880.732	23048
880.859	23311
880.986	23162
881.112	23147
881.239	22980
881.366	22862
881.493	22710
881.619	22744
881.746	22649
881.872	22706
881.999	22649
882.125	22618
882.252	22641
882.378	22599
882.505	22778
882.631	22493
882.757	22234
882.883	22417
883.01	22344
883.136	22147
883.262	22253
883.388	22131
883.514	22356
883.64	22398
883.766	22253
883.892	22177
884.018	22192
884.143	22261
884.269	22402
884.395	22063
884.52	21953
884.646	21994
884.772	21991
884.897	21789
885.023	21979
885.148	22120
885.274	22055
885.399	22086
885.524	21949
885.65	21998
885.775	21987
885.9	21884
886.025	22048
886.15	21979
886.275	21903
886.4	21857
886.525	21918
886.65	21892
886.775	21835
886.9	22013
887.025	22124
887.149	21972
887.274	21717
887.399	21709
887.523	21778
887.648	21671
887.773	21618
887.897	21766
888.021	21751
888.146	21732
888.27	21736
888.395	21766
888.519	21732
888.643	21667
888.767	21778
888.891	21648
889.015	21618
889.139	21580
889.263	21523
889.387	21686
889.511	21705
889.635	21705
889.759	21469
889.883	21496
890.006	21599
890.13	21641
890.254	21416
890.377	21344
890.501	21348
890.624	21249
890.748	21279
890.871	21169
890.995	21192
891.118	21024
891.241	21146
891.364	21131
891.488	21081
891.611	21013
891.734	21081
891.857	21135
891.98	21047
892.103	21104
892.226	21104
892.349	20990
892.471	20868
892.594	20895
892.717	20994
892.839	20963
892.962	21009
893.085	20956
893.207	20986
893.33	20986
893.452	20948
893.575	21074
893.697	20982
893.819	21119
893.941	21131
894.064	21074
894.186	20914
894.308	20880
894.43	20960
894.552	21096
894.674	21169
894.796	20971
894.918	20887
895.04	20948
895.161	20906
895.283	20998
895.405	20777
895.526	20910
895.648	20845
895.769	20994
895.891	20979
896.012	20975
896.134	21043
896.255	20944
896.376	20838
896.498	21001
896.619	21055
896.74	20921
896.861	21180
896.982	21241
897.103	21416
897.224	21207
897.345	21146
897.466	21116
897.587	21165
897.708	21336
897.828	21226
897.949	21093
898.07	20990
898.19	21165
898.311	21154
898.431	21058
898.552	21169
898.672	21161
898.792	21142
898.913	21180
899.033	21066
899.153	21020
899.273	20830
899.393	20921
899.513	20899
899.633	20979
899.753	20849
899.873	20773
899.993	20941
900.113	20872
900.232	20823
900.352	20777
900.472	20651
900.591	20659
900.711	20693
900.83	20549
900.95	20765
901.069	20743
901.189	20533
901.308	20271
901.427	20172
901.546	20199
901.665	20233
901.784	20225
901.904	20126
902.023	20119
902.141	19826
902.26	19750
902.379	19852
902.498	19689
902.617	19693
902.735	19727
902.854	19753
902.973	19723
903.091	19415
903.21	19434
903.328	19304
903.446	19304
903.565	19152
903.683	19118
903.801	19042
903.919	19164
904.038	19118
904.156	19069
904.274	19023
904.392	19065
904.51	18962
904.627	18977
904.745	19000
904.863	18924
904.981	18696
905.098	18517
905.216	18582
905.334	18654
905.451	18627
905.569	18612
905.686	18681
905.803	18703
905.921	18445
906.038	18578
906.155	18407
906.272	18304
906.389	18251
906.506	18121
906.623	18163
906.74	18155
906.857	18125
906.974	18079
907.091	18224
907.208	18292
907.324	18254
907.441	18053
907.557	17897
907.674	17954
907.79	17642
907.907	17870
908.023	17923
908.139	17878
908.256	17771
908.372	17729
908.488	17756
908.604	17668
908.72	17486
908.836	17566
908.952	17543
909.068	17596
909.184	17623
909.3	17532
909.415	17551
909.531	17539
909.647	17315
909.762	17318
909.878	17280
909.993	17277
910.108	17220
910.224	17242
910.339	17174
910.454	17162
910.57	17045
910.685	16999
910.8	17189
910.915	17189
911.03	17003
911.145	16854
911.259	16839
911.374	16797
911.489	16782
911.604	16668
911.718	16588
911.833	16542
911.947	16466
912.062	16337
912.176	16618
912.291	16554
912.405	16599
912.519	16771
912.633	16767
912.748	16592
912.862	16535
912.976	16398
913.09	16356
913.204	16356
913.318	16356
913.431	16428
913.545	16459
913.659	16421
913.772	16352
913.886	16192
914	16177
914.113	16291
914.226	16299
914.34	16238
914.453	16059
914.566	16253
914.68	16063
914.793	16017
914.906	15823
915.019	15766
915.132	15694
915.245	15831
915.358	15766
915.47	15838
915.583	15739
915.696	15778
915.809	15759
915.921	15922
916.034	15713
916.146	15663
916.259	15648
916.371	15736
916.483	15705
916.595	15671
916.708	15682
916.82	15622
916.932	15526
917.044	15511
917.156	15515
917.268	15359
917.38	15386
917.491	15325
917.603	15412
917.715	15530
917.826	15424
917.938	15302
918.049	15329
918.161	15291
918.272	15454
918.384	15466
918.495	15374
918.606	15085
918.717	15032
918.828	15173
918.939	15195
919.05	15028
919.161	15085
919.272	14876
919.383	15074
919.494	15188
919.604	15359
919.715	15123
919.826	14960
919.936	15070
920.047	15097
920.157	15154
920.267	15298
920.378	15070
920.488	15009
920.598	15161
920.708	15473
920.818	15207
920.928	15192
921.038	15355
921.148	15302
921.258	15047
921.368	15024
921.477	14876
921.587	14880
921.697	14602
921.806	14804
921.916	14720
922.025	14473
922.134	14476
922.244	14442
922.353	14526
922.462	14252
922.571	14294
922.68	14161
922.789	14001
922.898	14065
923.007	14039
923.116	14092
923.224	14119
923.333	14039
923.442	14039
923.55	13959
923.659	13860
923.767	13970
923.876	13704
923.984	13963
924.092	13803
924.201	13875
924.309	13750
924.417	13776
924.525	13788
924.633	13742
924.741	14785
924.849	13639
924.956	13727
925.064	13559
925.172	13453
925.279	13449
925.387	13540
925.494	13601
925.602	13502
925.709	13521
925.816	13377
925.924	13464
926.031	13559
926.138	13468
926.245	13426
926.352	13384
926.459	13491
926.566	13582
926.673	13381
926.779	13263
926.886	13263
926.993	13187
927.099	13069
927.206	13004
927.312	12962
927.419	13084
927.525	12985
927.631	13095
927.737	12970
927.843	12939
927.95	12825
928.056	12878
928.162	12924
928.267	12951
928.373	13540
928.479	12973
928.585	12662
928.69	12791
928.796	12798
928.901	12722
929.007	12642
929.112	12715
929.218	12650
929.323	12597
929.428	12627
929.533	12730
929.638	12597
929.743	12525
929.848	12566
929.953	12528
930.058	12422
930.163	12304
930.267	12319
930.372	12391
930.477	12148
930.581	12479
930.685	12228
930.79	12163
930.894	12213
930.998	12064
931.103	12224
931.207	11954
931.311	11805
931.415	11779
931.519	11532
931.623	11436
