Data from test_V78500241_2706.txt Node
Date: Fri Mar 25 16:00:32 CST 2022
User: usil
Spectrometer: V785-0024
Trigger mode: 0
Integration Time (sec): 4.000000E-1
Scans to average: 1
Nonlinearity correction enabled: false
Boxcar width: 0
Storing dark spectrum: false
XAxis mode: Wavelengths
Number of Pixels in Spectrum: 1024
>>>>>Begin Spectral Data<<<<<
801.071	28356
801.214	28276
801.356	28116
801.499	28090
801.641	28044
801.783	27979
801.926	28124
802.068	27979
802.211	28029
802.353	27823
802.496	27819
802.638	27797
802.78	27614
802.923	27682
803.065	27595
803.208	27458
803.35	27660
803.492	27789
803.635	27983
803.777	27755
803.919	27808
804.061	28200
804.204	28029
804.346	27781
804.488	27713
804.63	27926
804.773	27759
804.915	27930
805.057	27907
805.199	27873
805.341	27979
805.483	28048
805.626	28090
805.768	27907
805.91	27979
806.052	28124
806.194	27968
806.336	28131
806.478	28097
806.62	28055
806.762	28207
806.904	28379
807.046	28641
807.188	28474
807.33	28500
807.472	28478
807.614	28371
807.756	28401
807.898	28375
808.04	28284
808.182	28287
808.324	28386
808.465	28348
808.607	28618
808.749	28687
808.891	28736
809.033	28755
809.174	28805
809.316	28752
809.458	28706
809.6	28546
809.741	28949
809.883	28824
810.025	28976
810.166	28953
810.308	29071
810.45	28930
810.591	28984
810.733	28641
810.875	28615
811.016	28713
811.158	28580
811.299	28649
811.441	28862
811.582	28831
811.724	28683
811.865	28641
812.007	28744
812.148	28744
812.29	28607
812.431	28980
812.573	29060
812.714	29121
812.855	29113
812.997	29337
813.138	29558
813.279	29284
813.421	29303
813.562	29220
813.703	28965
813.845	28809
813.986	28649
814.127	28417
814.268	28462
814.41	28455
814.551	28314
814.692	28459
814.833	28322
814.974	28306
815.115	28455
815.256	28390
815.397	28424
815.539	28287
815.68	28173
815.821	28147
815.962	28249
816.103	28135
816.244	28048
816.385	27975
816.526	28002
816.666	27808
816.807	27732
816.948	27701
817.089	27949
817.23	27793
817.371	27895
817.512	27778
817.653	27705
817.793	27610
817.934	27648
818.075	27572
818.216	27759
818.356	27625
818.497	27523
818.638	27344
818.778	27568
818.919	27481
819.06	27523
819.2	27583
819.341	27534
819.481	27705
819.622	27812
819.762	27835
819.903	28006
820.043	27949
820.184	27808
820.324	27888
820.465	27911
820.605	27857
820.746	27759
820.886	27766
821.026	27675
821.167	27701
821.307	27987
821.447	27698
821.588	27682
821.728	27473
821.868	27313
822.008	27233
822.149	27222
822.289	27119
822.429	26971
822.569	26804
822.709	26891
822.849	26731
822.99	26632
823.13	26602
823.27	26560
823.41	26537
823.55	26320
823.69	26530
823.83	26663
823.97	26438
824.11	26377
824.25	26278
824.389	26214
824.529	26332
824.669	26355
824.809	26400
824.949	26469
825.089	26324
825.228	26476
825.368	26282
825.508	26210
825.648	26275
825.787	26294
825.927	26336
826.067	26347
826.206	26248
826.346	26381
826.485	26218
826.625	26130
826.765	26256
826.904	26278
827.044	25989
827.183	26020
827.323	25963
827.462	26077
827.601	25940
827.741	25887
827.88	25894
828.02	25791
828.159	25852
828.298	25944
828.437	26096
828.577	25932
828.716	26062
828.855	25871
828.994	25693
829.134	25693
829.273	25556
829.412	25658
829.551	25628
829.69	25685
829.829	25563
829.968	25632
830.107	25620
830.246	25655
830.385	25597
830.524	25472
830.663	25407
830.802	25331
830.941	25236
831.08	25164
831.219	25228
831.357	25339
831.496	25537
831.635	25304
831.774	25190
831.913	25050
832.051	24947
832.19	24871
832.329	24928
832.467	25031
832.606	24787
832.744	24852
832.883	24920
833.022	24802
833.16	24878
833.299	24932
833.437	24989
833.576	25053
833.714	24856
833.852	25008
833.991	25080
834.129	25107
834.267	24947
834.406	25004
834.544	25027
834.682	24878
834.821	24890
834.959	25160
835.097	24943
835.235	24856
835.373	24951
835.511	24996
835.65	24829
835.788	24848
835.926	24650
836.064	24502
836.202	24661
836.34	24730
836.478	24810
836.615	24776
836.753	24665
836.891	24795
837.029	24738
837.167	24616
837.305	24669
837.443	24810
837.58	24505
837.718	24692
837.856	24608
837.993	24536
838.131	24570
838.269	24437
838.406	24608
838.544	24315
838.681	24239
838.819	24209
838.956	24022
839.094	24091
839.231	24228
839.369	24232
839.506	24505
839.643	24323
839.781	24060
839.918	24155
840.055	24091
840.193	24152
840.33	24045
840.467	24079
840.604	24022
840.742	24194
840.879	23885
841.016	23958
841.153	23980
841.29	24098
841.427	24003
841.564	23984
841.701	23999
841.838	23992
841.975	23935
842.112	23855
842.249	23878
842.385	23691
842.522	23847
842.659	23840
842.796	23630
842.933	23627
843.069	23630
843.206	23798
843.343	23802
843.479	23710
843.616	23893
843.752	23531
843.889	23524
844.025	23745
844.162	23562
844.298	23646
844.435	23589
844.571	23478
844.708	23585
844.844	23733
844.98	23733
845.117	23570
845.253	23478
845.389	23376
845.525	23383
845.661	23322
845.798	23284
845.934	23288
846.07	23181
846.206	23261
846.342	23448
846.478	23242
846.614	23037
846.75	22934
846.886	22953
847.022	23109
847.158	23006
847.294	22976
847.429	23109
847.565	22995
847.701	23242
847.837	22782
847.972	22771
848.108	22812
848.244	22790
848.379	22618
848.515	22565
848.65	22569
848.786	22569
848.921	22577
849.057	22828
849.192	22736
849.328	22637
849.463	22588
849.598	22546
849.734	22622
849.869	22474
850.004	22459
850.14	22322
850.275	22341
850.41	22249
850.545	22238
850.68	22284
850.815	22382
850.95	22341
851.085	22668
851.22	22462
851.355	22371
851.49	22310
851.625	22333
851.76	22242
851.895	22204
852.03	22226
852.165	22371
852.299	22470
852.434	22512
852.569	22542
852.703	22466
852.838	22375
852.973	22402
853.107	22516
853.242	22280
853.376	22280
853.511	22090
853.645	22272
853.78	22204
853.914	22135
854.048	22211
854.183	22173
854.317	22230
854.451	22519
854.585	22192
854.72	22211
854.854	22295
854.988	22112
855.122	22131
855.256	22101
855.39	22158
855.524	22295
855.658	22207
855.792	22333
855.926	22188
856.06	22265
856.194	22147
856.327	22139
856.461	22124
856.595	22188
856.729	22093
856.862	22310
856.996	22265
857.13	22265
857.263	22306
857.397	22181
857.53	22276
857.664	22299
857.797	22211
857.931	22196
858.064	22257
858.197	22348
858.331	22257
858.464	22070
858.597	22074
858.731	22238
858.864	22105
858.997	22169
859.13	22086
859.263	22280
859.396	22261
859.529	22143
859.662	22200
859.795	22158
859.928	22139
860.061	22341
860.194	22257
860.327	22181
860.46	22166
860.592	22382
860.725	22424
860.858	22318
860.99	22207
861.123	22238
861.256	22116
861.388	22112
861.521	23006
861.653	22063
861.786	21934
861.918	22006
862.05	22105
862.183	22029
862.315	22059
862.447	22169
862.58	22131
862.712	21941
862.844	21846
862.976	21922
863.108	21968
863.24	22310
863.372	21884
863.504	21945
863.636	21766
863.768	21937
863.9	21892
864.032	21846
864.164	21907
864.296	21846
864.428	21983
864.559	21949
864.691	21827
864.823	21937
864.954	21846
865.086	21838
865.217	21694
865.349	21751
865.48	21724
865.612	21797
865.743	21930
865.875	21823
866.006	21690
866.137	21618
866.269	21854
866.4	21705
866.531	21694
866.662	21656
866.793	21622
866.924	21614
867.055	21743
867.186	21739
867.317	21720
867.448	21671
867.579	21682
867.71	21717
867.841	21557
867.972	21637
868.103	21724
868.233	21660
868.364	21732
868.495	21781
868.625	21953
868.756	21979
868.886	21823
869.017	21895
869.147	22124
869.278	22044
869.408	22044
869.539	21857
869.669	22147
869.799	21926
869.929	22116
870.06	22055
870.19	22211
870.32	22200
870.45	22226
870.58	22379
870.71	22455
870.84	22432
870.97	22322
871.1	22341
871.23	22466
871.36	22542
871.489	22424
871.619	22481
871.749	22508
871.879	22500
872.008	22683
872.138	22527
872.267	22580
872.397	22497
872.526	22443
872.656	22249
872.785	22344
872.915	22675
873.044	22573
873.173	22679
873.303	22542
873.432	22531
873.561	22656
873.69	22599
873.819	22611
873.948	22771
874.077	22679
874.206	22508
874.335	22675
874.464	22691
874.593	22763
874.722	22717
874.851	22725
874.979	22858
875.108	22850
875.237	22588
875.365	22664
875.494	22645
875.623	22873
875.751	22733
875.88	22812
876.008	22953
876.136	22965
876.265	23136
876.393	23311
876.521	23258
876.65	23208
876.778	23250
876.906	23181
877.034	23064
877.162	23060
877.29	22965
877.418	23166
877.546	23147
877.674	23124
877.802	23162
877.93	23086
878.058	23166
878.185	22999
878.313	23090
878.441	23189
878.568	22995
878.696	23033
878.824	23060
878.951	23322
879.079	23433
879.206	23356
879.333	23178
879.461	23151
879.588	23147
879.715	23200
879.842	23429
879.97	23258
880.097	23060
880.224	22995
880.351	23079
880.478	22786
880.605	22965
880.732	22976
880.859	23227
880.986	22965
881.112	22847
881.239	22694
881.366	22588
881.493	22607
881.619	22478
881.746	22546
881.872	22527
881.999	22508
882.125	22405
882.252	22512
882.378	22478
882.505	22599
882.631	22318
882.757	22162
882.883	22230
883.01	22276
883.136	22181
883.262	22006
883.388	22093
883.514	22154
883.64	22226
883.766	22067
883.892	21846
884.018	22036
884.143	22139
884.269	22158
884.395	21926
884.52	21903
884.646	21785
884.772	21812
884.897	21755
885.023	21759
885.148	21819
885.274	22017
885.399	21998
885.524	21911
885.65	21888
885.775	21884
885.9	21922
886.025	21987
886.15	21816
886.275	21842
886.4	21663
886.525	21823
886.65	21663
886.775	21842
886.9	21934
887.025	22029
887.149	21785
887.274	21614
887.399	21656
887.523	21564
887.648	21682
887.773	21447
887.897	21614
888.021	21633
888.146	21549
888.27	21564
888.395	21656
888.519	21549
888.643	21519
888.767	21679
888.891	21428
889.015	21329
889.139	21496
889.263	21374
889.387	21515
889.511	21648
889.635	21515
889.759	21272
889.883	21249
890.006	21355
890.13	21466
890.254	21165
890.377	21260
890.501	21142
890.624	21028
890.748	21165
890.871	21036
890.995	20933
891.118	20826
891.241	20872
891.364	20990
891.488	21096
891.611	20967
891.734	20998
891.857	20883
891.98	20963
892.103	20948
892.226	20914
892.349	20800
892.471	20731
892.594	20849
892.717	20967
892.839	20765
892.962	20769
893.085	20937
893.207	20853
893.33	20712
893.452	20746
893.575	20906
893.697	20834
893.819	21058
893.941	21051
894.064	20982
894.186	20746
894.308	20758
894.43	20895
894.552	20880
894.674	20834
894.796	20777
894.918	20750
895.04	20792
895.161	20899
895.283	20899
895.405	20727
895.526	20773
895.648	20701
895.769	20815
895.891	20921
896.012	20956
896.134	20944
896.255	20918
896.376	20899
896.498	20716
896.619	20864
896.74	20872
896.861	20864
896.982	21252
897.103	21233
897.224	21142
897.345	21089
897.466	20800
897.587	20979
897.708	21188
897.828	21039
897.949	20941
898.07	20937
898.19	20918
898.311	21062
898.431	21009
898.552	21055
898.672	21047
898.792	21074
898.913	21024
899.033	20910
899.153	20773
899.273	20697
899.393	20830
899.513	20811
899.633	20720
899.753	20807
899.873	20651
899.993	20792
900.113	20705
900.232	20724
900.352	20609
900.472	20571
900.591	20549
900.711	20431
900.83	20473
900.95	20621
901.069	20583
901.189	20385
901.308	20195
901.427	20187
901.546	20145
901.665	20130
901.784	20073
901.904	19871
902.023	19887
902.141	19704
902.26	19540
902.379	19719
902.498	19571
902.617	19563
902.735	19575
902.854	19548
902.973	19434
903.091	19247
903.21	19209
903.328	19190
903.446	19244
903.565	19057
903.683	19107
903.801	18989
903.919	19107
904.038	19012
904.156	18806
904.274	18981
904.392	18719
904.51	18738
904.627	18833
904.745	18867
904.863	18745
904.981	18570
905.098	18490
905.216	18391
905.334	18448
905.451	18574
905.569	18479
905.686	18532
905.803	18407
905.921	18300
906.038	18388
906.155	18361
906.272	18174
906.389	18353
906.506	18079
906.623	18015
906.74	18068
906.857	17920
906.974	17977
907.091	18087
907.208	18087
907.324	18106
907.441	17843
907.557	17752
907.674	17726
907.79	17798
907.907	17729
908.023	17748
908.139	17775
908.256	17615
908.372	17634
908.488	17497
908.604	17501
908.72	17356
908.836	17467
908.952	17379
909.068	17425
909.184	17520
909.3	17353
909.415	17429
909.531	17379
909.647	17181
909.762	17189
909.878	17117
909.993	17136
910.108	17189
910.224	17121
910.339	17025
910.454	17033
910.57	17037
910.685	16976
910.8	17117
910.915	17079
911.03	16984
911.145	16809
911.259	16824
911.374	16691
911.489	16660
911.604	16542
911.718	16466
911.833	16455
911.947	16451
912.062	16276
912.176	16512
912.291	16569
912.405	16417
912.519	16630
912.633	16603
912.748	16451
912.862	16413
912.976	16242
913.09	16310
913.204	16276
913.318	16329
913.431	16265
913.545	16295
913.659	16375
913.772	16173
913.886	16124
914	16211
914.113	16071
914.226	16162
914.34	16082
914.453	16036
914.566	16128
914.68	15964
914.793	15865
914.906	15819
915.019	15633
915.132	15614
915.245	15633
915.358	15797
915.47	15675
915.583	15618
915.696	15622
915.809	15755
915.921	15800
916.034	15591
916.146	15629
916.259	15572
916.371	15652
916.483	15580
916.595	15507
916.708	15580
916.82	15542
916.932	15553
917.044	15428
917.156	15500
917.268	15275
917.38	15313
917.491	15268
917.603	15386
917.715	15367
917.826	15420
917.938	15207
918.049	15013
918.161	15317
918.272	15416
918.384	15416
918.495	15245
918.606	15237
918.717	15104
918.828	15028
918.939	15184
919.05	14994
919.161	14971
919.272	14899
919.383	14937
919.494	15100
919.604	15249
919.715	15013
919.826	14971
919.936	14994
920.047	15043
920.157	14982
920.267	15313
920.378	15066
920.488	14960
920.598	15275
920.708	15348
920.818	15119
920.928	15093
921.038	15268
921.148	15188
921.258	14887
921.368	14826
921.477	14781
921.587	14689
921.697	14670
921.806	14686
921.916	14594
922.025	14480
922.134	14438
922.244	14290
922.353	14320
922.462	14244
922.571	14248
922.68	14096
922.789	14069
922.898	14088
923.007	13883
923.116	14100
923.224	14043
923.333	14024
923.442	13906
923.55	13875
923.659	13822
923.767	13921
923.876	13791
923.984	13868
924.092	13742
924.201	13719
924.309	13856
924.417	13681
924.525	13658
924.633	13700
924.741	14526
924.849	13483
924.956	13689
925.064	13407
925.172	13441
925.279	13426
925.387	13358
925.494	13521
925.602	13521
925.709	13480
925.816	13304
925.924	13270
926.031	13426
926.138	13282
926.245	13495
926.352	13217
926.459	13422
926.566	13453
926.673	13251
926.779	13156
926.886	13122
926.993	13091
927.099	12905
927.206	13019
927.312	12913
927.419	12989
927.525	12924
927.631	12947
927.737	12985
927.843	12886
927.95	12654
928.056	12760
928.162	12741
928.267	12802
928.373	13350
928.479	12894
928.585	12642
928.69	12749
928.796	12817
928.901	12627
929.007	12517
929.112	12646
929.218	12620
929.323	12452
929.428	12486
929.533	12593
929.638	12372
929.743	12426
929.848	12471
929.953	12422
930.058	12357
930.163	12178
930.267	12121
930.372	12315
930.477	12148
930.581	12285
930.685	12220
930.79	12022
930.894	12095
930.998	11874
931.103	12197
931.207	11847
931.311	11752
931.415	11646
931.519	11478
931.623	11383
