Data from test_V78500241_2044.txt Node
Date: Fri Mar 25 15:55:57 CST 2022
User: usil
Spectrometer: V785-0024
Trigger mode: 0
Integration Time (sec): 4.000000E-1
Scans to average: 1
Nonlinearity correction enabled: false
Boxcar width: 0
Storing dark spectrum: false
XAxis mode: Wavelengths
Number of Pixels in Spectrum: 1024
>>>>>Begin Spectral Data<<<<<
801.071	28820
801.214	28759
801.356	28504
801.499	28489
801.641	28356
801.783	28413
801.926	28436
802.068	28348
802.211	28344
802.353	28303
802.496	28078
802.638	28097
802.78	28086
802.923	28124
803.065	27975
803.208	28109
803.35	27869
803.492	28173
803.635	28291
803.777	28223
803.919	28314
804.061	28675
804.204	28371
804.346	28386
804.488	28128
804.63	28287
804.773	28325
804.915	28318
805.057	28443
805.199	28390
805.341	28432
805.483	28462
805.626	28512
805.768	28390
805.91	28401
806.052	28523
806.194	28284
806.336	28607
806.478	28561
806.62	28527
806.762	28611
806.904	28691
807.046	29037
807.188	28938
807.33	28930
807.472	29037
807.614	28877
807.756	28946
807.898	28824
808.04	28721
808.182	28862
808.324	28820
808.465	28911
808.607	29090
808.749	29212
808.891	29254
809.033	29395
809.174	29360
809.316	29170
809.458	29143
809.6	29326
809.741	29364
809.883	29375
810.025	29505
810.166	29505
810.308	29395
810.45	29448
810.591	29326
810.733	29170
810.875	29170
811.016	29197
811.158	29189
811.299	29334
811.441	29410
811.582	29345
811.724	29147
811.865	29216
812.007	29181
812.148	29193
812.29	29292
812.431	29349
812.573	29562
812.714	29752
812.855	29589
812.997	29809
813.138	29935
813.279	29866
813.421	29760
813.562	29684
813.703	29600
813.845	29467
813.986	29006
814.127	29067
814.268	28942
814.41	28896
814.551	28858
814.692	29128
814.833	28847
814.974	28862
815.115	28961
815.256	28649
815.397	28782
815.539	28877
815.68	28763
815.821	28550
815.962	28706
816.103	28668
816.244	28698
816.385	28470
816.526	28542
816.666	28443
816.807	28234
816.948	28310
817.089	28432
817.23	28226
817.371	28139
817.512	28147
817.653	28139
817.793	28200
817.934	28238
818.075	28284
818.216	28280
818.356	28128
818.497	27956
818.638	27987
818.778	27991
818.919	27903
819.06	28059
819.2	28048
819.341	28223
819.481	28162
819.622	28348
819.762	28538
819.903	28432
820.043	28436
820.184	28424
820.324	28428
820.465	28489
820.605	28272
820.746	28333
820.886	28238
821.026	28360
821.167	28131
821.307	28443
821.447	28200
821.588	28131
821.728	27937
821.868	27975
822.008	27739
822.149	27736
822.289	27576
822.429	27458
822.569	27572
822.709	27355
822.849	27279
822.99	27165
823.13	27146
823.27	27020
823.41	27051
823.55	26876
823.69	27150
823.83	27161
823.97	26967
824.11	26868
824.25	26906
824.389	26781
824.529	26933
824.669	26887
824.809	26948
824.949	26944
825.089	26982
825.228	26902
825.368	26712
825.508	26804
825.648	26781
825.787	26701
825.927	26895
826.067	26769
826.206	26743
826.346	26842
826.485	26838
826.625	26823
826.765	26948
826.904	26796
827.044	26575
827.183	26476
827.323	26457
827.462	26526
827.601	26640
827.741	26499
827.88	26381
828.02	26374
828.159	26560
828.298	26438
828.437	26476
828.577	26396
828.716	26533
828.855	26256
828.994	26164
829.134	26111
829.273	26313
829.412	26058
829.551	26130
829.69	26096
829.829	26187
829.968	26278
830.107	26168
830.246	26157
830.385	26187
830.524	26142
830.663	26043
830.802	25849
830.941	25776
831.08	25666
831.219	25803
831.357	25845
831.496	25966
831.635	25769
831.774	25750
831.913	25727
832.051	25476
832.19	25597
832.329	25548
832.467	25441
832.606	25487
832.744	25301
832.883	25510
833.022	25369
833.16	25358
833.299	25563
833.437	25460
833.576	25430
833.714	25453
833.852	25540
833.991	25643
834.129	25559
834.267	25438
834.406	25559
834.544	25609
834.682	25411
834.821	25441
834.959	25757
835.097	25445
835.235	25559
835.373	25434
835.511	25468
835.65	25373
835.788	25365
835.926	25278
836.064	25244
836.202	25133
836.34	25358
836.478	25289
836.615	25297
836.753	25316
836.891	25358
837.029	25285
837.167	25259
837.305	25202
837.443	25190
837.58	25278
837.718	25251
837.856	25080
837.993	25076
838.131	25297
838.269	25061
838.406	25164
838.544	24992
838.681	24829
838.819	24844
838.956	24597
839.094	24681
839.231	24719
839.369	24878
839.506	25004
839.643	24829
839.781	24570
839.918	24608
840.055	24700
840.193	24677
840.33	24620
840.467	24566
840.604	24536
840.742	24821
840.879	24407
841.016	24437
841.153	24342
841.29	24635
841.427	24570
841.564	24429
841.701	24525
841.838	24475
841.975	24448
842.112	24353
842.249	24350
842.385	24399
842.522	24441
842.659	24376
842.796	24190
842.933	24388
843.069	24201
843.206	24117
843.343	24296
843.479	24323
843.616	24304
843.752	24121
843.889	24015
844.025	24148
844.162	23984
844.298	24117
844.435	24098
844.571	23931
844.708	24110
844.844	24159
844.98	24102
845.117	24110
845.253	23999
845.389	23939
845.525	24003
845.661	23897
845.798	23764
845.934	23950
846.07	23741
846.206	23874
846.342	23885
846.478	23737
846.614	23528
846.75	23627
846.886	23433
847.022	23482
847.158	23486
847.294	23649
847.429	23482
847.565	23425
847.701	23783
847.837	23079
847.972	23200
848.108	23322
848.244	23292
848.379	23216
848.515	23105
848.65	22957
848.786	22896
848.921	23132
849.057	23254
849.192	23083
849.328	23242
849.463	23067
849.598	23075
849.734	22915
849.869	22877
850.004	22927
850.14	22820
850.275	22892
850.41	22755
850.545	22854
850.68	22839
850.815	22748
850.95	22786
851.085	23075
851.22	22999
851.355	22877
851.49	22820
851.625	22831
851.76	22812
851.895	22748
852.03	22744
852.165	22847
852.299	22889
852.434	22919
852.569	22869
852.703	22881
852.838	22778
852.973	22881
853.107	22968
853.242	22752
853.376	22634
853.511	22546
853.645	22630
853.78	22710
853.914	22679
854.048	22672
854.183	22660
854.317	22721
854.451	22828
854.585	22626
854.72	22675
854.854	22710
854.988	22569
855.122	22645
855.256	22615
855.39	22523
855.524	22710
855.658	22717
855.792	22755
855.926	22679
856.06	22767
856.194	22721
856.327	22710
856.461	22569
856.595	22660
856.729	22698
856.862	22862
856.996	22706
857.13	22702
857.263	22744
857.397	22744
857.53	22656
857.664	22694
857.797	22710
857.931	22664
858.064	22698
858.197	22679
858.331	22660
858.464	22592
858.597	22508
858.731	22615
858.864	22729
858.997	22588
859.13	22645
859.263	22641
859.396	22641
859.529	22698
859.662	22580
859.795	22660
859.928	22599
860.061	22771
860.194	22881
860.327	22649
860.46	22599
860.592	22721
860.725	22771
860.858	22820
860.99	22649
861.123	22565
861.256	22554
861.388	22622
861.521	23330
861.653	22656
861.786	22478
861.918	22531
862.05	22565
862.183	22622
862.315	22622
862.447	22630
862.58	22603
862.712	22447
862.844	22268
862.976	22443
863.108	22379
863.24	22900
863.372	22295
863.504	22341
863.636	22329
863.768	22390
863.9	22344
864.032	22207
864.164	22265
864.296	22379
864.428	22504
864.559	22424
864.691	22512
864.823	22421
864.954	22398
865.086	22303
865.217	22242
865.349	22139
865.48	22287
865.612	22242
865.743	22394
865.875	22246
866.006	22181
866.137	22261
866.269	22177
866.4	22204
866.531	22135
866.662	22078
866.793	22158
866.924	22215
867.055	22139
867.186	21998
867.317	22029
867.448	22017
867.579	22261
867.71	22067
867.841	22105
867.972	22177
868.103	22124
868.233	22154
868.364	22253
868.495	22200
868.625	22379
868.756	22470
868.886	22337
869.017	22421
869.147	22615
869.278	22497
869.408	22310
869.539	22459
869.669	22485
869.799	22314
869.929	22325
870.06	22436
870.19	22679
870.32	22672
870.45	22767
870.58	22824
870.71	22869
870.84	22930
870.97	22740
871.1	22828
871.23	22991
871.36	23060
871.489	23025
871.619	22862
871.749	22968
871.879	23041
872.008	23239
872.138	23041
872.267	23090
872.397	22976
872.526	22809
872.656	22915
872.785	22828
872.915	23029
873.044	23048
873.173	22896
873.303	23037
873.432	23147
873.561	23147
873.69	23102
873.819	23033
873.948	23117
874.077	23022
874.206	22858
874.335	23079
874.464	23132
874.593	23269
874.722	23216
874.851	23315
874.979	23299
875.108	23273
875.237	23083
875.365	23117
875.494	23284
875.623	23280
875.751	23147
875.88	23235
876.008	23429
876.136	23383
876.265	23608
876.393	23733
876.521	23691
876.65	23703
876.778	23627
876.906	23543
877.034	23414
877.162	23600
877.29	23531
877.418	23558
877.546	23615
877.674	23524
877.802	23570
877.93	23440
878.058	23459
878.185	23516
878.313	23531
878.441	23490
878.568	23353
878.696	23551
878.824	23535
878.951	23619
879.079	23733
879.206	23931
879.333	23745
879.461	23653
879.588	23665
879.715	23630
879.842	23866
879.97	23703
880.097	23436
880.224	23303
880.351	23395
880.478	23353
880.605	23345
880.732	23379
880.859	23653
880.986	23410
881.112	23360
881.239	23128
881.366	23162
881.493	23105
881.619	22980
881.746	23003
881.872	22828
881.999	22908
882.125	22793
882.252	22896
882.378	22831
882.505	22965
882.631	22687
882.757	22607
882.883	22748
883.01	22653
883.136	22569
883.262	22462
883.388	22481
883.514	22611
883.64	22706
883.766	22535
883.892	22318
884.018	22325
884.143	22443
884.269	22634
884.395	22367
884.52	22135
884.646	22226
884.772	22276
884.897	22215
885.023	22344
885.148	22261
885.274	22455
885.399	22405
885.524	22150
885.65	22299
885.775	22303
885.9	22215
886.025	22280
886.15	22363
886.275	22192
886.4	22177
886.525	22234
886.65	22032
886.775	22154
886.9	22413
887.025	22409
887.149	22375
887.274	22105
887.399	21945
887.523	21960
887.648	21922
887.773	21915
887.897	22063
888.021	22124
888.146	21903
888.27	22063
888.395	22128
888.519	21987
888.643	22082
888.767	22067
888.891	21930
889.015	21762
889.139	21842
889.263	21762
889.387	21861
889.511	22044
889.635	21934
889.759	21781
889.883	21728
890.006	21797
890.13	21907
890.254	21713
890.377	21873
890.501	21545
890.624	21610
890.748	21542
890.871	21310
890.995	21454
891.118	21272
891.241	21329
891.364	21397
891.488	21412
891.611	21272
891.734	21256
891.857	21344
891.98	21340
892.103	21393
892.226	21272
892.349	21332
892.471	20998
892.594	21173
892.717	21348
892.839	21207
892.962	21283
893.085	21222
893.207	21222
893.33	21108
893.452	21123
893.575	21264
893.697	21214
893.819	21370
893.941	21428
894.064	21420
894.186	21214
894.308	21150
894.43	21348
894.552	21382
894.674	21367
894.796	21131
894.918	21252
895.04	21146
895.161	21218
895.283	21260
895.405	21161
895.526	21252
895.648	21329
895.769	21298
895.891	21256
896.012	21310
896.134	21294
896.255	21302
896.376	21142
896.498	21226
896.619	21287
896.74	21214
896.861	21344
896.982	21606
897.103	21736
897.224	21496
897.345	21374
897.466	21351
897.587	21405
897.708	21500
897.828	21454
897.949	21336
898.07	21249
898.19	21252
898.311	21435
898.431	21397
898.552	21549
898.672	21492
898.792	21507
898.913	21386
899.033	21306
899.153	21188
899.273	21108
899.393	21096
899.513	21241
899.633	21123
899.753	21127
899.873	21062
899.993	21169
900.113	21043
900.232	21112
900.352	21020
900.472	20902
900.591	20750
900.711	20872
900.83	20861
900.95	21013
901.069	20998
901.189	20845
901.308	20651
901.427	20564
901.546	20522
901.665	20537
901.784	20541
901.904	20317
902.023	20218
902.141	19982
902.26	19955
902.379	19898
902.498	19978
902.617	19860
902.735	19989
902.854	19921
902.973	19909
903.091	19685
903.21	19616
903.328	19677
903.446	19586
903.565	19480
903.683	19445
903.801	19301
903.919	19358
904.038	19304
904.156	19148
904.274	19251
904.392	19171
904.51	19152
904.627	19156
904.745	19168
904.863	19202
904.981	18985
905.098	18787
905.216	18909
905.334	18890
905.451	18848
905.569	18798
905.686	18829
905.803	18844
905.921	18604
906.038	18817
906.155	18730
906.272	18460
906.389	18566
906.506	18315
906.623	18258
906.74	18319
906.857	18254
906.974	18357
907.091	18369
907.208	18513
907.324	18407
907.441	18235
907.557	18205
907.674	18110
907.79	17988
907.907	18087
908.023	18171
908.139	18102
908.256	17992
908.372	17908
908.488	17851
908.604	17893
908.72	17836
908.836	17722
908.952	17752
909.068	17904
909.184	17878
909.3	17786
909.415	17699
909.531	17828
909.647	17497
909.762	17467
909.878	17429
909.993	17410
910.108	17421
910.224	17448
910.339	17512
910.454	17284
910.57	17337
910.685	17265
910.8	17486
910.915	17436
911.03	17273
911.145	17109
911.259	17022
911.374	17006
911.489	16946
911.604	17041
911.718	16858
911.833	16729
911.947	16736
912.062	16641
912.176	16869
912.291	16911
912.405	16847
912.519	17006
912.633	17041
912.748	16824
912.862	16820
912.976	16592
913.09	16512
913.204	16531
913.318	16653
913.431	16649
913.545	16691
913.659	16672
913.772	16588
913.886	16447
914	16432
914.113	16500
914.226	16470
914.34	16436
914.453	16291
914.566	16489
914.68	16314
914.793	16173
914.906	16078
915.019	15945
915.132	15968
915.245	15903
915.358	16010
915.47	15979
915.583	15884
915.696	15975
915.809	16048
915.921	16017
916.034	15895
916.146	15888
916.259	15831
916.371	16002
916.483	15945
916.595	15724
916.708	15781
916.82	15865
916.932	15717
917.044	15671
917.156	15629
917.268	15633
917.38	15584
917.491	15580
917.603	15488
917.715	15766
917.826	15739
917.938	15515
918.049	15420
918.161	15492
918.272	15785
918.384	15694
918.495	15515
918.606	15378
918.717	15374
918.828	15424
918.939	15393
919.05	15207
919.161	15230
919.272	15138
919.383	15237
919.494	15424
919.604	15519
919.715	15260
919.826	15173
919.936	15279
920.047	15344
920.157	15298
920.267	15519
920.378	15291
920.488	15233
920.598	15462
920.708	15553
920.818	15412
920.928	15389
921.038	15561
921.148	15401
921.258	15146
921.368	15203
921.477	15001
921.587	14887
921.697	14895
921.806	15017
921.916	14861
922.025	14701
922.134	14644
922.244	14655
922.353	14594
922.462	14526
922.571	14427
922.68	14301
922.789	14275
922.898	14298
923.007	14221
923.116	14336
923.224	14282
923.333	14275
923.442	14176
923.55	14092
923.659	14020
923.767	14187
923.876	14138
923.984	14073
924.092	13932
924.201	13978
924.309	13967
924.417	13936
924.525	13963
924.633	13989
924.741	14788
924.849	13677
924.956	13807
925.064	13715
925.172	13624
925.279	13597
925.387	13681
925.494	13628
925.602	13814
925.709	13693
925.816	13670
925.924	13495
926.031	13616
926.138	13639
926.245	13605
926.352	13502
926.459	13727
926.566	13556
926.673	13430
926.779	13369
926.886	13403
926.993	13194
927.099	13251
927.206	13114
927.312	13133
927.419	13168
927.525	13164
927.631	13183
927.737	13072
927.843	12939
927.95	12932
928.056	12890
928.162	13088
928.267	13004
928.373	13662
928.479	12996
928.585	12795
928.69	12947
928.796	12909
928.901	12935
929.007	12745
929.112	12798
929.218	12745
929.323	12715
929.428	12692
929.533	12802
929.638	12597
929.743	12612
929.848	12738
929.953	12578
930.058	12547
930.163	12429
930.267	12376
930.372	12509
930.477	12353
930.581	12559
930.685	12448
930.79	12235
930.894	12292
930.998	12209
931.103	12365
931.207	11958
931.311	11935
931.415	11771
931.519	11592
931.623	11535
