Data from test_V78500241_2486.txt Node
Date: Fri Mar 25 15:59:01 CST 2022
User: usil
Spectrometer: V785-0024
Trigger mode: 0
Integration Time (sec): 4.000000E-1
Scans to average: 1
Nonlinearity correction enabled: false
Boxcar width: 0
Storing dark spectrum: false
XAxis mode: Wavelengths
Number of Pixels in Spectrum: 1024
>>>>>Begin Spectral Data<<<<<
801.071	28215
801.214	28181
801.356	27914
801.499	27884
801.641	27895
801.783	27819
801.926	27778
802.068	27732
802.211	27675
802.353	27717
802.496	27481
802.638	27424
802.78	27412
802.923	27416
803.065	27332
803.208	27458
803.35	27614
803.492	27523
803.635	27800
803.777	27667
803.919	27591
804.061	27869
804.204	27679
804.346	27564
804.488	27663
804.63	27694
804.773	27591
804.915	27701
805.057	27747
805.199	27770
805.341	27766
805.483	27873
805.626	27808
805.768	27789
805.91	27918
806.052	27808
806.194	27656
806.336	27949
806.478	27766
806.62	27698
806.762	28040
806.904	27968
807.046	28318
807.188	28200
807.33	28268
807.472	28310
807.614	28147
807.756	28154
807.898	28169
808.04	27922
808.182	28059
808.324	28131
808.465	28116
808.607	28322
808.749	28497
808.891	28592
809.033	28611
809.174	28554
809.316	28512
809.458	28367
809.6	28379
809.741	28546
809.883	28637
810.025	28740
810.166	28805
810.308	28972
810.45	28721
810.591	28603
810.733	28504
810.875	28565
811.016	28394
811.158	28417
811.299	28641
811.441	28645
811.582	28584
811.724	28569
811.865	28375
812.007	28398
812.148	28382
812.29	28428
812.431	28691
812.573	28767
812.714	28820
812.855	29033
812.997	29113
813.138	29170
813.279	29246
813.421	29067
813.562	28965
813.703	28835
813.845	28790
813.986	28413
814.127	28295
814.268	28181
814.41	28242
814.551	28090
814.692	28265
814.833	28021
814.974	28021
815.115	28124
815.256	28036
815.397	28032
815.539	28021
815.68	27968
815.821	27861
815.962	27888
816.103	27934
816.244	27808
816.385	27869
816.526	27785
816.666	27492
816.807	27553
816.948	27572
817.089	27504
817.23	27530
817.371	27633
817.512	27515
817.653	27454
817.793	27359
817.934	27420
818.075	27363
818.216	27473
818.356	27317
818.497	27325
818.638	27138
818.778	27188
818.919	27047
819.06	27291
819.2	27477
819.341	27469
819.481	27367
819.622	27603
819.762	27679
819.903	27736
820.043	27671
820.184	27686
820.324	27762
820.465	27553
820.605	27629
820.746	27561
820.886	27473
821.026	27538
821.167	27526
821.307	27553
821.447	27477
821.588	27359
821.728	27180
821.868	27032
822.008	27001
822.149	26990
822.289	26940
822.429	26579
822.569	26648
822.709	26598
822.849	26507
822.99	26667
823.13	26499
823.27	26412
823.41	26237
823.55	26031
823.69	26309
823.83	26237
823.97	26145
824.11	26084
824.25	26035
824.389	26161
824.529	26248
824.669	26065
824.809	26088
824.949	26046
825.089	26149
825.228	26275
825.368	25959
825.508	25944
825.648	25978
825.787	25917
825.927	25875
826.067	26035
826.206	26092
826.346	25955
826.485	25902
826.625	25963
826.765	26054
826.904	25966
827.044	25727
827.183	25734
827.323	25624
827.462	25769
827.601	25814
827.741	25575
827.88	25696
828.02	25533
828.159	25620
828.298	25685
828.437	25727
828.577	25578
828.716	25761
828.855	25552
828.994	25369
829.134	25308
829.273	25388
829.412	25339
829.551	25384
829.69	25331
829.829	25274
829.968	25358
830.107	25377
830.246	25350
830.385	25232
830.524	25206
830.663	25293
830.802	25080
830.941	24932
831.08	24905
831.219	25072
831.357	25008
831.496	25194
831.635	24962
831.774	24787
831.913	24894
832.051	24856
832.19	24768
832.329	24684
832.467	24688
832.606	24673
832.744	24517
832.883	24673
833.022	24661
833.16	24597
833.299	24684
833.437	24669
833.576	24692
833.714	24673
833.852	24681
833.991	24646
834.129	24711
834.267	24776
834.406	24791
834.544	24631
834.682	24696
834.821	24768
834.959	24829
835.097	24684
835.235	24738
835.373	24681
835.511	24703
835.65	24544
835.788	24483
835.926	24380
836.064	24361
836.202	24403
836.34	24589
836.478	24532
836.615	24448
836.753	24502
836.891	24536
837.029	24505
837.167	24494
837.305	24388
837.443	24467
837.58	24376
837.718	24384
837.856	24251
837.993	24388
838.131	24311
838.269	24171
838.406	24346
838.544	24091
838.681	23958
838.819	23958
838.956	23832
839.094	23718
839.231	23783
839.369	23935
839.506	24163
839.643	24178
839.781	23809
839.918	23764
840.055	23718
840.193	23817
840.33	23722
840.467	23767
840.604	23908
840.742	24038
840.879	23562
841.016	23653
841.153	23554
841.29	23870
841.427	23790
841.564	23657
841.701	23790
841.838	23646
841.975	23657
842.112	23596
842.249	23604
842.385	23531
842.522	23760
842.659	23623
842.796	23482
842.933	23436
843.069	23387
843.206	23379
843.343	23490
843.479	23444
843.616	23444
843.752	23345
843.889	23322
844.025	23372
844.162	23303
844.298	23254
844.435	23345
844.571	23132
844.708	23341
844.844	23455
844.98	23379
845.117	23277
845.253	23147
845.389	23105
845.525	23033
845.661	23102
845.798	22889
845.934	23056
846.07	22995
846.206	23121
846.342	23128
846.478	22965
846.614	22881
846.75	22580
846.886	22649
847.022	22778
847.158	22740
847.294	22793
847.429	22801
847.565	22736
847.701	22957
847.837	22531
847.972	22413
848.108	22523
848.244	22474
848.379	22455
848.515	22306
848.65	22352
848.786	22322
848.921	22337
849.057	22325
849.192	22398
849.328	22337
849.463	22375
849.598	22329
849.734	22105
849.869	22147
850.004	22090
850.14	22093
850.275	22181
850.41	21918
850.545	22051
850.68	22010
850.815	22082
850.95	22097
851.085	22154
851.22	22211
851.355	22063
851.49	22032
851.625	21964
851.76	22067
851.895	21987
852.03	22063
852.165	21956
852.299	22090
852.434	22192
852.569	22139
852.703	22017
852.838	22166
852.973	22223
853.107	22154
853.242	22074
853.376	21907
853.511	21781
853.645	21800
853.78	21941
853.914	21911
854.048	21778
854.183	21804
854.317	21987
854.451	22055
854.585	21937
854.72	21831
854.854	21964
854.988	21800
855.122	21915
855.256	21827
855.39	21861
855.524	22013
855.658	22032
855.792	21937
855.926	21934
856.06	21915
856.194	21945
856.327	21934
856.461	21873
856.595	21934
856.729	21850
856.862	22074
856.996	21941
857.13	21983
857.263	22029
857.397	21888
857.53	21880
857.664	21842
857.797	21983
857.931	22059
858.064	22013
858.197	22021
858.331	21930
858.464	21972
858.597	21766
858.731	21812
858.864	21846
858.997	21964
859.13	21926
859.263	21922
859.396	21975
859.529	21812
859.662	21915
859.795	21846
859.928	21907
860.061	22032
860.194	22147
860.327	21850
860.46	22025
860.592	22017
860.725	21979
860.858	22185
860.99	21888
861.123	21907
861.256	21789
861.388	21941
861.521	22637
861.653	21793
861.786	21823
861.918	21789
862.05	21682
862.183	21778
862.315	21800
862.447	22025
862.58	21705
862.712	21622
862.844	21534
862.976	21698
863.108	21603
863.24	21888
863.372	21523
863.504	21530
863.636	21572
863.768	21644
863.9	21538
864.032	21545
864.164	21511
864.296	21572
864.428	21743
864.559	21526
864.691	21694
864.823	21599
864.954	21580
865.086	21618
865.217	21564
865.349	21401
865.48	21549
865.612	21538
865.743	21652
865.875	21564
866.006	21412
866.137	21507
866.269	21443
866.4	21435
866.531	21450
866.662	21405
866.793	21408
866.924	21370
867.055	21389
867.186	21408
867.317	21348
867.448	21252
867.579	21374
867.71	21291
867.841	21340
867.972	21374
868.103	21443
868.233	21469
868.364	21416
868.495	21496
868.625	21610
868.756	21682
868.886	21656
869.017	21701
869.147	21770
869.278	21717
869.408	21675
869.539	21622
869.669	21819
869.799	21759
869.929	21728
870.06	21713
870.19	22059
870.32	21835
870.45	22010
870.58	21956
870.71	22124
870.84	22234
870.97	22032
871.1	22063
871.23	22215
871.36	22265
871.489	22082
871.619	22303
871.749	22204
871.879	22166
872.008	22428
872.138	22295
872.267	22325
872.397	22226
872.526	22135
872.656	22158
872.785	22177
872.915	22325
873.044	22493
873.173	22204
873.303	22337
873.432	22386
873.561	22470
873.69	22306
873.819	22341
873.948	22428
874.077	22310
874.206	22253
874.335	22394
874.464	22360
874.593	22630
874.722	22615
874.851	22497
874.979	22656
875.108	22626
875.237	22535
875.365	22466
875.494	22535
875.623	22641
875.751	22405
875.88	22588
876.008	22683
876.136	22615
876.265	22919
876.393	23075
876.521	23037
876.65	22965
876.778	22847
876.906	22843
877.034	22984
877.162	22930
877.29	22816
877.418	22896
877.546	22991
877.674	22961
877.802	22850
877.93	22889
878.058	22831
878.185	22767
878.313	22843
878.441	22915
878.568	22771
878.696	22816
878.824	22881
878.951	23014
879.079	23006
879.206	23006
879.333	23086
879.461	23003
879.588	22889
879.715	22965
879.842	23071
879.97	22991
880.097	22831
880.224	22744
880.351	22755
880.478	22672
880.605	22694
880.732	22675
880.859	22938
880.986	22645
881.112	22679
881.239	22485
881.366	22485
881.493	22440
881.619	22379
881.746	22268
881.872	22265
881.999	22200
882.125	22200
882.252	22405
882.378	22196
882.505	22402
882.631	22291
882.757	22078
882.883	21945
883.01	22036
883.136	21968
883.262	21831
883.388	21861
883.514	22036
883.64	21991
883.766	21888
883.892	21675
884.018	21823
884.143	21865
884.269	21895
884.395	21690
884.52	21545
884.646	21633
884.772	21587
884.897	21363
885.023	21679
885.148	21679
885.274	21724
885.399	21675
885.524	21504
885.65	21622
885.775	21633
885.9	21477
886.025	21724
886.15	21690
886.275	21557
886.4	21523
886.525	21553
886.65	21469
886.775	21511
886.9	21698
887.025	21804
887.149	21542
887.274	21325
887.399	21298
887.523	21382
887.648	21230
887.773	21329
887.897	21431
888.021	21355
888.146	21313
888.27	21325
888.395	21374
888.519	21405
888.643	21355
888.767	21397
888.891	21214
889.015	21100
889.139	21214
889.263	21123
889.387	21199
889.511	21420
889.635	21283
889.759	21127
889.883	20967
890.006	21142
890.13	21321
890.254	21142
890.377	21047
890.501	20941
890.624	20880
890.748	20906
890.871	20807
890.995	20686
891.118	20632
891.241	20667
891.364	20697
891.488	20914
891.611	20678
891.734	20682
891.857	20735
891.98	20880
892.103	20632
892.226	20644
892.349	20682
892.471	20431
892.594	20731
892.717	20644
892.839	20492
892.962	20590
893.085	20613
893.207	20594
893.33	20518
893.452	20533
893.575	20678
893.697	20545
893.819	20880
893.941	20781
894.064	20659
894.186	20575
894.308	20492
894.43	20674
894.552	20781
894.674	20682
894.796	20594
894.918	20541
895.04	20473
895.161	20629
895.283	20743
895.405	20492
895.526	20625
895.648	20473
895.769	20629
895.891	20686
896.012	20686
896.134	20640
896.255	20659
896.376	20568
896.498	20564
896.619	20609
896.74	20526
896.861	20773
896.982	20925
897.103	21051
897.224	20960
897.345	20864
897.466	20743
897.587	20830
897.708	20979
897.828	20895
897.949	20804
898.07	20640
898.19	20773
898.311	20998
898.431	20796
898.552	20788
898.672	20853
898.792	20834
898.913	20811
899.033	20754
899.153	20659
899.273	20518
899.393	20598
899.513	20526
899.633	20537
899.753	20507
899.873	20507
899.993	20492
900.113	20518
900.232	20446
900.352	20351
900.472	20385
900.591	20434
900.711	20374
900.83	20218
900.95	20476
901.069	20347
901.189	20206
901.308	19951
901.427	19936
901.546	19967
901.665	19959
901.784	19875
901.904	19811
902.023	19712
902.141	19552
902.26	19552
902.379	19586
902.498	19396
902.617	19438
902.735	19457
902.854	19384
902.973	19255
903.091	19061
903.21	19110
903.328	19076
903.446	18951
903.565	18916
903.683	18875
903.801	18753
903.919	18821
904.038	18890
904.156	18722
904.274	18749
904.392	18585
904.51	18597
904.627	18578
904.745	18627
904.863	18631
904.981	18407
905.098	18361
905.216	18372
905.334	18281
905.451	18342
905.569	18273
905.686	18391
905.803	18292
905.921	18034
906.038	18220
906.155	18167
906.272	18011
906.389	18003
906.506	17897
906.623	17904
906.74	17729
906.857	17790
906.974	17710
907.091	17813
907.208	17961
907.324	17866
907.441	17695
907.557	17543
907.674	17592
907.79	17471
907.907	17539
908.023	17532
908.139	17573
908.256	17452
908.372	17520
908.488	17398
908.604	17277
908.72	17193
908.836	17360
908.952	17235
909.068	17296
909.184	17280
909.3	17261
909.415	17197
909.531	17223
909.647	17006
909.762	16904
909.878	16923
909.993	17033
910.108	16953
910.224	16972
910.339	16980
910.454	16839
910.57	16774
910.685	16641
910.8	16934
910.915	16885
911.03	16805
911.145	16596
911.259	16432
911.374	16603
911.489	16421
911.604	16402
911.718	16287
911.833	16306
911.947	16287
912.062	16051
912.176	16272
912.291	16314
912.405	16257
912.519	16459
912.633	16428
912.748	16303
912.862	16257
912.976	16158
913.09	16055
913.204	16139
913.318	16086
913.431	16196
913.545	16268
913.659	16257
913.772	16051
913.886	15930
914	15884
914.113	15972
914.226	15884
914.34	15953
914.453	15739
914.566	15953
914.68	15842
914.793	15759
914.906	15663
915.019	15515
915.132	15439
915.245	15488
915.358	15580
915.47	15526
915.583	15542
915.696	15515
915.809	15591
915.921	15534
916.034	15466
916.146	15348
916.259	15340
916.371	15587
916.483	15454
916.595	15214
916.708	15389
916.82	15329
916.932	15264
917.044	15237
917.156	15252
917.268	15123
917.38	15161
917.491	15195
917.603	15119
917.715	15203
917.826	15252
917.938	15112
918.049	14902
918.161	15058
918.272	15222
918.384	15218
918.495	15043
918.606	14910
918.717	14701
918.828	14944
918.939	14895
919.05	14758
919.161	14967
919.272	14716
919.383	14735
919.494	14902
919.604	15074
919.715	14887
919.826	14792
919.936	14758
920.047	14960
920.157	14792
920.267	15009
920.378	14902
920.488	14895
920.598	14990
920.708	15116
920.818	14998
920.928	14876
921.038	15180
921.148	14952
921.258	14769
921.368	14765
921.477	14537
921.587	14583
921.697	14495
921.806	14579
921.916	14396
922.025	14256
922.134	14183
922.244	14138
922.353	14252
922.462	14084
922.571	13989
922.68	13830
922.789	13849
922.898	13765
923.007	13822
923.116	13811
923.224	13906
923.333	13913
923.442	13662
923.55	13658
923.659	13677
923.767	13712
923.876	13636
923.984	13670
924.092	13548
924.201	13639
924.309	13597
924.417	13533
924.525	13521
924.633	13457
924.741	14191
924.849	13320
924.956	13487
925.064	13362
925.172	13149
925.279	13228
925.387	13266
925.494	13225
925.602	13259
925.709	13301
925.816	13118
925.924	13232
926.031	13198
926.138	13209
926.245	13137
926.352	13034
926.459	13114
926.566	13346
926.673	13099
926.779	13042
926.886	12947
926.993	12909
927.099	12776
927.206	12726
927.312	12776
927.419	12837
927.525	12738
927.631	12852
927.737	12692
927.843	12688
927.95	12593
928.056	12536
928.162	12574
928.267	12650
928.373	13282
928.479	12669
928.585	12582
928.69	12563
928.796	12532
928.901	12517
929.007	12350
929.112	12418
929.218	12361
929.323	12403
929.428	12292
929.533	12429
929.638	12232
929.743	12296
929.848	12330
929.953	12391
930.058	12270
930.163	11973
930.267	12041
930.372	12098
930.477	12060
930.581	12205
930.685	12068
930.79	11904
930.894	12003
930.998	11897
931.103	12003
931.207	11661
931.311	11554
931.415	11406
931.519	11284
931.623	11273
