Data from test_V78500241_2220.txt Node
Date: Fri Mar 25 15:57:10 CST 2022
User: usil
Spectrometer: V785-0024
Trigger mode: 0
Integration Time (sec): 4.000000E-1
Scans to average: 1
Nonlinearity correction enabled: false
Boxcar width: 0
Storing dark spectrum: false
XAxis mode: Wavelengths
Number of Pixels in Spectrum: 1024
>>>>>Begin Spectral Data<<<<<
801.071	29079
801.214	29079
801.356	28828
801.499	28778
801.641	28702
801.783	28596
801.926	28748
802.068	28721
802.211	28660
802.353	28584
802.496	28523
802.638	28424
802.78	28401
802.923	28253
803.065	28139
803.208	28318
803.35	28367
803.492	28580
803.635	28622
803.777	28424
803.919	28588
804.061	29014
804.204	28615
804.346	28538
804.488	28542
804.63	28622
804.773	28432
804.915	28626
805.057	28736
805.199	28546
805.341	28694
805.483	28656
805.626	28828
805.768	28828
805.91	28736
806.052	28862
806.194	28702
806.336	28885
806.478	28820
806.62	28847
806.762	28965
806.904	28957
807.046	29269
807.188	29235
807.33	29132
807.472	29379
807.614	29212
807.756	29193
807.898	29067
808.04	29075
808.182	28873
808.324	29098
808.465	29223
808.607	29303
808.749	29531
808.891	29467
809.033	29710
809.174	29634
809.316	29474
809.458	29566
809.6	29493
809.741	29581
809.883	29653
810.025	29745
810.166	29828
810.308	29798
810.45	29798
810.591	29756
810.733	29505
810.875	29463
811.016	29429
811.158	29353
811.299	29707
811.441	29646
811.582	29623
811.724	29592
811.865	29353
812.007	29573
812.148	29535
812.29	29630
812.431	29756
812.573	29882
812.714	29961
812.855	30110
812.997	30205
813.138	30235
813.279	30152
813.421	30011
813.562	29980
813.703	29904
813.845	29722
813.986	29509
814.127	29322
814.268	29299
814.41	29227
814.551	29113
814.692	29307
814.833	29254
814.974	29132
815.115	29200
815.256	29075
815.397	29212
815.539	29174
815.68	29071
815.821	29056
815.962	29014
816.103	29041
816.244	29147
816.385	28843
816.526	28812
816.666	28755
816.807	28546
816.948	28656
817.089	28569
817.23	28577
817.371	28557
817.512	28717
817.653	28561
817.793	28603
817.934	28390
818.075	28535
818.216	28611
818.356	28557
818.497	28356
818.638	28348
818.778	28352
818.919	28379
819.06	28531
819.2	28588
819.341	28497
819.481	28626
819.622	28710
819.762	28987
819.903	28949
820.043	28759
820.184	28854
820.324	28615
820.465	28588
820.605	28683
820.746	28763
820.886	28516
821.026	28778
821.167	28596
821.307	28691
821.447	28687
821.588	28561
821.728	28432
821.868	28253
822.008	28074
822.149	28082
822.289	28002
822.429	27732
822.569	27739
822.709	27728
822.849	27652
822.99	27633
823.13	27412
823.27	27519
823.41	27306
823.55	27279
823.69	27370
823.83	27500
823.97	27344
824.11	27070
824.25	27180
824.389	27150
824.529	27241
824.669	27237
824.809	27336
824.949	27329
825.089	27272
825.228	27264
825.368	27176
825.508	26990
825.648	27108
825.787	27142
825.927	27249
826.067	27001
826.206	27032
826.346	27142
826.485	27066
826.625	26990
826.765	27195
826.904	27138
827.044	26800
827.183	26891
827.323	26773
827.462	26998
827.601	26788
827.741	26956
827.88	26921
828.02	26689
828.159	26804
828.298	26796
828.437	26975
828.577	26651
828.716	26910
828.855	26804
828.994	26545
829.134	26492
829.273	26606
829.412	26537
829.551	26385
829.69	26579
829.829	26476
829.968	26621
830.107	26537
830.246	26552
830.385	26412
830.524	26355
830.663	26298
830.802	26332
830.941	26187
831.08	26016
831.219	26278
831.357	26157
831.496	26328
831.635	26164
831.774	25909
831.913	26058
832.051	25951
832.19	25932
832.329	25860
832.467	25803
832.606	25620
832.744	25890
832.883	25803
833.022	25670
833.16	25776
833.299	25746
833.437	25776
833.576	25887
833.714	25871
833.852	25898
833.991	25951
834.129	25856
834.267	25818
834.406	25666
834.544	25887
834.682	25883
834.821	25860
834.959	25936
835.097	25738
835.235	25982
835.373	25852
835.511	25883
835.65	25670
835.788	25613
835.926	25556
836.064	25460
836.202	25434
836.34	25643
836.478	25643
836.615	25719
836.753	25712
836.891	25689
837.029	25696
837.167	25605
837.305	25575
837.443	25472
837.58	25533
837.718	25438
837.856	25597
837.993	25533
838.131	25514
838.269	25369
838.406	25350
838.544	25388
838.681	25198
838.819	25145
838.956	24840
839.094	24913
839.231	24894
839.369	25194
839.506	25354
839.643	25114
839.781	24909
839.918	24901
840.055	24985
840.193	24821
840.33	24894
840.467	24935
840.604	24840
840.742	24947
840.879	24654
841.016	24814
841.153	24890
841.29	24856
841.427	24768
841.564	24783
841.701	24833
841.838	24848
841.975	24684
842.112	24738
842.249	24635
842.385	24604
842.522	24646
842.659	24783
842.796	24570
842.933	24601
843.069	24559
843.206	24490
843.343	24593
843.479	24601
843.616	24593
843.752	24346
843.889	24281
844.025	24475
844.162	24437
844.298	24544
844.435	24407
844.571	24266
844.708	24410
844.844	24464
844.98	24452
845.117	24490
845.253	24311
845.389	24414
845.525	24308
845.661	24133
845.798	24091
845.934	24155
846.07	24167
846.206	24144
846.342	24098
846.478	24178
846.614	23969
846.75	23737
846.886	23752
847.022	23863
847.158	23840
847.294	23649
847.429	23691
847.565	23908
847.701	24034
847.837	23642
847.972	23448
848.108	23585
848.244	23619
848.379	23356
848.515	23520
848.65	23421
848.786	23410
848.921	23334
849.057	23467
849.192	23570
849.328	23364
849.463	23356
849.598	23455
849.734	23341
849.869	23083
850.004	23117
850.14	23170
850.275	23246
850.41	23056
850.545	23113
850.68	23140
850.815	23223
850.95	23204
851.085	23337
851.22	23128
851.355	23166
851.49	23132
851.625	23048
851.76	23151
851.895	23147
852.03	23064
852.165	23064
852.299	23204
852.434	23223
852.569	23212
852.703	23121
852.838	23132
852.973	23318
853.107	23296
853.242	23162
853.376	23018
853.511	22911
853.645	22927
853.78	23136
853.914	23048
854.048	22942
854.183	22900
854.317	22934
854.451	23250
854.585	22892
854.72	23022
854.854	23136
854.988	22991
855.122	22946
855.256	22942
855.39	22881
855.524	23048
855.658	22953
855.792	23006
855.926	23006
856.06	23052
856.194	23143
856.327	22991
856.461	22908
856.595	23006
856.729	23029
856.862	23147
856.996	22930
857.13	22938
857.263	23109
857.397	23124
857.53	22934
857.664	23003
857.797	22961
857.931	23033
858.064	22946
858.197	23136
858.331	22980
858.464	22927
858.597	22892
858.731	23102
858.864	22877
858.997	22927
859.13	23006
859.263	23178
859.396	23067
859.529	22869
859.662	22946
859.795	23018
859.928	23014
860.061	23109
860.194	23216
860.327	23064
860.46	23025
860.592	23033
860.725	23265
860.858	23178
860.99	23037
861.123	23003
861.256	23018
861.388	23041
861.521	23646
861.653	22877
861.786	22713
861.918	22866
862.05	22892
862.183	22938
862.315	22900
862.447	23064
862.58	22892
862.712	22778
862.844	22672
862.976	22824
863.108	22771
863.24	23273
863.372	22641
863.504	22588
863.636	22729
863.768	22752
863.9	22672
864.032	22668
864.164	22713
864.296	22710
864.428	22843
864.559	22725
864.691	22740
864.823	22626
864.954	22630
865.086	22729
865.217	22656
865.349	22409
865.48	22679
865.612	22523
865.743	22649
865.875	22557
866.006	22554
866.137	22504
866.269	22519
866.4	22569
866.531	22493
866.662	22440
866.793	22569
866.924	22561
867.055	22428
867.186	22500
867.317	22546
867.448	22436
867.579	22497
867.71	22344
867.841	22440
867.972	22466
868.103	22523
868.233	22478
868.364	22447
868.495	22611
868.625	22885
868.756	22774
868.886	22660
869.017	22713
869.147	22862
869.278	22763
869.408	22790
869.539	22717
869.669	22793
869.799	22702
869.929	22847
870.06	22889
870.19	23025
870.32	23037
870.45	23060
870.58	23102
870.71	23223
870.84	23193
870.97	23200
871.1	23044
871.23	23345
871.36	23242
871.489	23235
871.619	23242
871.749	23322
871.879	23292
872.008	23395
872.138	23398
872.267	23254
872.397	23208
872.526	23113
872.656	23170
872.785	23200
872.915	23368
873.044	23433
873.173	23353
873.303	23345
873.432	23322
873.561	23455
873.69	23395
873.819	23383
873.948	23440
874.077	23414
874.206	23273
874.335	23303
874.464	23318
874.593	23570
874.722	23581
874.851	23414
874.979	23516
875.108	23524
875.237	23528
875.365	23531
875.494	23512
875.623	23531
875.751	23497
875.88	23558
876.008	23478
876.136	23729
876.265	23904
876.393	24083
876.521	24064
876.65	24098
876.778	23809
876.906	23863
877.034	23920
877.162	23851
877.29	23885
877.418	23931
877.546	23942
877.674	23805
877.802	23824
877.93	23904
878.058	23684
878.185	23695
878.313	23882
878.441	23931
878.568	23581
878.696	23821
878.824	23916
878.951	23904
879.079	24083
879.206	24197
879.333	23973
879.461	23939
879.588	24026
879.715	24015
879.842	24152
879.97	24041
880.097	23741
880.224	23718
880.351	23802
880.478	23531
880.605	23657
880.732	23726
880.859	23969
880.986	23779
881.112	23695
881.239	23554
881.366	23372
881.493	23337
881.619	23341
881.746	23174
881.872	23212
881.999	23197
882.125	23242
882.252	23189
882.378	23284
882.505	23398
882.631	23136
882.757	22938
882.883	22949
883.01	23029
883.136	22854
883.262	22774
883.388	22831
883.514	22984
883.64	22980
883.766	22710
883.892	22713
884.018	22687
884.143	22763
884.269	22961
884.395	22569
884.52	22596
884.646	22546
884.772	22630
884.897	22303
885.023	22596
885.148	22535
885.274	22744
885.399	22706
885.524	22634
885.65	22618
885.775	22478
885.9	22478
886.025	22603
886.15	22755
886.275	22504
886.4	22523
886.525	22497
886.65	22516
886.775	22390
886.9	22607
887.025	22603
887.149	22428
887.274	22295
887.399	22242
887.523	22200
887.648	22310
887.773	22219
887.897	22341
888.021	22348
888.146	22177
888.27	22413
888.395	22554
888.519	22314
888.643	22200
888.767	22352
888.891	22234
889.015	22169
889.139	22188
889.263	21998
889.387	22158
889.511	22219
889.635	22249
889.759	22055
889.883	22112
890.006	22059
890.13	22162
890.254	21949
890.377	21934
890.501	21831
890.624	21819
890.748	21857
890.871	21717
890.995	21644
891.118	21542
891.241	21663
891.364	21675
891.488	21789
891.611	21633
891.734	21599
891.857	21667
891.98	21591
892.103	21618
892.226	21610
892.349	21576
892.471	21340
892.594	21549
892.717	21576
892.839	21412
892.962	21534
893.085	21515
893.207	21488
893.33	21355
893.452	21389
893.575	21603
893.697	21519
893.819	21591
893.941	21671
894.064	21633
894.186	21526
894.308	21469
894.43	21523
894.552	21656
894.674	21622
894.796	21382
894.918	21378
895.04	21458
895.161	21614
895.283	21466
895.405	21443
895.526	21534
895.648	21477
895.769	21454
895.891	21595
896.012	21595
896.134	21561
896.255	21450
896.376	21408
896.498	21458
896.619	21382
896.74	21454
896.861	21553
896.982	21766
897.103	21850
897.224	21766
897.345	21720
897.466	21534
897.587	21724
897.708	21778
897.828	21679
897.949	21629
898.07	21542
898.19	21572
898.311	21667
898.431	21603
898.552	21625
898.672	21660
898.792	21850
898.913	21686
899.033	21488
899.153	21389
899.273	21310
899.393	21450
899.513	21313
899.633	21412
899.753	21408
899.873	21256
899.993	21488
900.113	21435
900.232	21283
900.352	21199
900.472	21176
900.591	21176
900.711	21249
900.83	20971
900.95	21275
901.069	21218
901.189	21165
901.308	20864
901.427	20815
901.546	20785
901.665	20678
901.784	20750
901.904	20552
902.023	20473
902.141	20221
902.26	20313
902.379	20374
902.498	20225
902.617	20157
902.735	20263
902.854	20218
902.973	20054
903.091	19864
903.21	19822
903.328	19906
903.446	19772
903.565	19708
903.683	19601
903.801	19510
903.919	19620
904.038	19624
904.156	19502
904.274	19510
904.392	19415
904.51	19343
904.627	19419
904.745	19441
904.863	19430
904.981	19148
905.098	19171
905.216	19114
905.334	19164
905.451	19042
905.569	19053
905.686	19069
905.803	19072
905.921	18928
906.038	19023
906.155	18772
906.272	18833
906.389	18810
906.506	18665
906.623	18730
906.74	18612
906.857	18464
906.974	18563
907.091	18684
907.208	18741
907.324	18627
907.441	18585
907.557	18399
907.674	18342
907.79	18243
907.907	18353
908.023	18338
908.139	18380
908.256	18239
908.372	18289
908.488	18186
908.604	18125
908.72	17988
908.836	17980
908.952	17965
909.068	17961
909.184	18106
909.3	18041
909.415	18098
909.531	17916
909.647	17767
909.762	17646
909.878	17760
909.993	17748
910.108	17695
910.224	17615
910.339	17695
910.454	17630
910.57	17505
910.685	17436
910.8	17729
910.915	17668
911.03	17436
911.145	17395
911.259	17227
911.374	17231
911.489	17250
911.604	17204
911.718	17060
911.833	17079
911.947	16889
912.062	16797
912.176	17124
912.291	17136
912.405	16972
912.519	17181
912.633	17204
912.748	17090
912.862	16938
912.976	16850
913.09	16725
913.204	16850
913.318	16748
913.431	16957
913.545	16839
913.659	16942
913.772	16835
913.886	16713
914	16641
914.113	16691
914.226	16752
914.34	16653
914.453	16436
914.566	16611
914.68	16470
914.793	16493
914.906	16291
915.019	16246
915.132	16150
915.245	16166
915.358	16242
915.47	16109
915.583	16173
915.696	16249
915.809	16215
915.921	16333
916.034	16124
916.146	16067
916.259	16010
916.371	16101
916.483	16120
916.595	16093
916.708	15972
916.82	15975
916.932	15930
917.044	15953
917.156	15884
917.268	15762
917.38	15781
917.491	15751
917.603	15842
917.715	15907
917.826	15918
917.938	15755
918.049	15564
918.161	15633
918.272	15854
918.384	15816
918.495	15831
918.606	15553
918.717	15523
918.828	15519
918.939	15591
919.05	15515
919.161	15466
919.272	15401
919.383	15420
919.494	15591
919.604	15690
919.715	15515
919.826	15454
919.936	15462
920.047	15564
920.157	15500
920.267	15663
920.378	15435
920.488	15424
920.598	15675
920.708	15785
920.818	15633
920.928	15618
921.038	15762
921.148	15698
921.258	15458
921.368	15374
921.477	15241
921.587	15226
921.697	15013
921.806	15100
921.916	15127
922.025	14960
922.134	14777
922.244	14735
922.353	14788
922.462	14655
922.571	14640
922.68	14495
922.789	14347
922.898	14590
923.007	14343
923.116	14457
923.224	14541
923.333	14343
923.442	14343
923.55	14237
923.659	14256
923.767	14309
923.876	14172
923.984	14282
924.092	14107
924.201	14229
924.309	14092
924.417	14195
924.525	14115
924.633	14035
924.741	14765
924.849	13864
924.956	13974
925.064	13940
925.172	13727
925.279	13864
925.387	13814
925.494	13898
925.602	13947
925.709	13860
925.816	13742
925.924	13750
926.031	13811
926.138	13772
926.245	13811
926.352	13677
926.459	13841
926.566	13788
926.673	13658
926.779	13537
926.886	13502
926.993	13460
927.099	13343
927.206	13331
927.312	13312
927.419	13384
927.525	13278
927.631	13373
927.737	13213
927.843	13118
927.95	13091
928.056	13164
928.162	13183
928.267	13190
928.373	13814
928.479	13179
928.585	13038
928.69	13046
928.796	13114
928.901	13027
929.007	12817
929.112	13012
929.218	12951
929.323	12863
929.428	12859
929.533	13015
929.638	12791
929.743	12776
929.848	12909
929.953	12791
930.058	12783
930.163	12532
930.267	12513
930.372	12745
930.477	12570
930.581	12669
930.685	12574
930.79	12346
930.894	12456
930.998	12350
931.103	12563
931.207	12152
931.311	12026
931.415	11942
931.519	11798
931.623	11756
