Data from test_V78500241_3022.txt Node
Date: Fri Mar 25 16:02:44 CST 2022
User: usil
Spectrometer: V785-0024
Trigger mode: 0
Integration Time (sec): 4.000000E-1
Scans to average: 1
Nonlinearity correction enabled: false
Boxcar width: 0
Storing dark spectrum: false
XAxis mode: Wavelengths
Number of Pixels in Spectrum: 1024
>>>>>Begin Spectral Data<<<<<
801.071	28869
801.214	28919
801.356	28478
801.499	28546
801.641	28485
801.783	28310
801.926	28360
802.068	28394
802.211	28455
802.353	28207
802.496	28044
802.638	28059
802.78	27983
802.923	28021
803.065	28036
803.208	28158
803.35	28086
803.492	28128
803.635	28352
803.777	28246
803.919	28230
804.061	28569
804.204	28352
804.346	28249
804.488	28341
804.63	28303
804.773	28196
804.915	28360
805.057	28474
805.199	28341
805.341	28470
805.483	28542
805.626	28394
805.768	28314
805.91	28531
806.052	28550
806.194	28455
806.336	28615
806.478	28447
806.62	28485
806.762	28485
806.904	28793
807.046	28938
807.188	28793
807.33	28831
807.472	28976
807.614	28843
807.756	29006
807.898	28771
808.04	28877
808.182	28687
808.324	28774
808.465	28923
808.607	28957
808.749	29067
808.891	29292
809.033	29208
809.174	29296
809.316	29113
809.458	29178
809.6	29178
809.741	29318
809.883	29227
810.025	29463
810.166	29497
810.308	29410
810.45	29395
810.591	29337
810.733	29227
810.875	29212
811.016	29075
811.158	29109
811.299	29280
811.441	29307
811.582	29356
811.724	29128
811.865	29029
812.007	29273
812.148	29265
812.29	29208
812.431	29231
812.573	29520
812.714	29710
812.855	29646
812.997	29684
813.138	29897
813.279	29733
813.421	29672
813.562	29649
813.703	29528
813.845	29345
813.986	29109
814.127	29162
814.268	28949
814.41	28843
814.551	28896
814.692	28877
814.833	28835
814.974	28778
815.115	28816
815.256	28797
815.397	28702
815.539	28752
815.68	28603
815.821	28634
815.962	28767
816.103	28778
816.244	28596
816.385	28481
816.526	28291
816.666	28341
816.807	28154
816.948	28261
817.089	28375
817.23	28386
817.371	28200
817.512	28169
817.653	28051
817.793	27994
817.934	28204
818.075	28139
818.216	28207
818.356	28204
818.497	28200
818.638	27846
818.778	27888
818.919	27850
819.06	27994
819.2	28196
819.341	28299
819.481	28173
819.622	28219
819.762	28538
819.903	28554
820.043	28363
820.184	28367
820.324	28356
820.465	28440
820.605	28291
820.746	28306
820.886	28314
821.026	28253
821.167	28303
821.307	28314
821.447	28280
821.588	28029
821.728	27975
821.868	27838
822.008	27736
822.149	27739
822.289	27549
822.429	27287
822.569	27332
822.709	27580
822.849	27176
822.99	27279
823.13	27135
823.27	27100
823.41	27093
823.55	26895
823.69	26971
823.83	27123
823.97	26914
824.11	26849
824.25	26762
824.389	26864
824.529	27062
824.669	26937
824.809	26956
824.949	26800
825.089	26963
825.228	26975
825.368	26556
825.508	26708
825.648	26781
825.787	26800
825.927	26785
826.067	26648
826.206	26716
826.346	26746
826.485	26804
826.625	26590
826.765	26781
826.904	26750
827.044	26484
827.183	26606
827.323	26526
827.462	26556
827.601	26362
827.741	26400
827.88	26503
828.02	26320
828.159	26438
828.298	26457
828.437	26442
828.577	26453
828.716	26469
828.855	26309
828.994	26142
829.134	26027
829.273	26126
829.412	26176
829.551	26134
829.69	26092
829.829	26164
829.968	26271
830.107	26183
830.246	26244
830.385	25993
830.524	26092
830.663	25875
830.802	25890
830.941	25666
831.08	25822
831.219	25890
831.357	25811
831.496	26073
831.635	25822
831.774	25670
831.913	25647
832.051	25556
832.19	25487
832.329	25544
832.467	25510
832.606	25392
832.744	25483
832.883	25293
833.022	25346
833.16	25434
833.299	25445
833.437	25464
833.576	25449
833.714	25422
833.852	25582
833.991	25544
834.129	25457
834.267	25582
834.406	25582
834.544	25479
834.682	25552
834.821	25491
834.959	25639
835.097	25289
835.235	25594
835.373	25445
835.511	25449
835.65	25274
835.788	25206
835.926	25373
836.064	25171
836.202	25118
836.34	25259
836.478	25289
836.615	25266
836.753	25327
836.891	25320
837.029	25316
837.167	25247
837.305	25148
837.443	25137
837.58	25110
837.718	25297
837.856	25145
837.993	24954
838.131	25152
838.269	24977
838.406	25095
838.544	24996
838.681	24753
838.819	24802
838.956	24608
839.094	24738
839.231	24589
839.369	24642
839.506	24943
839.643	24905
839.781	24582
839.918	24448
840.055	24585
840.193	24593
840.33	24494
840.467	24464
840.604	24593
840.742	24696
840.879	24232
841.016	24475
841.153	24266
841.29	24540
841.427	24490
841.564	24513
841.701	24559
841.838	24429
841.975	24475
842.112	24460
842.249	24300
842.385	24216
842.522	24574
842.659	24247
842.796	24224
842.933	24194
843.069	24129
843.206	24159
843.343	24140
843.479	24281
843.616	24296
843.752	24167
843.889	24038
844.025	24224
844.162	23958
844.298	24091
844.435	24007
844.571	23999
844.708	24072
844.844	24182
844.98	24281
845.117	24091
845.253	23961
845.389	23767
845.525	24049
845.661	23794
845.798	23737
845.934	23741
846.07	23649
846.206	23840
846.342	23916
846.478	23741
846.614	23486
846.75	23398
846.886	23501
847.022	23497
847.158	23490
847.294	23372
847.429	23611
847.565	23429
847.701	23729
847.837	23193
847.972	23181
848.108	23231
848.244	23258
848.379	22991
848.515	23010
848.65	22934
848.786	23178
848.921	23086
849.057	23200
849.192	23029
849.328	23159
849.463	23128
849.598	23128
849.734	22984
849.869	22809
850.004	22786
850.14	22752
850.275	22744
850.41	22664
850.545	22923
850.68	22767
850.815	22881
850.95	22839
851.085	22976
851.22	22995
851.355	22820
851.49	22782
851.625	22828
851.76	22847
851.895	22706
852.03	22790
852.165	22839
852.299	22904
852.434	22843
852.569	22892
852.703	22892
852.838	22816
852.973	22904
853.107	22790
853.242	22850
853.376	22698
853.511	22500
853.645	22485
853.78	22729
853.914	22687
854.048	22641
854.183	22557
854.317	22717
854.451	22957
854.585	22729
854.72	22596
854.854	22641
854.988	22626
855.122	22672
855.256	22580
855.39	22599
855.524	22698
855.658	22698
855.792	22889
855.926	22599
856.06	22698
856.194	22797
856.327	22584
856.461	22569
856.595	22637
856.729	22596
856.862	22858
856.996	22706
857.13	22656
857.263	22809
857.397	22755
857.53	22596
857.664	22527
857.797	22740
857.931	22763
858.064	22607
858.197	22637
858.331	22683
858.464	22557
858.597	22504
858.731	22596
858.864	22626
858.997	22516
859.13	22755
859.263	22713
859.396	22710
859.529	22733
859.662	22538
859.795	22565
859.928	22615
860.061	22801
860.194	22881
860.327	22637
860.46	22580
860.592	22767
860.725	22824
860.858	22710
860.99	22668
861.123	22584
861.256	22557
861.388	22656
861.521	23482
861.653	22588
861.786	22424
861.918	22382
862.05	22443
862.183	22500
862.315	22557
862.447	22763
862.58	22565
862.712	22333
862.844	22268
862.976	22459
863.108	22500
863.24	22626
863.372	22344
863.504	22306
863.636	22291
863.768	22363
863.9	22348
864.032	22421
864.164	22333
864.296	22291
864.428	22424
864.559	22356
864.691	22341
864.823	22318
864.954	22405
865.086	22344
865.217	22242
865.349	22242
865.48	22265
865.612	22257
865.743	22424
865.875	22325
866.006	22158
866.137	22272
866.269	22242
866.4	22246
866.531	22112
866.662	22135
866.793	22131
866.924	22196
867.055	22173
867.186	22166
867.317	22147
867.448	22120
867.579	22143
867.71	22051
867.841	22101
867.972	22219
868.103	21998
868.233	22219
868.364	22154
868.495	22192
868.625	22382
868.756	22535
868.886	22356
869.017	22398
869.147	22466
869.278	22504
869.408	22443
869.539	22424
869.669	22538
869.799	22478
869.929	22615
870.06	22603
870.19	22698
870.32	22691
870.45	22767
870.58	22778
870.71	23006
870.84	22900
870.97	22877
871.1	22790
871.23	22999
871.36	23197
871.489	22980
871.619	22900
871.749	23083
871.879	23086
872.008	23227
872.138	23056
872.267	23064
872.397	22866
872.526	22839
872.656	22919
872.785	22961
872.915	22976
873.044	23140
873.173	23113
873.303	23014
873.432	23102
873.561	23258
873.69	23075
873.819	23090
873.948	23117
874.077	23132
874.206	23132
874.335	23003
874.464	23181
874.593	23277
874.722	23227
874.851	23349
874.979	23273
875.108	23360
875.237	23204
875.365	23242
875.494	23261
875.623	23341
875.751	23349
875.88	23292
876.008	23417
876.136	23356
876.265	23577
876.393	23874
876.521	23691
876.65	23756
876.778	23684
876.906	23406
877.034	23676
877.162	23589
877.29	23509
877.418	23642
877.546	23623
877.674	23577
877.802	23592
877.93	23623
878.058	23497
878.185	23478
878.313	23554
878.441	23676
878.568	23440
878.696	23421
878.824	23535
878.951	23745
879.079	23630
879.206	23855
879.333	23748
879.461	23771
879.588	23733
879.715	23828
879.842	23741
879.97	23748
880.097	23501
880.224	23406
880.351	23535
880.478	23539
880.605	23452
880.732	23303
880.859	23695
880.986	23581
881.112	23429
881.239	23334
881.366	23056
881.493	23022
881.619	23044
881.746	22968
881.872	22961
881.999	22930
882.125	22965
882.252	22877
882.378	22889
882.505	23014
882.631	22729
882.757	22713
882.883	22603
883.01	22516
883.136	22634
883.262	22512
883.388	22557
883.514	22672
883.64	22626
883.766	22466
883.892	22451
884.018	22398
884.143	22554
884.269	22630
884.395	22436
884.52	22059
884.646	22272
884.772	22105
884.897	22150
885.023	22371
885.148	22306
885.274	22459
885.399	22341
885.524	22409
885.65	22261
885.775	22352
885.9	22253
886.025	22428
886.15	22398
886.275	22280
886.4	22242
886.525	22173
886.65	22207
886.775	22139
886.9	22413
887.025	22417
887.149	22188
887.274	22101
887.399	22097
887.523	21972
887.648	21880
887.773	21945
887.897	22040
888.021	22131
888.146	21994
888.27	22166
888.395	22139
888.519	22070
888.643	22044
888.767	22017
888.891	21960
889.015	21857
889.139	21964
889.263	21899
889.387	21835
889.511	22013
889.635	22036
889.759	21770
889.883	21709
890.006	21888
890.13	21876
890.254	21720
890.377	21728
890.501	21686
890.624	21530
890.748	21633
890.871	21443
890.995	21317
891.118	21310
891.241	21405
891.364	21332
891.488	21428
891.611	21462
891.734	21363
891.857	21389
891.98	21378
892.103	21412
892.226	21412
892.349	21306
892.471	21070
892.594	21252
892.717	21283
892.839	21237
892.962	21249
893.085	21374
893.207	21279
893.33	21032
893.452	21249
893.575	21302
893.697	21408
893.819	21329
893.941	21340
894.064	21515
894.186	21298
894.308	21161
894.43	21268
894.552	21344
894.674	21458
894.796	21154
894.918	21127
895.04	21203
895.161	21355
895.283	21275
895.405	21268
895.526	21199
895.648	21214
895.769	21226
895.891	21218
896.012	21382
896.134	21340
896.255	21237
896.376	21264
896.498	21291
896.619	21233
896.74	21283
896.861	21279
896.982	21587
897.103	21614
897.224	21515
897.345	21450
897.466	21355
897.587	21355
897.708	21477
897.828	21450
897.949	21458
898.07	21180
898.19	21397
898.311	21386
898.431	21340
898.552	21317
898.672	21454
898.792	21477
898.913	21351
899.033	21306
899.153	21329
899.273	21157
899.393	21214
899.513	21256
899.633	21043
899.753	21184
899.873	21047
899.993	21260
900.113	21055
900.232	21188
900.352	20998
900.472	21085
900.591	20948
900.711	20929
900.83	20891
900.95	20838
901.069	20963
901.189	20823
901.308	20511
901.427	20514
901.546	20484
901.665	20613
901.784	20511
901.904	20275
902.023	20252
902.141	20088
902.26	20008
902.379	20020
902.498	20096
902.617	20024
902.735	20062
902.854	19970
902.973	19917
903.091	19807
903.21	19643
903.328	19620
903.446	19529
903.565	19468
903.683	19396
903.801	19388
903.919	19400
904.038	19396
904.156	19152
904.274	19225
904.392	19206
904.51	19213
904.627	19107
904.745	19244
904.863	19145
904.981	19004
905.098	18859
905.216	18935
905.334	18962
905.451	18856
905.569	18837
905.686	19004
905.803	18821
905.921	18608
906.038	18757
906.155	18593
906.272	18681
906.389	18566
906.506	18346
906.623	18460
906.74	18395
906.857	18353
906.974	18201
907.091	18441
907.208	18486
907.324	18365
907.441	18254
907.557	18152
907.674	18224
907.79	18079
907.907	18159
908.023	18136
908.139	18079
908.256	18022
908.372	18038
908.488	17999
908.604	17813
908.72	17824
908.836	17802
908.952	17779
909.068	17859
909.184	17897
909.3	17851
909.415	17847
909.531	17779
909.647	17573
909.762	17501
909.878	17448
909.993	17474
910.108	17391
910.224	17311
910.339	17429
910.454	17455
910.57	17280
910.685	17197
910.8	17490
910.915	17505
911.03	17311
911.145	17117
911.259	17090
911.374	16991
911.489	16965
911.604	16972
911.718	16835
911.833	16843
911.947	16717
912.062	16771
912.176	16691
912.291	16915
912.405	16927
912.519	17060
912.633	17029
912.748	16866
912.862	16774
912.976	16683
913.09	16512
913.204	16558
913.318	16653
913.431	16698
913.545	16767
913.659	16752
913.772	16615
913.886	16424
914	16470
914.113	16535
914.226	16443
914.34	16478
914.453	16215
914.566	16481
914.68	16253
914.793	16265
914.906	16078
915.019	15960
915.132	15991
915.245	15899
915.358	16093
915.47	15960
915.583	16010
915.696	15975
915.809	16021
915.921	16124
916.034	15949
916.146	15899
916.259	15846
916.371	15911
916.483	15949
916.595	15751
916.708	15762
916.82	15770
916.932	15747
917.044	15766
917.156	15679
917.268	15717
917.38	15671
917.491	15667
917.603	15671
917.715	15679
917.826	15709
917.938	15580
918.049	15515
918.161	15587
918.272	15633
918.384	15641
918.495	15420
918.606	15393
918.717	15332
918.828	15355
918.939	15355
919.05	15222
919.161	15412
919.272	15127
919.383	15192
919.494	15496
919.604	15530
919.715	15405
919.826	15207
919.936	15279
920.047	15367
920.157	15264
920.267	15416
920.378	15355
920.488	15321
920.598	15439
920.708	15477
920.818	15481
920.928	15336
921.038	15648
921.148	15542
921.258	15207
921.368	15127
921.477	15081
921.587	14998
921.697	14880
921.806	14998
921.916	14815
922.025	14667
922.134	14689
922.244	14682
922.353	14648
922.462	14552
922.571	14469
922.68	14267
922.789	14263
922.898	14412
923.007	14183
923.116	14301
923.224	14229
923.333	14275
923.442	14195
923.55	14111
923.659	14172
923.767	14088
923.876	14069
923.984	14008
924.092	14020
924.201	14012
924.309	14073
924.417	13913
924.525	14050
924.633	13986
924.741	14720
924.849	13636
924.956	13906
925.064	13772
925.172	13605
925.279	13601
925.387	13681
925.494	13632
925.602	13788
925.709	13655
925.816	13559
925.924	13575
926.031	13681
926.138	13548
926.245	13643
926.352	13510
926.459	13674
926.566	13674
926.673	13525
926.779	13339
926.886	13449
926.993	13297
927.099	13251
927.206	13160
927.312	13095
927.419	13285
927.525	13194
927.631	13156
927.737	13107
927.843	13038
927.95	12970
928.056	13088
928.162	13023
928.267	13015
928.373	13651
928.479	13076
928.585	12844
928.69	13053
928.796	12973
928.901	12886
929.007	12783
929.112	12859
929.218	12856
929.323	12741
929.428	12658
929.533	12821
929.638	12654
929.743	12715
929.848	12673
929.953	12654
930.058	12566
930.163	12399
930.267	12395
930.372	12517
930.477	12338
930.581	12616
930.685	12407
930.79	12247
930.894	12281
930.998	12186
931.103	12251
931.207	12030
931.311	11958
931.415	11798
931.519	11672
931.623	11619
