Data from test_V78500241_2471.txt Node
Date: Fri Mar 25 15:58:55 CST 2022
User: usil
Spectrometer: V785-0024
Trigger mode: 0
Integration Time (sec): 4.000000E-1
Scans to average: 1
Nonlinearity correction enabled: false
Boxcar width: 0
Storing dark spectrum: false
XAxis mode: Wavelengths
Number of Pixels in Spectrum: 1024
>>>>>Begin Spectral Data<<<<<
801.071	28173
801.214	28200
801.356	27983
801.499	28055
801.641	27804
801.783	27823
801.926	27960
802.068	27732
802.211	27816
802.353	27660
802.496	27412
802.638	27583
802.78	27538
802.923	27287
803.065	27340
803.208	27420
803.35	27485
803.492	27622
803.635	27667
803.777	27622
803.919	27732
804.061	27945
804.204	27774
804.346	27599
804.488	27641
804.63	27698
804.773	27732
804.915	27816
805.057	27918
805.199	27671
805.341	27816
805.483	27705
805.626	27831
805.768	27766
805.91	27892
806.052	27907
806.194	27800
806.336	27975
806.478	27766
806.62	27842
806.762	27918
806.904	28116
807.046	28333
807.188	28234
807.33	28303
807.472	28188
807.614	28135
807.756	28143
807.898	28234
808.04	28029
808.182	27972
808.324	28162
808.465	28204
808.607	28367
808.749	28500
808.891	28516
809.033	28820
809.174	28550
809.316	28417
809.458	28447
809.6	28538
809.741	28634
809.883	28622
810.025	28828
810.166	28911
810.308	28736
810.45	28782
810.591	28679
810.733	28512
810.875	28538
811.016	28436
811.158	28421
811.299	28550
811.441	28611
811.582	28649
811.724	28451
811.865	28432
812.007	28523
812.148	28413
812.29	28626
812.431	28630
812.573	28828
812.714	28862
812.855	29033
812.997	29052
813.138	29307
813.279	29121
813.421	28999
813.562	28828
813.703	28805
813.845	28771
813.986	28508
814.127	28230
814.268	28303
814.41	28318
814.551	28131
814.692	28226
814.833	28276
814.974	28124
815.115	28185
815.256	28059
815.397	28044
815.539	27949
815.68	27968
815.821	28006
815.962	28044
816.103	27835
816.244	27975
816.385	27808
816.526	27698
816.666	27603
816.807	27511
816.948	27473
817.089	27549
817.23	27443
817.371	27583
817.512	27458
817.653	27427
817.793	27454
817.934	27492
818.075	27595
818.216	27507
818.356	27313
818.497	27321
818.638	27157
818.778	27268
818.919	27268
819.06	27279
819.2	27420
819.341	27469
819.481	27416
819.622	27698
819.762	27831
819.903	27759
820.043	27728
820.184	27709
820.324	27629
820.465	27698
820.605	27618
820.746	27641
820.886	27549
821.026	27523
821.167	27500
821.307	27625
821.447	27595
821.588	27389
821.728	27336
821.868	27081
822.008	26963
822.149	27013
822.289	26773
822.429	26754
822.569	26613
822.709	26701
822.849	26522
822.99	26317
823.13	26328
823.27	26419
823.41	26214
823.55	26111
823.69	26286
823.83	26355
823.97	26347
824.11	26069
824.25	26062
824.389	26050
824.529	26180
824.669	26164
824.809	26130
824.949	26286
825.089	26237
825.228	26225
825.368	25925
825.508	25940
825.648	26126
825.787	26012
825.927	26058
826.067	25970
826.206	25963
826.346	25974
826.485	26035
826.625	26001
826.765	26039
826.904	26005
827.044	25784
827.183	25723
827.323	25719
827.462	25814
827.601	25742
827.741	25628
827.88	25898
828.02	25567
828.159	25556
828.298	25772
828.437	25681
828.577	25597
828.716	25689
828.855	25658
828.994	25464
829.134	25259
829.273	25354
829.412	25289
829.551	25343
829.69	25346
829.829	25369
829.968	25483
830.107	25365
830.246	25270
830.385	25331
830.524	25236
830.663	25145
830.802	25179
830.941	25023
831.08	25012
831.219	25031
831.357	25034
831.496	25156
831.635	24947
831.774	25019
831.913	24760
832.051	24798
832.19	24821
832.329	24681
832.467	24772
832.606	24661
832.744	24623
832.883	24753
833.022	24646
833.16	24696
833.299	24753
833.437	24635
833.576	24711
833.714	24776
833.852	24806
833.991	24646
834.129	24863
834.267	24806
834.406	24719
834.544	24715
834.682	24681
834.821	24757
834.959	24920
835.097	24597
835.235	24696
835.373	24764
835.511	24673
835.65	24479
835.788	24593
835.926	24330
836.064	24372
836.202	24578
836.34	24612
836.478	24570
836.615	24517
836.753	24574
836.891	24703
837.029	24509
837.167	24505
837.305	24437
837.443	24388
837.58	24289
837.718	24532
837.856	24517
837.993	24346
838.131	24300
838.269	24262
838.406	24224
838.544	24125
838.681	24209
838.819	23996
838.956	23821
839.094	23752
839.231	23996
839.369	24022
839.506	24334
839.643	24121
839.781	23847
839.918	23832
840.055	23802
840.193	23904
840.33	23767
840.467	23798
840.604	23775
840.742	23992
840.879	23585
841.016	23790
841.153	23703
841.29	23809
841.427	23653
841.564	23893
841.701	23695
841.838	23729
841.975	23695
842.112	23722
842.249	23501
842.385	23376
842.522	23824
842.659	23672
842.796	23490
842.933	23558
843.069	23531
843.206	23493
843.343	23596
843.479	23551
843.616	23608
843.752	23360
843.889	23292
844.025	23501
844.162	23254
844.298	23383
844.435	23296
844.571	23299
844.708	23239
844.844	23535
844.98	23383
845.117	23414
845.253	23220
845.389	23174
845.525	23124
845.661	23147
845.798	23105
845.934	23090
846.07	22991
846.206	23052
846.342	23155
846.478	23029
846.614	22790
846.75	22877
846.886	22786
847.022	22816
847.158	22748
847.294	22733
847.429	22740
847.565	22740
847.701	22976
847.837	22497
847.972	22561
848.108	22584
848.244	22535
848.379	22242
848.515	22459
848.65	22173
848.786	22299
848.921	22265
849.057	22398
849.192	22356
849.328	22447
849.463	22356
849.598	22325
849.734	22185
849.869	22200
850.004	22226
850.14	22196
850.275	22067
850.41	22078
850.545	22017
850.68	22093
850.815	22211
850.95	22181
851.085	22280
851.22	22249
851.355	22150
851.49	22128
851.625	22105
851.76	22120
851.895	21945
852.03	22036
852.165	22070
852.299	22013
852.434	22074
852.569	22086
852.703	22074
852.838	22135
852.973	22287
853.107	22226
853.242	22055
853.376	21899
853.511	21846
853.645	21846
853.78	22211
853.914	22044
854.048	21895
854.183	21873
854.317	21979
854.451	22109
854.585	21972
854.72	21838
854.854	21941
854.988	21884
855.122	21930
855.256	21800
855.39	21915
855.524	21960
855.658	21934
855.792	22006
855.926	21926
856.06	22036
856.194	21884
856.327	21823
856.461	21854
856.595	21930
856.729	21895
856.862	22131
856.996	21918
857.13	22120
857.263	22029
857.397	22074
857.53	21949
857.664	21979
857.797	22021
857.931	21983
858.064	21998
858.197	21979
858.331	21956
858.464	21915
858.597	21884
858.731	21755
858.864	21785
858.997	21816
859.13	21930
859.263	21880
859.396	22105
859.529	21895
859.662	21918
859.795	21922
859.928	22021
860.061	22097
860.194	22112
860.327	22006
860.46	21880
860.592	22055
860.725	22120
860.858	22101
860.99	21983
861.123	21876
861.256	21953
861.388	21941
861.521	22858
861.653	21793
861.786	21747
861.918	21747
862.05	21819
862.183	21778
862.315	21747
862.447	21945
862.58	21781
862.712	21656
862.844	21629
862.976	21705
863.108	21739
863.24	22059
863.372	21542
863.504	21732
863.636	21576
863.768	21656
863.9	21690
864.032	21618
864.164	21561
864.296	21660
864.428	21686
864.559	21778
864.691	21629
864.823	21629
864.954	21648
865.086	21595
865.217	21538
865.349	21504
865.48	21583
865.612	21534
865.743	21534
865.875	21538
866.006	21515
866.137	21603
866.269	21363
866.4	21485
866.531	21435
866.662	21408
866.793	21348
866.924	21405
867.055	21507
867.186	21382
867.317	21401
867.448	21382
867.579	21389
867.71	21374
867.841	21313
867.972	21393
868.103	21397
868.233	21526
868.364	21488
868.495	21606
868.625	21587
868.756	21781
868.886	21561
869.017	21797
869.147	21876
869.278	21850
869.408	21785
869.539	21660
869.669	21816
869.799	21694
869.929	21823
870.06	21720
870.19	22059
870.32	21956
870.45	22097
870.58	22059
870.71	22188
870.84	22139
870.97	22055
871.1	22070
871.23	22223
871.36	22272
871.489	22253
871.619	22284
871.749	22367
871.879	22299
872.008	22428
872.138	22329
872.267	22341
872.397	22139
872.526	22200
872.656	22166
872.785	22177
872.915	22215
873.044	22421
873.173	22341
873.303	22497
873.432	22253
873.561	22413
873.69	22291
873.819	22211
873.948	22462
874.077	22348
874.206	22196
874.335	22337
874.464	22512
874.593	22455
874.722	22527
874.851	22679
874.979	22584
875.108	22641
875.237	22546
875.365	22466
875.494	22424
875.623	22481
875.751	22386
875.88	22702
876.008	22584
876.136	22778
876.265	22828
876.393	23121
876.521	22911
876.65	23048
876.778	22953
876.906	22885
877.034	22862
877.162	22942
877.29	22790
877.418	22987
877.546	22946
877.674	22797
877.802	22915
877.93	22812
878.058	22763
878.185	22778
878.313	22873
878.441	22748
878.568	22573
878.696	22866
878.824	23044
878.951	23029
879.079	23075
879.206	23181
879.333	23056
879.461	22949
879.588	23090
879.715	23136
879.842	23117
879.97	22984
880.097	22831
880.224	22820
880.351	22782
880.478	22664
880.605	22573
880.732	22694
880.859	22889
880.986	22805
881.112	22782
881.239	22546
881.366	22447
881.493	22268
881.619	22223
881.746	22272
881.872	22314
881.999	22219
882.125	22223
882.252	22280
882.378	22299
882.505	22284
882.631	22147
882.757	21953
882.883	21968
883.01	22036
883.136	21953
883.262	21812
883.388	21930
883.514	21956
883.64	21956
883.766	21926
883.892	21720
884.018	21831
884.143	21956
884.269	21956
884.395	21736
884.52	21606
884.646	21603
884.772	21542
884.897	21336
885.023	21618
885.148	21717
885.274	21823
885.399	21656
885.524	21618
885.65	21580
885.775	21667
885.9	21534
886.025	21599
886.15	21583
886.275	21633
886.4	21507
886.525	21614
886.65	21367
886.775	21397
886.9	21778
887.025	21770
887.149	21534
887.274	21351
887.399	21268
887.523	21355
887.648	21397
887.773	21313
887.897	21477
888.021	21420
888.146	21340
888.27	21336
888.395	21504
888.519	21435
888.643	21401
888.767	21416
888.891	21321
889.015	21131
889.139	21252
889.263	21104
889.387	21214
889.511	21291
889.635	21344
889.759	21184
889.883	21249
890.006	21169
890.13	21203
890.254	21161
890.377	20937
890.501	21013
890.624	20899
890.748	20998
890.871	20720
890.995	20743
891.118	20587
891.241	20731
891.364	20807
891.488	20887
891.611	20762
891.734	20785
891.857	20750
891.98	20781
892.103	20823
892.226	20678
892.349	20651
892.471	20545
892.594	20556
892.717	20609
892.839	20499
892.962	20609
893.085	20693
893.207	20594
893.33	20609
893.452	20484
893.575	20594
893.697	20621
893.819	20800
893.941	20727
894.064	20758
894.186	20522
894.308	20594
894.43	20636
894.552	20777
894.674	20617
894.796	20492
894.918	20678
895.04	20583
895.161	20625
895.283	20613
895.405	20549
895.526	20564
895.648	20670
895.769	20632
895.891	20712
896.012	20663
896.134	20689
896.255	20705
896.376	20450
896.498	20613
896.619	20640
896.74	20651
896.861	20606
896.982	20944
897.103	20963
897.224	20857
897.345	20815
897.466	20845
897.587	20937
897.708	20914
897.828	20937
897.949	20712
898.07	20617
898.19	20735
898.311	20838
898.431	20720
898.552	20842
898.672	20918
898.792	20845
898.913	20804
899.033	20613
899.153	20598
899.273	20442
899.393	20579
899.513	20549
899.633	20552
899.753	20514
899.873	20423
899.993	20423
900.113	20503
900.232	20564
900.352	20598
900.472	20389
900.591	20328
900.711	20366
900.83	20347
900.95	20457
901.069	20355
901.189	20122
901.308	19864
901.427	19936
901.546	19940
901.665	19879
901.784	19959
901.904	19780
902.023	19666
902.141	19582
902.26	19422
902.379	19426
902.498	19472
902.617	19381
902.735	19415
902.854	19411
902.973	19346
903.091	19171
903.21	19061
903.328	19046
903.446	19122
903.565	18913
903.683	18867
903.801	18753
903.919	18806
904.038	18875
904.156	18646
904.274	18730
904.392	18620
904.51	18620
904.627	18616
904.745	18760
904.863	18620
904.981	18437
905.098	18327
905.216	18391
905.334	18380
905.451	18311
905.569	18357
905.686	18308
905.803	18410
905.921	18182
906.038	18224
906.155	18258
906.272	18091
906.389	18030
906.506	17942
906.623	17851
906.74	17912
906.857	17630
906.974	17760
907.091	17870
907.208	17889
907.324	17798
907.441	17642
907.557	17611
907.674	17596
907.79	17512
907.907	17444
908.023	17528
908.139	17611
908.256	17417
908.372	17417
908.488	17360
908.604	17341
908.72	17261
908.836	17246
908.952	17189
909.068	17235
909.184	17315
909.3	17216
909.415	17311
909.531	17200
909.647	16961
909.762	17025
909.878	16987
909.993	16965
910.108	16968
910.224	16847
910.339	16839
910.454	16904
910.57	16736
910.685	16653
910.8	17018
910.915	16904
911.03	16790
911.145	16569
911.259	16584
911.374	16565
911.489	16413
911.604	16485
911.718	16329
911.833	16413
911.947	16211
912.062	16192
912.176	16306
912.291	16257
912.405	16257
912.519	16500
912.633	16558
912.748	16360
912.862	16246
912.976	16150
913.09	16116
913.204	16120
913.318	16086
913.431	16234
913.545	16219
913.659	16078
913.772	16067
913.886	15895
914	15800
914.113	15960
914.226	15987
914.34	15941
914.453	15774
914.566	15987
914.68	15835
914.793	15808
914.906	15576
915.019	15481
915.132	15485
915.245	15443
915.358	15526
915.47	15435
915.583	15519
915.696	15504
915.809	15698
915.921	15671
916.034	15496
916.146	15378
916.259	15412
916.371	15538
916.483	15401
916.595	15344
916.708	15340
916.82	15359
916.932	15226
917.044	15298
917.156	15211
917.268	15180
917.38	15169
917.491	15123
917.603	15157
917.715	15097
917.826	15165
917.938	15001
918.049	14906
918.161	15055
918.272	15119
918.384	15184
918.495	15032
918.606	14944
918.717	14906
918.828	14823
918.939	14887
919.05	14796
919.161	14845
919.272	14746
919.383	14701
919.494	14857
919.604	15020
919.715	14910
919.826	14746
919.936	14845
920.047	14868
920.157	14933
920.267	14994
920.378	14823
920.488	14883
920.598	14906
920.708	15157
920.818	14998
920.928	14971
921.038	15085
921.148	15047
921.258	14727
921.368	14731
921.477	14598
921.587	14640
921.697	14419
921.806	14473
921.916	14446
922.025	14180
922.134	14225
922.244	14210
922.353	14252
922.462	14046
922.571	13993
922.68	13921
922.789	13868
922.898	13830
923.007	13734
923.116	13826
923.224	13772
923.333	13845
923.442	13750
923.55	13639
923.659	13685
923.767	13761
923.876	13597
923.984	13666
924.092	13571
924.201	13624
924.309	13662
924.417	13514
924.525	13499
924.633	13487
924.741	14206
924.849	13282
924.956	13434
925.064	13270
925.172	13198
925.279	13278
925.387	13335
925.494	13228
925.602	13266
925.709	13255
925.816	13183
925.924	13217
926.031	13308
926.138	13152
926.245	13141
926.352	13133
926.459	13236
926.566	13312
926.673	13137
926.779	13031
926.886	12985
926.993	12829
927.099	12882
927.206	12764
927.312	12802
927.419	12837
927.525	12882
927.631	12783
927.737	12684
927.843	12612
927.95	12612
928.056	12722
928.162	12688
928.267	12650
928.373	13266
928.479	12700
928.585	12410
928.69	12566
928.796	12536
928.901	12559
929.007	12323
929.112	12502
929.218	12365
929.323	12475
929.428	12296
929.533	12456
929.638	12220
929.743	12327
929.848	12407
929.953	12342
930.058	12209
930.163	11954
930.267	12079
930.372	12220
930.477	12015
930.581	12315
930.685	12098
930.79	11931
930.894	12019
930.998	11977
931.103	12053
931.207	11699
931.311	11623
931.415	11493
931.519	11315
931.623	11280
