Data from test_V78500241_3018.txt Node
Date: Fri Mar 25 16:02:42 CST 2022
User: usil
Spectrometer: V785-0024
Trigger mode: 0
Integration Time (sec): 4.000000E-1
Scans to average: 1
Nonlinearity correction enabled: false
Boxcar width: 0
Storing dark spectrum: false
XAxis mode: Wavelengths
Number of Pixels in Spectrum: 1024
>>>>>Begin Spectral Data<<<<<
801.071	28702
801.214	28767
801.356	28272
801.499	28405
801.641	28306
801.783	28344
801.926	28177
802.068	28318
802.211	28215
802.353	28204
802.496	28048
802.638	28097
802.78	27930
802.923	27880
803.065	27876
803.208	27979
803.35	28017
803.492	27975
803.635	28067
803.777	28093
803.919	28192
804.061	28500
804.204	28074
804.346	28196
804.488	28173
804.63	28303
804.773	28173
804.915	28242
805.057	28371
805.199	28280
805.341	28386
805.483	28447
805.626	28314
805.768	28344
805.91	28268
806.052	28421
806.194	28200
806.336	28493
806.478	28352
806.62	28523
806.762	28462
806.904	28698
807.046	28824
807.188	28953
807.33	28820
807.472	28877
807.614	28725
807.756	28740
807.898	28596
808.04	28710
808.182	28569
808.324	28698
808.465	28656
808.607	28877
808.749	29098
808.891	29136
809.033	29136
809.174	29022
809.316	28965
809.458	29048
809.6	29041
809.741	29124
809.883	29155
810.025	29455
810.166	29269
810.308	29322
810.45	29353
810.591	29143
810.733	29105
810.875	28965
811.016	28991
811.158	29010
811.299	29117
811.441	29178
811.582	29140
811.724	29044
811.865	29025
812.007	29041
812.148	29033
812.29	29121
812.431	29277
812.573	29463
812.714	29493
812.855	29501
812.997	29672
813.138	29832
813.279	29630
813.421	29490
813.562	29364
813.703	29330
813.845	29410
813.986	29064
814.127	28892
814.268	28771
814.41	28740
814.551	28752
814.692	28736
814.833	28698
814.974	28725
815.115	28892
815.256	28683
815.397	28698
815.539	28710
815.68	28630
815.821	28508
815.962	28607
816.103	28573
816.244	28493
816.385	28443
816.526	28493
816.666	28238
816.807	28204
816.948	28120
817.089	28120
817.23	28025
817.371	28105
817.512	28044
817.653	27987
817.793	27968
817.934	28090
818.075	28101
818.216	28067
818.356	27953
818.497	27964
818.638	27880
818.778	27838
818.919	27789
819.06	27956
819.2	28044
819.341	28177
819.481	28150
819.622	28432
819.762	28462
819.903	28379
820.043	28333
820.184	28211
820.324	28139
820.465	28287
820.605	28226
820.746	28143
820.886	28097
821.026	28207
821.167	28101
821.307	28348
821.447	28143
821.588	28070
821.728	27854
821.868	27812
822.008	27694
822.149	27694
822.289	27641
822.429	27233
822.569	27275
822.709	27370
822.849	27116
822.99	27036
823.13	27013
823.27	27055
823.41	27104
823.55	26880
823.69	26937
823.83	26914
823.97	26739
824.11	26640
824.25	26746
824.389	26674
824.529	26773
824.669	26724
824.809	26830
824.949	26937
825.089	26906
825.228	26861
825.368	26537
825.508	26606
825.648	26575
825.787	26727
825.927	26811
826.067	26511
826.206	26545
826.346	26705
826.485	26796
826.625	26613
826.765	26648
826.904	26469
827.044	26480
827.183	26263
827.323	26221
827.462	26450
827.601	26374
827.741	26351
827.88	26343
828.02	26313
828.159	26370
828.298	26404
828.437	26332
828.577	26183
828.716	26419
828.855	26218
828.994	26081
829.134	25993
829.273	26031
829.412	25951
829.551	25966
829.69	25970
829.829	25887
829.968	26020
830.107	26176
830.246	26043
830.385	26065
830.524	25947
830.663	25868
830.802	25784
830.941	25525
831.08	25674
831.219	25822
831.357	25514
831.496	25856
831.635	25559
831.774	25559
831.913	25441
832.051	25324
832.19	25373
832.329	25476
832.467	25339
832.606	25251
832.744	25308
832.883	25320
833.022	25206
833.16	25335
833.299	25228
833.437	25255
833.576	25358
833.714	25464
833.852	25392
833.991	25327
834.129	25415
834.267	25457
834.406	25293
834.544	25358
834.682	25377
834.821	25251
834.959	25639
835.097	25324
835.235	25365
835.373	25354
835.511	25422
835.65	25091
835.788	25221
835.926	25160
836.064	24970
836.202	25057
836.34	25091
836.478	25244
836.615	25118
836.753	25244
836.891	25293
837.029	25171
837.167	25164
837.305	25061
837.443	25065
837.58	24909
837.718	25122
837.856	25046
837.993	24867
838.131	24989
838.269	24878
838.406	24852
838.544	25004
838.681	24681
838.819	24650
838.956	24490
839.094	24517
839.231	24502
839.369	24627
839.506	24863
839.643	24833
839.781	24486
839.918	24388
840.055	24452
840.193	24467
840.33	24384
840.467	24323
840.604	24471
840.742	24688
840.879	24174
841.016	24334
841.153	24247
841.29	24285
841.427	24384
841.564	24464
841.701	24403
841.838	24334
841.975	24262
842.112	24220
842.249	24110
842.385	24155
842.522	24353
842.659	24213
842.796	24053
842.933	24308
843.069	24091
843.206	24079
843.343	24201
843.479	24114
843.616	24095
843.752	23935
843.889	23878
844.025	24022
844.162	23973
844.298	24022
844.435	23942
844.571	23813
844.708	24007
844.844	24121
844.98	24007
845.117	24030
845.253	23969
845.389	23870
845.525	23859
845.661	23805
845.798	23611
845.934	23733
846.07	23554
846.206	23467
846.342	23775
846.478	23604
846.614	23383
846.75	23330
846.886	23322
847.022	23345
847.158	23448
847.294	23383
847.429	23368
847.565	23402
847.701	23592
847.837	23193
847.972	23018
848.108	23197
848.244	23174
848.379	23018
848.515	22892
848.65	23014
848.786	22835
848.921	22957
849.057	22850
849.192	22991
849.328	22915
849.463	23029
849.598	22793
849.734	22908
849.869	22763
850.004	22702
850.14	22729
850.275	22759
850.41	22569
850.545	22679
850.68	22717
850.815	22729
850.95	22622
851.085	22831
851.22	22961
851.355	22710
851.49	22771
851.625	22763
851.76	22702
851.895	22797
852.03	22687
852.165	22774
852.299	22675
852.434	22843
852.569	22828
852.703	22771
852.838	22854
852.973	22812
853.107	22831
853.242	22660
853.376	22641
853.511	22512
853.645	22546
853.78	22641
853.914	22542
854.048	22573
854.183	22565
854.317	22649
854.451	22755
854.585	22622
854.72	22668
854.854	22771
854.988	22470
855.122	22455
855.256	22588
855.39	22649
855.524	22634
855.658	22660
855.792	22584
855.926	22675
856.06	22584
856.194	22573
856.327	22550
856.461	22489
856.595	22512
856.729	22580
856.862	22683
856.996	22660
857.13	22569
857.263	22512
857.397	22683
857.53	22634
857.664	22592
857.797	22573
857.931	22721
858.064	22698
858.197	22721
858.331	22580
858.464	22523
858.597	22500
858.731	22641
858.864	22626
858.997	22615
859.13	22588
859.263	22645
859.396	22675
859.529	22630
859.662	22531
859.795	22596
859.928	22504
860.061	22771
860.194	22778
860.327	22470
860.46	22535
860.592	22790
860.725	22771
860.858	22672
860.99	22733
861.123	22447
861.256	22497
861.388	22557
861.521	23326
861.653	22508
861.786	22306
861.918	22329
862.05	22367
862.183	22550
862.315	22653
862.447	22535
862.58	22504
862.712	22287
862.844	22299
862.976	22470
863.108	22265
863.24	22653
863.372	22204
863.504	22284
863.636	22276
863.768	22310
863.9	22287
864.032	22226
864.164	22268
864.296	22253
864.428	22265
864.559	22481
864.691	22481
864.823	22284
864.954	22246
865.086	22215
865.217	22230
865.349	22139
865.48	22105
865.612	22158
865.743	22318
865.875	22169
866.006	22166
866.137	22192
866.269	22211
866.4	22124
866.531	22105
866.662	22090
866.793	22063
866.924	22120
867.055	22135
867.186	22032
867.317	22116
867.448	22040
867.579	22097
867.71	22021
867.841	21953
867.972	22070
868.103	22021
868.233	22078
868.364	22025
868.495	22242
868.625	22318
868.756	22432
868.886	22230
869.017	22291
869.147	22329
869.278	22268
869.408	22478
869.539	22204
869.669	22497
869.799	22382
869.929	22478
870.06	22542
870.19	22653
870.32	22554
870.45	22721
870.58	22816
870.71	22774
870.84	22835
870.97	22786
871.1	22782
871.23	22908
871.36	22999
871.489	22801
871.619	22927
871.749	22877
871.879	23014
872.008	23025
872.138	22805
872.267	23006
872.397	22733
872.526	22603
872.656	22839
872.785	22862
872.915	22938
873.044	22999
873.173	22873
873.303	22949
873.432	23033
873.561	22995
873.69	22995
873.819	22915
873.948	23083
874.077	23022
874.206	22877
874.335	23006
874.464	23102
874.593	23273
874.722	23185
874.851	23208
874.979	23261
875.108	23311
875.237	23048
875.365	23022
875.494	23170
875.623	23204
875.751	23098
875.88	23071
876.008	23269
876.136	23261
876.265	23581
876.393	23676
876.521	23741
876.65	23573
876.778	23581
876.906	23410
877.034	23551
877.162	23448
877.29	23383
877.418	23414
877.546	23459
877.674	23539
877.802	23490
877.93	23501
878.058	23360
878.185	23379
878.313	23360
878.441	23379
878.568	23284
878.696	23372
878.824	23577
878.951	23539
879.079	23630
879.206	23748
879.333	23680
879.461	23505
879.588	23608
879.715	23752
879.842	23859
879.97	23501
880.097	23280
880.224	23337
880.351	23337
880.478	23334
880.605	23288
880.732	23330
880.859	23512
880.986	23459
881.112	23334
881.239	23117
881.366	23041
881.493	22919
881.619	22919
881.746	22866
881.872	22915
881.999	22748
882.125	22771
882.252	22885
882.378	22729
882.505	23003
882.631	22649
882.757	22634
882.883	22500
883.01	22405
883.136	22687
883.262	22375
883.388	22390
883.514	22516
883.64	22607
883.766	22432
883.892	22253
884.018	22421
884.143	22485
884.269	22519
884.395	22249
884.52	22105
884.646	22177
884.772	22147
884.897	22086
885.023	22147
885.148	22379
885.274	22280
885.399	22280
885.524	22303
885.65	22219
885.775	22265
885.9	22200
886.025	22295
886.15	22234
886.275	22211
886.4	22116
886.525	22074
886.65	22093
886.775	22006
886.9	22272
887.025	22280
887.149	22143
887.274	22051
887.399	21964
887.523	21991
887.648	21785
887.773	21918
887.897	22086
888.021	21941
888.146	21816
888.27	22040
888.395	22025
888.519	21876
888.643	21911
888.767	21968
888.891	21778
889.015	21717
889.139	21739
889.263	21720
889.387	21850
889.511	21899
889.635	21831
889.759	21694
889.883	21675
890.006	21705
890.13	21797
890.254	21625
890.377	21622
890.501	21580
890.624	21344
890.748	21458
890.871	21458
890.995	21378
891.118	21272
891.241	21302
891.364	21192
891.488	21348
891.611	21291
891.734	21203
891.857	21340
891.98	21195
892.103	21340
892.226	21340
892.349	21252
892.471	21165
892.594	21154
892.717	21142
892.839	21226
892.962	21252
893.085	21252
893.207	21188
893.33	21157
893.452	21135
893.575	21157
893.697	21188
893.819	21283
893.941	21233
894.064	21466
894.186	21093
894.308	21150
894.43	21272
894.552	21351
894.674	21203
894.796	21089
894.918	21066
895.04	21230
895.161	21207
895.283	21116
895.405	21184
895.526	21047
895.648	21142
895.769	21199
895.891	21161
896.012	21176
896.134	21146
896.255	21116
896.376	21230
896.498	21173
896.619	21096
896.74	21119
896.861	21241
896.982	21492
897.103	21629
897.224	21450
897.345	21367
897.466	21275
897.587	21348
897.708	21473
897.828	21287
897.949	21340
898.07	21188
898.19	21374
898.311	21564
898.431	21237
898.552	21306
898.672	21458
898.792	21435
898.913	21428
899.033	21302
899.153	21233
899.273	20998
899.393	21070
899.513	21146
899.633	21214
899.753	21104
899.873	21165
899.993	21096
900.113	21161
900.232	20921
900.352	21036
900.472	20921
900.591	20777
900.711	20807
900.83	20743
900.95	20838
901.069	20857
901.189	20788
901.308	20488
901.427	20393
901.546	20286
901.665	20374
901.784	20526
901.904	20248
902.023	20180
902.141	20035
902.26	19913
902.379	20115
902.498	19951
902.617	19860
902.735	19921
902.854	19890
902.973	19841
903.091	19674
903.21	19567
903.328	19620
903.446	19472
903.565	19422
903.683	19327
903.801	19316
903.919	19255
904.038	19373
904.156	19107
904.274	19247
904.392	19122
904.51	19095
904.627	19015
904.745	19194
904.863	19194
904.981	18806
905.098	18821
905.216	18795
905.334	18802
905.451	18654
905.569	18749
905.686	18916
905.803	18726
905.921	18528
906.038	18677
906.155	18574
906.272	18490
906.389	18506
906.506	18327
906.623	18399
906.74	18376
906.857	18163
906.974	18171
907.091	18292
907.208	18452
907.324	18289
907.441	18239
907.557	18053
907.674	18053
907.79	17984
907.907	18079
908.023	18079
908.139	17980
908.256	17946
908.372	17927
908.488	17771
908.604	17661
908.72	17764
908.836	17836
908.952	17676
909.068	17741
909.184	17851
909.3	17786
909.415	17756
909.531	17653
909.647	17474
909.762	17505
909.878	17417
909.993	17440
910.108	17429
910.224	17353
910.339	17444
910.454	17307
910.57	17383
910.685	17227
910.8	17414
910.915	17478
911.03	17239
911.145	17041
911.259	17060
911.374	16984
911.489	16991
911.604	16930
911.718	16744
911.833	16752
911.947	16607
912.062	16577
912.176	16854
912.291	16694
912.405	16702
912.519	16957
912.633	16889
912.748	16763
912.862	16694
912.976	16512
913.09	16409
913.204	16443
913.318	16607
913.431	16554
913.545	16603
913.659	16660
913.772	16440
913.886	16356
914	16367
914.113	16474
914.226	16447
914.34	16386
914.453	16173
914.566	16409
914.68	16268
914.793	16181
914.906	15937
915.019	16002
915.132	15903
915.245	15918
915.358	15983
915.47	15915
915.583	16029
915.696	15911
915.809	16029
915.921	16067
916.034	15869
916.146	15736
916.259	15819
916.371	15861
916.483	15823
916.595	15793
916.708	15732
916.82	15793
916.932	15694
917.044	15751
917.156	15652
917.268	15530
917.38	15599
917.491	15675
917.603	15633
917.715	15698
917.826	15648
917.938	15477
918.049	15367
918.161	15530
918.272	15671
918.384	15576
918.495	15485
918.606	15268
918.717	15214
918.828	15214
918.939	15291
919.05	15222
919.161	15226
919.272	15093
919.383	15142
919.494	15306
919.604	15336
919.715	15256
919.826	15180
919.936	15294
920.047	15222
920.157	15291
920.267	15500
920.378	15116
920.488	15161
920.598	15298
920.708	15481
920.818	15336
920.928	15348
921.038	15488
921.148	15412
921.258	15207
921.368	15051
921.477	14944
921.587	14914
921.697	14792
921.806	15013
921.916	14811
922.025	14689
922.134	14598
922.244	14590
922.353	14602
922.462	14469
922.571	14434
922.68	14275
922.789	14259
922.898	14252
923.007	14164
923.116	14252
923.224	14248
923.333	14164
923.442	14008
923.55	14050
923.659	14005
923.767	14202
923.876	13959
923.984	14043
924.092	13890
924.201	13978
924.309	13951
924.417	13856
924.525	13856
924.633	13883
924.741	14606
924.849	13590
924.956	13742
925.064	13765
925.172	13586
925.279	13571
925.387	13597
925.494	13521
925.602	13639
925.709	13712
925.816	13495
925.924	13552
926.031	13563
926.138	13582
926.245	13609
926.352	13422
926.459	13521
926.566	13559
926.673	13396
926.779	13403
926.886	13285
926.993	13198
927.099	13145
927.206	13137
927.312	13091
927.419	13179
927.525	13110
927.631	13168
927.737	13000
927.843	13000
927.95	12806
928.056	12947
928.162	12916
928.267	12981
928.373	13655
928.479	13126
928.585	12817
928.69	12901
928.796	12825
928.901	12779
929.007	12631
929.112	12795
929.218	12688
929.323	12700
929.428	12700
929.533	12875
929.638	12589
929.743	12532
929.848	12688
929.953	12593
930.058	12429
930.163	12395
930.267	12342
930.372	12544
930.477	12285
930.581	12547
930.685	12391
930.79	12209
930.894	12243
930.998	12262
931.103	12296
931.207	11969
931.311	11885
931.415	11813
931.519	11638
931.623	11562
