Data from test_V78500241_672.txt Node
Date: Fri Mar 25 15:46:27 CST 2022
User: usil
Spectrometer: V785-0024
Trigger mode: 0
Integration Time (sec): 4.000000E-1
Scans to average: 1
Nonlinearity correction enabled: false
Boxcar width: 0
Storing dark spectrum: false
XAxis mode: Wavelengths
Number of Pixels in Spectrum: 1024
>>>>>Begin Spectral Data<<<<<
801.071	27983
801.214	27762
801.356	27614
801.499	27485
801.641	27420
801.783	27523
801.926	27603
802.068	27351
802.211	27401
802.353	27374
802.496	27089
802.638	27214
802.78	27055
802.923	27039
803.065	27009
803.208	27089
803.35	27051
803.492	27340
803.635	27252
803.777	27214
803.919	27237
804.061	27564
804.204	27340
804.346	27294
804.488	27237
804.63	27161
804.773	27161
804.915	27351
805.057	27477
805.199	27294
805.341	27222
805.483	27568
805.626	27355
805.768	27317
805.91	27534
806.052	27336
806.194	27534
806.336	27542
806.478	27420
806.62	27454
806.762	27595
806.904	27724
807.046	28025
807.188	27956
807.33	27816
807.472	27934
807.614	27759
807.756	27797
807.898	27713
808.04	27679
808.182	27709
808.324	27648
808.465	27778
808.607	27914
808.749	28044
808.891	28188
809.033	28261
809.174	28177
809.316	28154
809.458	27926
809.6	28040
809.741	28173
809.883	28147
810.025	28261
810.166	28466
810.308	28382
810.45	28257
810.591	28211
810.733	28120
810.875	27964
811.016	28067
811.158	27819
811.299	28234
811.441	28276
811.582	28246
811.724	28082
811.865	28150
812.007	27975
812.148	27979
812.29	28211
812.431	28261
812.573	28596
812.714	28455
812.855	28523
812.997	28645
813.138	28835
813.279	28763
813.421	28577
813.562	28538
813.703	28432
813.845	28238
813.986	28070
814.127	27778
814.268	27808
814.41	27778
814.551	27873
814.692	27850
814.833	27770
814.974	27724
815.115	27835
815.256	27625
815.397	27671
815.539	27663
815.68	27652
815.821	27511
815.962	27641
816.103	27568
816.244	27458
816.385	27268
816.526	27393
816.666	27226
816.807	27077
816.948	27066
817.089	27207
817.23	27104
817.371	27161
817.512	27074
817.653	27081
817.793	27039
817.934	27062
818.075	27039
818.216	27116
818.356	27070
818.497	27047
818.638	26842
818.778	26853
818.919	26705
819.06	26975
819.2	26887
819.341	27024
819.481	27036
819.622	27142
819.762	27420
819.903	27393
820.043	27195
820.184	27211
820.324	27195
820.465	27233
820.605	27176
820.746	27233
820.886	27096
821.026	27100
821.167	27241
821.307	27298
821.447	27096
821.588	26933
821.728	26857
821.868	26868
822.008	26629
822.149	26609
822.289	26549
822.429	26271
822.569	26396
822.709	26263
822.849	26214
822.99	26092
823.13	26100
823.27	26016
823.41	25879
823.55	25841
823.69	25925
823.83	25890
823.97	25852
824.11	25772
824.25	25712
824.389	25677
824.529	25662
824.669	25791
824.809	25883
824.949	25936
825.089	25807
825.228	25715
825.368	25548
825.508	25605
825.648	25639
825.787	25521
825.927	25639
826.067	25499
826.206	25613
826.346	25738
826.485	25624
826.625	25521
826.765	25586
826.904	25601
827.044	25358
827.183	25415
827.323	25362
827.462	25213
827.601	25285
827.741	25228
827.88	25327
828.02	25057
828.159	25274
828.298	25274
828.437	25426
828.577	25171
828.716	25384
828.855	25202
828.994	24958
829.134	24958
829.273	24962
829.412	25008
829.551	24787
829.69	24977
829.829	25065
829.968	24977
830.107	25008
830.246	24977
830.385	24966
830.524	24741
830.663	24890
830.802	24783
830.941	24654
831.08	24540
831.219	24570
831.357	24612
831.496	24863
831.635	24563
831.774	24547
831.913	24513
832.051	24380
832.19	24365
832.329	24521
832.467	24228
832.606	24167
832.744	24247
832.883	24209
833.022	24308
833.16	24277
833.299	24327
833.437	24262
833.576	24376
833.714	24509
833.852	24319
833.991	24308
834.129	24369
834.267	24433
834.406	24353
834.544	24346
834.682	24323
834.821	24251
834.959	24528
835.097	24350
835.235	24330
835.373	24285
835.511	24315
835.65	24114
835.788	24057
835.926	24015
836.064	24003
836.202	24030
836.34	24053
836.478	24232
836.615	23969
836.753	24133
836.891	24186
837.029	24190
837.167	23999
837.305	23965
837.443	24007
837.58	24117
837.718	23977
837.856	23889
837.993	23889
838.131	23996
838.269	23824
838.406	23920
838.544	23695
838.681	23676
838.819	23661
838.956	23452
839.094	23474
839.231	23520
839.369	23665
839.506	23790
839.643	23733
839.781	23463
839.918	23490
840.055	23482
840.193	23421
840.33	23444
840.467	23493
840.604	23440
840.742	23596
840.879	23334
841.016	23311
841.153	23151
841.29	23414
841.427	23303
841.564	23376
841.701	23379
841.838	23315
841.975	23216
842.112	23235
842.249	23128
842.385	23162
842.522	23322
842.659	23159
842.796	23094
842.933	23083
843.069	23067
843.206	23037
843.343	23105
843.479	23018
843.616	23094
843.752	22923
843.889	22923
844.025	23044
844.162	22812
844.298	22885
844.435	22862
844.571	22793
844.708	22995
844.844	23033
844.98	22949
845.117	22968
845.253	22812
845.389	22797
845.525	22843
845.661	22710
845.798	22668
845.934	22664
846.07	22641
846.206	22683
846.342	22683
846.478	22611
846.614	22497
846.75	22318
846.886	22367
847.022	22481
847.158	22337
847.294	22360
847.429	22375
847.565	22344
847.701	22577
847.837	22120
847.972	22147
848.108	22120
848.244	22162
848.379	22048
848.515	21975
848.65	21903
848.786	22025
848.921	21972
849.057	22116
849.192	22044
849.328	22029
849.463	21949
849.598	21892
849.734	21816
849.869	21854
850.004	21747
850.14	21705
850.275	21713
850.41	21637
850.545	21618
850.68	21610
850.815	21682
850.95	21652
851.085	21816
851.22	21789
851.355	21793
851.49	21698
851.625	21694
851.76	21622
851.895	21587
852.03	21622
852.165	21690
852.299	21831
852.434	21827
852.569	21713
852.703	21671
852.838	21816
852.973	21888
853.107	21762
853.242	21660
853.376	21629
853.511	21534
853.645	21553
853.78	21511
853.914	21477
854.048	21583
854.183	21633
854.317	21603
854.451	21686
854.585	21408
854.72	21485
854.854	21656
854.988	21447
855.122	21526
855.256	21382
855.39	21523
855.524	21603
855.658	21591
855.792	21549
855.926	21576
856.06	21473
856.194	21591
856.327	21473
856.461	21431
856.595	21424
856.729	21504
856.862	21633
856.996	21660
857.13	21686
857.263	21576
857.397	21507
857.53	21564
857.664	21530
857.797	21553
857.931	21587
858.064	21496
858.197	21739
858.331	21488
858.464	21511
858.597	21382
858.731	21450
858.864	21450
858.997	21530
859.13	21545
859.263	21561
859.396	21667
859.529	21572
859.662	21481
859.795	21511
859.928	21622
860.061	21743
860.194	21724
860.327	21485
860.46	21606
860.592	21713
860.725	21755
860.858	21515
860.99	21447
861.123	21329
861.256	21359
861.388	21591
861.521	22253
861.653	21450
861.786	21374
861.918	21386
862.05	21348
862.183	21481
862.315	21454
862.447	21557
862.58	21348
862.712	21241
862.844	21116
862.976	21348
863.108	21218
863.24	21580
863.372	21195
863.504	21169
863.636	21272
863.768	21279
863.9	21275
864.032	21203
864.164	21306
864.296	21249
864.428	21378
864.559	21260
864.691	21294
864.823	21272
864.954	21256
865.086	21287
865.217	21169
865.349	21036
865.48	21169
865.612	21184
865.743	21100
865.875	21028
866.006	21001
866.137	21192
866.269	21066
866.4	21169
866.531	21104
866.662	21001
866.793	21119
866.924	21146
867.055	21112
867.186	21123
867.317	21070
867.448	20937
867.579	21074
867.71	20982
867.841	20929
867.972	21043
868.103	21066
868.233	21116
868.364	21055
868.495	21157
868.625	21317
868.756	21393
868.886	21264
869.017	21317
869.147	21435
869.278	21401
869.408	21268
869.539	21351
869.669	21469
869.799	21408
869.929	21458
870.06	21424
870.19	21633
870.32	21736
870.45	21599
870.58	21698
870.71	21781
870.84	21903
870.97	21759
871.1	21778
871.23	21941
871.36	21987
871.489	21785
871.619	21778
871.749	21861
871.879	21915
872.008	22032
872.138	21892
872.267	21816
872.397	21694
872.526	21785
872.656	21720
872.785	21823
872.915	21930
873.044	22090
873.173	21861
873.303	22032
873.432	22044
873.561	22002
873.69	21857
873.819	21846
873.948	22063
874.077	21918
874.206	21941
874.335	22040
874.464	22082
874.593	22223
874.722	22002
874.851	22177
874.979	22158
875.108	22177
875.237	22169
875.365	22131
875.494	22173
875.623	22188
875.751	22116
875.88	22150
876.008	22352
876.136	22413
876.265	22641
876.393	22599
876.521	22577
876.65	22550
876.778	22656
876.906	22577
877.034	22440
877.162	22565
877.29	22394
877.418	22607
877.546	22577
877.674	22557
877.802	22500
877.93	22470
878.058	22447
878.185	22352
878.313	22481
878.441	22413
878.568	22466
878.696	22481
878.824	22542
878.951	22481
879.079	22694
879.206	22710
879.333	22710
879.461	22466
879.588	22660
879.715	22649
879.842	22767
879.97	22550
880.097	22272
880.224	22398
880.351	22325
880.478	22322
880.605	22371
880.732	22333
880.859	22500
880.986	22253
881.112	22280
881.239	22192
881.366	22128
881.493	22002
881.619	21907
881.746	21911
881.872	21823
881.999	21949
882.125	21865
882.252	21827
882.378	21857
882.505	22025
882.631	21743
882.757	21633
882.883	21679
883.01	21564
883.136	21443
883.262	21523
883.388	21306
883.514	21568
883.64	21614
883.766	21469
883.892	21401
884.018	21321
884.143	21488
884.269	21686
884.395	21195
884.52	21199
884.646	21237
884.772	21214
884.897	21135
885.023	21169
885.148	21336
885.274	21412
885.399	21348
885.524	21222
885.65	21222
885.775	21249
885.9	21192
886.025	21275
886.15	21294
886.275	21123
886.4	21192
886.525	21188
886.65	21066
886.775	21127
886.9	21306
887.025	21401
887.149	21241
887.274	21013
887.399	21116
887.523	21058
887.648	20933
887.773	20864
887.897	20944
888.021	21119
888.146	20998
888.27	21081
888.395	20944
888.519	20956
888.643	20933
888.767	21157
888.891	20902
889.015	20853
889.139	20891
889.263	20773
889.387	20842
889.511	21024
889.635	20971
889.759	20765
889.883	20880
890.006	20830
890.13	20910
890.254	20663
890.377	20716
890.501	20651
890.624	20609
890.748	20423
890.871	20370
890.995	20431
891.118	20339
891.241	20244
891.364	20431
891.488	20541
891.611	20271
891.734	20377
891.857	20533
891.98	20286
892.103	20450
892.226	20434
892.349	20358
892.471	20206
892.594	20206
892.717	20237
892.839	20206
892.962	20172
893.085	20385
893.207	20229
893.33	20191
893.452	20058
893.575	20427
893.697	20290
893.819	20442
893.941	20423
894.064	20282
894.186	20214
894.308	20111
894.43	20343
894.552	20434
894.674	20355
894.796	20176
894.918	20282
895.04	20195
895.161	20355
895.283	20206
895.405	20259
895.526	20229
895.648	20336
895.769	20233
895.891	20362
896.012	20408
896.134	20370
896.255	20275
896.376	20107
896.498	20115
896.619	20221
896.74	20309
896.861	20183
896.982	20583
897.103	20648
897.224	20613
897.345	20503
897.466	20370
897.587	20507
897.708	20587
897.828	20465
897.949	20533
898.07	20320
898.19	20305
898.311	20522
898.431	20461
898.552	20480
898.672	20537
898.792	20651
898.913	20488
899.033	20309
899.153	20377
899.273	20199
899.393	20195
899.513	20408
899.633	20240
899.753	20271
899.873	20100
899.993	20180
900.113	20138
900.232	20240
900.352	20088
900.472	20176
900.591	19955
900.711	20058
900.83	19989
900.95	20096
901.069	20107
901.189	19917
901.308	19567
901.427	19537
901.546	19609
901.665	19556
901.784	19567
901.904	19544
902.023	19324
902.141	19168
902.26	19110
902.379	19088
902.498	19107
902.617	18985
902.735	19240
902.854	19118
902.973	19057
903.091	18631
903.21	18757
903.328	18741
903.446	18658
903.565	18616
903.683	18502
903.801	18604
903.919	18574
904.038	18506
904.156	18403
904.274	18471
904.392	18365
904.51	18209
904.627	18361
904.745	18433
904.863	18418
904.981	18038
905.098	18064
905.216	18034
905.334	18030
905.451	18064
905.569	17950
905.686	17984
905.803	18064
905.921	17805
906.038	17874
906.155	17843
906.272	17691
906.389	17695
906.506	17604
906.623	17604
906.74	17600
906.857	17467
906.974	17467
907.091	17589
907.208	17623
907.324	17604
907.441	17440
907.557	17391
907.674	17345
907.79	17204
907.907	17200
908.023	17288
908.139	17273
908.256	17269
908.372	17060
908.488	17083
908.604	16908
908.72	16961
908.836	17045
908.952	16927
909.068	16976
909.184	17060
909.3	16965
909.415	16968
909.531	16976
909.647	16733
909.762	16759
909.878	16653
909.993	16622
910.108	16683
910.224	16653
910.339	16702
910.454	16519
910.57	16618
910.685	16455
910.8	16721
910.915	16649
911.03	16478
911.145	16306
911.259	16207
911.374	16284
911.489	16242
911.604	16112
911.718	16040
911.833	16097
911.947	15941
912.062	15876
912.176	15972
912.291	16067
912.405	15941
912.519	16204
912.633	16265
912.748	16051
912.862	16029
912.976	15880
913.09	15789
913.204	15751
913.318	15785
913.431	15892
913.545	15907
913.659	15964
913.772	15774
913.886	15690
914	15633
914.113	15720
914.226	15743
914.34	15717
914.453	15405
914.566	15709
914.68	15500
914.793	15424
914.906	15412
915.019	15252
915.132	15176
915.245	15245
915.358	15272
915.47	15245
915.583	15226
915.696	15260
915.809	15275
915.921	15310
916.034	15317
916.146	15097
916.259	15230
916.371	15154
916.483	15146
916.595	15089
916.708	15116
916.82	15097
916.932	15077
917.044	15013
917.156	14960
917.268	14990
917.38	14918
917.491	14872
917.603	14868
917.715	14979
917.826	14990
917.938	14834
918.049	14701
918.161	14765
918.272	14948
918.384	14982
918.495	14712
918.606	14667
918.717	14659
918.828	14659
918.939	14720
919.05	14602
919.161	14686
919.272	14389
919.383	14476
919.494	14693
919.604	14807
919.715	14716
919.826	14541
919.936	14602
920.047	14712
920.157	14621
920.267	14769
920.378	14636
920.488	14552
920.598	14781
920.708	14880
920.818	14651
920.928	14758
921.038	14944
921.148	14815
921.258	14575
921.368	14427
921.477	14442
921.587	14259
921.697	14244
921.806	14263
921.916	14168
922.025	14092
922.134	14050
922.244	13982
922.353	13993
922.462	13818
922.571	13837
922.68	13670
922.789	13674
922.898	13483
923.007	13480
923.116	13567
923.224	13658
923.333	13548
923.442	13533
923.55	13495
923.659	13403
923.767	13438
923.876	13453
923.984	13464
924.092	13362
924.201	13308
924.309	13259
924.417	13297
924.525	13228
924.633	13339
924.741	14183
924.849	13164
924.956	13225
925.064	13080
925.172	12951
925.279	12996
925.387	13053
925.494	12985
925.602	13149
925.709	13000
925.816	12943
925.924	12970
926.031	13034
926.138	12939
926.245	12970
926.352	12909
926.459	13076
926.566	12951
926.673	12932
926.779	12848
926.886	12635
926.993	12658
927.099	12551
927.206	12528
927.312	12574
927.419	12570
927.525	12585
927.631	12608
927.737	12494
927.843	12414
927.95	12315
928.056	12467
928.162	12395
928.267	12433
928.373	13118
928.479	12486
928.585	12315
928.69	12418
928.796	12498
928.901	12224
929.007	12155
929.112	12308
929.218	12357
929.323	12258
929.428	12144
929.533	12228
929.638	12140
929.743	12083
929.848	12163
929.953	11996
930.058	12038
930.163	11855
930.267	11897
930.372	12019
930.477	11840
930.581	11969
930.685	11866
930.79	11870
930.894	11714
930.998	11710
931.103	11935
931.207	11539
931.311	11516
931.415	11273
931.519	11155
931.623	11102
