Data from test_V78500241_2213.txt Node
Date: Fri Mar 25 15:57:07 CST 2022
User: usil
Spectrometer: V785-0024
Trigger mode: 0
Integration Time (sec): 4.000000E-1
Scans to average: 1
Nonlinearity correction enabled: false
Boxcar width: 0
Storing dark spectrum: false
XAxis mode: Wavelengths
Number of Pixels in Spectrum: 1024
>>>>>Begin Spectral Data<<<<<
801.071	29124
801.214	28999
801.356	28866
801.499	28755
801.641	28596
801.783	28649
801.926	28748
802.068	28577
802.211	28512
802.353	28634
802.496	28474
802.638	28394
802.78	28432
802.923	28276
803.065	28322
803.208	28287
803.35	28447
803.492	28508
803.635	28679
803.777	28516
803.919	28683
804.061	28949
804.204	28675
804.346	28569
804.488	28561
804.63	28615
804.773	28592
804.915	28637
805.057	28729
805.199	28542
805.341	28736
805.483	28866
805.626	28957
805.768	28778
805.91	28763
806.052	28923
806.194	28790
806.336	29010
806.478	28820
806.62	28854
806.762	28938
806.904	29037
807.046	29303
807.188	29334
807.33	29330
807.472	29292
807.614	29159
807.756	29250
807.898	29105
808.04	29056
808.182	29048
808.324	29181
808.465	29235
808.607	29292
808.749	29440
808.891	29741
809.033	29722
809.174	29558
809.316	29547
809.458	29627
809.6	29417
809.741	29657
809.883	29737
810.025	29745
810.166	29916
810.308	29878
810.45	29752
810.591	29817
810.733	29573
810.875	29524
811.016	29417
811.158	29486
811.299	29619
811.441	29463
811.582	29562
811.724	29490
811.865	29528
812.007	29585
812.148	29566
812.29	29752
812.431	29676
812.573	29931
812.714	29832
812.855	30129
812.997	30148
813.138	30292
813.279	30079
813.421	30041
813.562	29946
813.703	29813
813.845	29729
813.986	29592
814.127	29410
814.268	29121
814.41	29292
814.551	29284
814.692	29326
814.833	29250
814.974	29231
815.115	29227
815.256	29102
815.397	29208
815.539	29136
815.68	29037
815.821	29014
815.962	29071
816.103	29098
816.244	28877
816.385	28900
816.526	28877
816.666	28725
816.807	28417
816.948	28812
817.089	28793
817.23	28660
817.371	28565
817.512	28611
817.653	28634
817.793	28459
817.934	28694
818.075	28637
818.216	28497
818.356	28577
818.497	28577
818.638	28363
818.778	28409
818.919	28352
819.06	28542
819.2	28413
819.341	28675
819.481	28584
819.622	28729
819.762	28938
819.903	28835
820.043	28828
820.184	28797
820.324	28694
820.465	28778
820.605	28816
820.746	28809
820.886	28565
821.026	28618
821.167	28733
821.307	28603
821.447	28603
821.588	28531
821.728	28310
821.868	28215
822.008	28124
822.149	28013
822.289	28101
822.429	27846
822.569	27770
822.709	27778
822.849	27561
822.99	27663
823.13	27511
823.27	27519
823.41	27450
823.55	27405
823.69	27450
823.83	27256
823.97	27325
824.11	27127
824.25	27188
824.389	27294
824.529	27427
824.669	27252
824.809	27393
824.949	27363
825.089	27340
825.228	27222
825.368	27108
825.508	27138
825.648	27028
825.787	27230
825.927	27135
826.067	27116
826.206	27195
826.346	27241
826.485	27275
826.625	27211
826.765	27176
826.904	27283
827.044	27112
827.183	26902
827.323	26735
827.462	26861
827.601	26830
827.741	26960
827.88	26842
828.02	26724
828.159	26838
828.298	26777
828.437	26800
828.577	26849
828.716	26967
828.855	26781
828.994	26640
829.134	26514
829.273	26705
829.412	26446
829.551	26396
829.69	26552
829.829	26507
829.968	26602
830.107	26693
830.246	26575
830.385	26594
830.524	26381
830.663	26427
830.802	26298
830.941	26195
831.08	26111
831.219	26176
831.357	26172
831.496	26374
831.635	26084
831.774	26046
831.913	26081
832.051	25868
832.19	26035
832.329	25986
832.467	25826
832.606	25605
832.744	25689
832.883	25902
833.022	25811
833.16	25788
833.299	25883
833.437	25826
833.576	25811
833.714	25856
833.852	25860
833.991	25830
834.129	26008
834.267	25963
834.406	25932
834.544	25921
834.682	25776
834.821	25883
834.959	26039
835.097	25765
835.235	25791
835.373	25712
835.511	25898
835.65	25807
835.788	25643
835.926	25544
836.064	25434
836.202	25552
836.34	25632
836.478	25868
836.615	25696
836.753	25761
836.891	25765
837.029	25681
837.167	25616
837.305	25651
837.443	25594
837.58	25468
837.718	25571
837.856	25571
837.993	25449
838.131	25586
838.269	25502
838.406	25453
838.544	25327
838.681	25221
838.819	25266
838.956	25053
839.094	24901
839.231	24905
839.369	25175
839.506	25308
839.643	25232
839.781	25008
839.918	25038
840.055	25034
840.193	24954
840.33	24932
840.467	25027
840.604	24779
840.742	25198
840.879	24779
841.016	24871
841.153	24715
841.29	24916
841.427	24890
841.564	24897
841.701	24760
841.838	24886
841.975	24753
842.112	24757
842.249	24627
842.385	24646
842.522	24738
842.659	24665
842.796	24639
842.933	24654
843.069	24467
843.206	24616
843.343	24776
843.479	24570
843.616	24555
843.752	24475
843.889	24334
844.025	24521
844.162	24388
844.298	24566
844.435	24509
844.571	24353
844.708	24426
844.844	24509
844.98	24536
845.117	24593
845.253	24308
845.389	24296
845.525	24228
845.661	24190
845.798	24083
845.934	24292
846.07	24121
846.206	24121
846.342	24220
846.478	24155
846.614	23939
846.75	23805
846.886	23771
847.022	23863
847.158	23878
847.294	23748
847.429	24015
847.565	23779
847.701	24117
847.837	23547
847.972	23474
848.108	23703
848.244	23752
848.379	23463
848.515	23433
848.65	23379
848.786	23436
848.921	23486
849.057	23433
849.192	23474
849.328	23486
849.463	23486
849.598	23376
849.734	23303
849.869	23181
850.004	23322
850.14	23235
850.275	23284
850.41	23048
850.545	23140
850.68	23174
850.815	23273
850.95	23200
851.085	23379
851.22	23337
851.355	23330
851.49	23235
851.625	23102
851.76	23227
851.895	23121
852.03	23178
852.165	23155
852.299	23261
852.434	23231
852.569	23284
852.703	23140
852.838	23360
852.973	23368
853.107	23174
853.242	23124
853.376	23067
853.511	22961
853.645	22972
853.78	23212
853.914	22995
854.048	23029
854.183	23128
854.317	23052
854.451	23204
854.585	22843
854.72	23094
854.854	23044
854.988	22930
855.122	23067
855.256	22904
855.39	23003
855.524	22953
855.658	23086
855.792	23143
855.926	23006
856.06	23075
856.194	23025
856.327	23029
856.461	22889
856.595	22915
856.729	23037
856.862	22980
856.996	22885
857.13	23113
857.263	23143
857.397	23117
857.53	23105
857.664	23044
857.797	23041
857.931	23159
858.064	23022
858.197	23117
858.331	22968
858.464	23033
858.597	22930
858.731	23098
858.864	22965
858.997	23075
859.13	22995
859.263	23033
859.396	23102
859.529	23010
859.662	22915
859.795	23006
859.928	23048
860.061	23025
860.194	23124
860.327	23098
860.46	23006
860.592	23075
860.725	23178
860.858	23212
860.99	23128
861.123	23052
861.256	22885
861.388	22965
861.521	23710
861.653	22908
861.786	22828
861.918	22744
862.05	22824
862.183	22968
862.315	22911
862.447	23014
862.58	22908
862.712	22740
862.844	22755
862.976	22839
863.108	22790
863.24	23197
863.372	22687
863.504	22786
863.636	22694
863.768	22668
863.9	22694
864.032	22542
864.164	22672
864.296	22733
864.428	22820
864.559	22713
864.691	22805
864.823	22687
864.954	22721
865.086	22649
865.217	22550
865.349	22512
865.48	22523
865.612	22577
865.743	22736
865.875	22535
866.006	22512
866.137	22588
866.269	22626
866.4	22584
866.531	22474
866.662	22470
866.793	22409
866.924	22516
867.055	22531
867.186	22432
867.317	22565
867.448	22504
867.579	22500
867.71	22394
867.841	22436
867.972	22580
868.103	22462
868.233	22565
868.364	22489
868.495	22634
868.625	22721
868.756	22881
868.886	22675
869.017	22729
869.147	22733
869.278	22763
869.408	22873
869.539	22634
869.669	22900
869.799	22774
869.929	22778
870.06	22710
870.19	23018
870.32	23018
870.45	23067
870.58	23147
870.71	23124
870.84	23166
870.97	23159
871.1	23208
871.23	23337
871.36	23360
871.489	23261
871.619	23239
871.749	23337
871.879	23368
872.008	23543
872.138	23410
872.267	23349
872.397	23391
872.526	23178
872.656	23258
872.785	23227
872.915	23414
873.044	23478
873.173	23364
873.303	23482
873.432	23337
873.561	23509
873.69	23364
873.819	23330
873.948	23497
874.077	23261
874.206	23345
874.335	23315
874.464	23440
874.593	23577
874.722	23710
874.851	23539
874.979	23649
875.108	23566
875.237	23452
875.365	23429
875.494	23501
875.623	23710
875.751	23531
875.88	23516
876.008	23687
876.136	23821
876.265	23999
876.393	24129
876.521	23958
876.65	23893
876.778	24079
876.906	23901
877.034	23684
877.162	23942
877.29	23904
877.418	23988
877.546	23954
877.674	23935
877.802	23950
877.93	23950
878.058	23897
878.185	23764
878.313	23859
878.441	23931
878.568	23741
878.696	23851
878.824	24038
878.951	23874
879.079	23992
879.206	24171
879.333	24003
879.461	23882
879.588	24041
879.715	24015
879.842	24224
879.97	23920
880.097	23687
880.224	23737
880.351	23805
880.478	23710
880.605	23627
880.732	23794
880.859	23897
880.986	23760
881.112	23691
881.239	23551
881.366	23364
881.493	23318
881.619	23189
881.746	23250
881.872	23322
881.999	23330
882.125	23174
882.252	23258
882.378	23193
882.505	23303
882.631	23136
882.757	22946
882.883	22900
883.01	22881
883.136	22919
883.262	22809
883.388	22809
883.514	22892
883.64	22908
883.766	22873
883.892	22740
884.018	22763
884.143	22835
884.269	22976
884.395	22675
884.52	22382
884.646	22599
884.772	22519
884.897	22405
885.023	22615
885.148	22672
885.274	22577
885.399	22660
885.524	22653
885.65	22546
885.775	22656
885.9	22519
886.025	22641
886.15	22687
886.275	22512
886.4	22504
886.525	22455
886.65	22497
886.775	22485
886.9	22637
887.025	22790
887.149	22584
887.274	22325
887.399	22223
887.523	22291
887.648	22344
887.773	22219
887.897	22382
888.021	22291
888.146	22234
888.27	22337
888.395	22417
888.519	22356
888.643	22402
888.767	22432
888.891	22234
889.015	22105
889.139	22173
889.263	22169
889.387	22223
889.511	22367
889.635	22261
889.759	22048
889.883	21983
890.006	22131
890.13	22048
890.254	22230
890.377	22090
890.501	21892
890.624	21694
890.748	21956
890.871	21713
890.995	21519
891.118	21564
891.241	21705
891.364	21652
891.488	21873
891.611	21618
891.734	21762
891.857	21713
891.98	21644
892.103	21679
892.226	21660
892.349	21530
892.471	21310
892.594	21458
892.717	21603
892.839	21500
892.962	21507
893.085	21618
893.207	21519
893.33	21401
893.452	21431
893.575	21717
893.697	21580
893.819	21720
893.941	21739
894.064	21663
894.186	21405
894.308	21420
894.43	21488
894.552	21694
894.674	21633
894.796	21386
894.918	21447
895.04	21416
895.161	21625
895.283	21469
895.405	21401
895.526	21504
895.648	21389
895.769	21447
895.891	21580
896.012	21477
896.134	21507
896.255	21519
896.376	21370
896.498	21545
896.619	21447
896.74	21519
896.861	21416
896.982	21766
897.103	21907
897.224	21671
897.345	21709
897.466	21698
897.587	21686
897.708	21793
897.828	21781
897.949	21622
898.07	21496
898.19	21690
898.311	21701
898.431	21641
898.552	21648
898.672	21762
898.792	21739
898.913	21698
899.033	21572
899.153	21580
899.273	21447
899.393	21405
899.513	21386
899.633	21416
899.753	21367
899.873	21431
899.993	21408
900.113	21431
900.232	21462
900.352	21401
900.472	21214
900.591	21173
900.711	21150
900.83	21123
900.95	21222
901.069	21203
901.189	21077
901.308	20876
901.427	20758
901.546	20781
901.665	20758
901.784	20682
901.904	20598
902.023	20564
902.141	20233
902.26	20252
902.379	20415
902.498	20218
902.617	20191
902.735	20248
902.854	20115
902.973	20195
903.091	19887
903.21	19883
903.328	19959
903.446	19769
903.565	19757
903.683	19544
903.801	19483
903.919	19613
904.038	19590
904.156	19422
904.274	19559
904.392	19426
904.51	19388
904.627	19388
904.745	19506
904.863	19590
904.981	19168
905.098	19027
905.216	19148
905.334	19091
905.451	19057
905.569	19027
905.686	19152
905.803	19042
905.921	18909
906.038	18814
906.155	18848
906.272	18719
906.389	18825
906.506	18681
906.623	18692
906.74	18559
906.857	18536
906.974	18547
907.091	18711
907.208	18673
907.324	18738
907.441	18563
907.557	18315
907.674	18407
907.79	18346
907.907	18334
908.023	18338
908.139	18353
908.256	18270
908.372	18292
908.488	18159
908.604	18049
908.72	18140
908.836	18026
908.952	18022
909.068	18034
909.184	18125
909.3	18034
909.415	18011
909.531	18015
909.647	17805
909.762	17722
909.878	17775
909.993	17668
910.108	17608
910.224	17661
910.339	17680
910.454	17585
910.57	17623
910.685	17532
910.8	17790
910.915	17687
911.03	17551
911.145	17398
911.259	17246
911.374	17349
911.489	17227
911.604	17246
911.718	17025
911.833	17048
911.947	16961
912.062	16793
912.176	17071
912.291	17029
912.405	17045
912.519	17246
912.633	17227
912.748	17033
912.862	16953
912.976	16949
913.09	16786
913.204	16820
913.318	16900
913.431	16828
913.545	16824
913.659	16923
913.772	16790
913.886	16615
914	16611
914.113	16694
914.226	16759
914.34	16755
914.453	16504
914.566	16485
914.68	16504
914.793	16421
914.906	16386
915.019	16135
915.132	16200
915.245	16234
915.358	16226
915.47	16291
915.583	16207
915.696	16188
915.809	16246
915.921	16306
916.034	16112
916.146	16147
916.259	16105
916.371	16150
916.483	16124
916.595	16002
916.708	15949
916.82	15918
916.932	16010
917.044	15987
917.156	15838
917.268	15831
917.38	15823
917.491	15846
917.603	15816
917.715	15804
917.826	15926
917.938	15804
918.049	15762
918.161	15789
918.272	15819
918.384	15808
918.495	15701
918.606	15610
918.717	15431
918.828	15599
918.939	15519
919.05	15439
919.161	15507
919.272	15283
919.383	15351
919.494	15587
919.604	15747
919.715	15545
919.826	15340
919.936	15492
920.047	15568
920.157	15511
920.267	15694
920.378	15485
920.488	15401
920.598	15591
920.708	15781
920.818	15667
920.928	15549
921.038	15743
921.148	15728
921.258	15351
921.368	15321
921.477	15218
921.587	15150
921.697	15081
921.806	15119
921.916	15077
922.025	14876
922.134	14838
922.244	14826
922.353	14853
922.462	14765
922.571	14564
922.68	14511
922.789	14434
922.898	14469
923.007	14511
923.116	14492
923.224	14530
923.333	14427
923.442	14328
923.55	14244
923.659	14259
923.767	14396
923.876	14195
923.984	14332
924.092	14130
924.201	14145
924.309	14149
924.417	14126
924.525	14062
924.633	14191
924.741	15005
924.849	13849
924.956	14077
925.064	13875
925.172	13917
925.279	13769
925.387	13814
925.494	13761
925.602	13928
925.709	13898
925.816	13674
925.924	13704
926.031	13769
926.138	13772
926.245	13803
926.352	13727
926.459	13738
926.566	13757
926.673	13658
926.779	13460
926.886	13544
926.993	13354
927.099	13316
927.206	13327
927.312	13308
927.419	13331
927.525	13331
927.631	13289
927.737	13278
927.843	13297
927.95	13080
928.056	13213
928.162	13282
928.267	13255
928.373	13864
928.479	13236
928.585	13038
928.69	13110
928.796	13160
928.901	12989
929.007	12840
929.112	12977
929.218	12985
929.323	12913
929.428	12970
929.533	12977
929.638	12810
929.743	12817
929.848	12947
929.953	12753
930.058	12722
930.163	12612
930.267	12585
930.372	12711
930.477	12471
930.581	12772
930.685	12578
930.79	12372
930.894	12445
930.998	12376
931.103	12521
931.207	12182
931.311	12095
931.415	11942
931.519	11695
931.623	11794
