Data from test_V78500241_116.txt Node
Date: Fri Mar 25 15:42:36 CST 2022
User: usil
Spectrometer: V785-0024
Trigger mode: 0
Integration Time (sec): 4.000000E-1
Scans to average: 1
Nonlinearity correction enabled: false
Boxcar width: 0
Storing dark spectrum: false
XAxis mode: Wavelengths
Number of Pixels in Spectrum: 1024
>>>>>Begin Spectral Data<<<<<
801.071	29760
801.214	29775
801.356	29573
801.499	29452
801.641	29246
801.783	29330
801.926	29292
802.068	29261
802.211	29128
802.353	29018
802.496	28854
802.638	28881
802.78	28953
802.923	28748
803.065	28831
803.208	28801
803.35	28980
803.492	28949
803.635	29010
803.777	28949
803.919	29159
804.061	29288
804.204	28938
804.346	28934
804.488	28961
804.63	28869
804.773	28984
804.915	29041
805.057	28919
805.199	28923
805.341	28999
805.483	29022
805.626	29079
805.768	28961
805.91	29147
806.052	29212
806.194	29037
806.336	29292
806.478	29083
806.62	28961
806.762	29227
806.904	29269
807.046	29596
807.188	29528
807.33	29581
807.472	29573
807.614	29364
807.756	29406
807.898	29258
808.04	29273
808.182	29315
808.324	29379
808.465	29269
808.607	29459
808.749	29501
808.891	29653
809.033	29859
809.174	29687
809.316	29615
809.458	29802
809.6	29566
809.741	29649
809.883	29718
810.025	29916
810.166	29855
810.308	29733
810.45	29687
810.591	29824
810.733	29710
810.875	29551
811.016	29531
811.158	29452
811.299	29859
811.441	29691
811.582	29771
811.724	29630
811.865	29646
812.007	29585
812.148	29630
812.29	29699
812.431	29707
812.573	29912
812.714	29866
812.855	30057
812.997	30140
813.138	30258
813.279	30228
813.421	30015
813.562	30178
813.703	29851
813.845	29813
813.986	29505
814.127	29353
814.268	29254
814.41	29075
814.551	29121
814.692	29315
814.833	29280
814.974	29094
815.115	29102
815.256	29014
815.397	29014
815.539	28976
815.68	28858
815.821	28805
815.962	28847
816.103	28771
816.244	28755
816.385	28672
816.526	28664
816.666	28417
816.807	28280
816.948	28394
817.089	28390
817.23	28295
817.371	28185
817.512	28242
817.653	28268
817.793	28276
817.934	28310
818.075	28143
818.216	28272
818.356	28177
818.497	28173
818.638	27998
818.778	28086
818.919	27975
819.06	28166
819.2	28040
819.341	28318
819.481	28059
819.622	28428
819.762	28527
819.903	28360
820.043	28451
820.184	28291
820.324	28265
820.465	28348
820.605	28265
820.746	28272
820.886	28116
821.026	28223
821.167	28204
821.307	28424
821.447	28139
821.588	27994
821.728	27892
821.868	27892
822.008	27728
822.149	27603
822.289	27603
822.429	27386
822.569	27325
822.709	27211
822.849	27093
822.99	27218
823.13	27100
823.27	26990
823.41	26857
823.55	26651
823.69	26788
823.83	26826
823.97	26880
824.11	26693
824.25	26453
824.389	26659
824.529	26834
824.669	26785
824.809	26686
824.949	26861
825.089	26830
825.228	26686
825.368	26484
825.508	26461
825.648	26587
825.787	26537
825.927	26492
826.067	26518
826.206	26393
826.346	26499
826.485	26446
826.625	26488
826.765	26522
826.904	26427
827.044	26229
827.183	26229
827.323	26096
827.462	26229
827.601	26180
827.741	26149
827.88	26134
828.02	25997
828.159	25898
828.298	26073
828.437	26138
828.577	26100
828.716	26202
828.855	26100
828.994	25841
829.134	25925
829.273	25860
829.412	25761
829.551	25639
829.69	25731
829.829	25803
829.968	25837
830.107	25898
830.246	25632
830.385	25529
830.524	25533
830.663	25567
830.802	25449
830.941	25354
831.08	25365
831.219	25289
831.357	25403
831.496	25403
831.635	25289
831.774	25091
831.913	25152
832.051	25080
832.19	25034
832.329	25107
832.467	25008
832.606	24951
832.744	24859
832.883	24814
833.022	24749
833.16	24901
833.299	24901
833.437	24954
833.576	24924
833.714	24852
833.852	24992
833.991	25126
834.129	25088
834.267	24932
834.406	24886
834.544	24966
834.682	24901
834.821	24817
834.959	25053
835.097	24730
835.235	24996
835.373	24817
835.511	24867
835.65	24722
835.788	24753
835.926	24559
836.064	24574
836.202	24570
836.34	24635
836.478	24749
836.615	24760
836.753	24620
836.891	24772
837.029	24760
837.167	24566
837.305	24490
837.443	24650
837.58	24490
837.718	24684
837.856	24570
837.993	24433
838.131	24612
838.269	24388
838.406	24422
838.544	24251
838.681	24186
838.819	24129
838.956	23946
839.094	23920
839.231	23954
839.369	24091
839.506	24292
839.643	24053
839.781	23977
839.918	23847
840.055	23916
840.193	23790
840.33	23817
840.467	23901
840.604	23836
840.742	24064
840.879	23726
841.016	23885
841.153	23627
841.29	23874
841.427	23824
841.564	23729
841.701	23737
841.838	23649
841.975	23699
842.112	23672
842.249	23649
842.385	23455
842.522	23695
842.659	23600
842.796	23383
842.933	23531
843.069	23372
843.206	23353
843.343	23474
843.479	23353
843.616	23414
843.752	23231
843.889	23136
844.025	23414
844.162	23159
844.298	23296
844.435	23204
844.571	23128
844.708	23193
844.844	23345
844.98	23265
845.117	23220
845.253	23185
845.389	23010
845.525	23041
845.661	23029
845.798	22915
845.934	22919
846.07	22881
846.206	23003
846.342	23071
846.478	22774
846.614	22698
846.75	22538
846.886	22603
847.022	22717
847.158	22584
847.294	22653
847.429	22656
847.565	22664
847.701	22824
847.837	22470
847.972	22295
848.108	22550
848.244	22280
848.379	22333
848.515	22276
848.65	22135
848.786	22093
848.921	22204
849.057	22287
849.192	22318
849.328	22135
849.463	22055
849.598	21994
849.734	22078
849.869	22162
850.004	21937
850.14	22010
850.275	21922
850.41	21945
850.545	21793
850.68	21838
850.815	21983
850.95	21850
851.085	22032
851.22	21903
851.355	21846
851.49	21816
851.625	21785
851.76	21865
851.895	21827
852.03	21781
852.165	21797
852.299	21869
852.434	22021
852.569	21915
852.703	21937
852.838	21842
852.973	21956
853.107	21949
853.242	21934
853.376	21618
853.511	21534
853.645	21698
853.78	21778
853.914	21816
854.048	21694
854.183	21648
854.317	21694
854.451	21876
854.585	21637
854.72	21679
854.854	21686
854.988	21454
855.122	21572
855.256	21523
855.39	21698
855.524	21724
855.658	21644
855.792	21690
855.926	21698
856.06	21701
856.194	21633
856.327	21603
856.461	21591
856.595	21576
856.729	21637
856.862	21762
856.996	21633
857.13	21736
857.263	21751
857.397	21705
857.53	21641
857.664	21724
857.797	21682
857.931	21698
858.064	21583
858.197	21781
858.331	21572
858.464	21572
858.597	21523
858.731	21679
858.864	21610
858.997	21568
859.13	21500
859.263	21580
859.396	21663
859.529	21519
859.662	21561
859.795	21576
859.928	21583
860.061	21686
860.194	21827
860.327	21667
860.46	21500
860.592	21717
860.725	21724
860.858	21660
860.99	21492
861.123	21374
861.256	21473
861.388	21447
861.521	22063
861.653	21424
861.786	21450
861.918	21355
862.05	21530
862.183	21538
862.315	21618
862.447	21599
862.58	21488
862.712	21439
862.844	21302
862.976	21450
863.108	21374
863.24	21667
863.372	21325
863.504	21291
863.636	21287
863.768	21256
863.9	21237
864.032	21009
864.164	21195
864.296	21184
864.428	21389
864.559	21252
864.691	21348
864.823	21218
864.954	21237
865.086	21207
865.217	21146
865.349	20925
865.48	21116
865.612	21203
865.743	21279
865.875	21203
866.006	21176
866.137	21077
866.269	21214
866.4	21100
866.531	21188
866.662	21131
866.793	21085
866.924	21077
867.055	21089
867.186	21055
867.317	21119
867.448	21085
867.579	21028
867.71	21017
867.841	20998
867.972	21184
868.103	21154
868.233	21093
868.364	21184
868.495	21180
868.625	21199
868.756	21294
868.886	21195
869.017	21329
869.147	21393
869.278	21264
869.408	21382
869.539	21203
869.669	21435
869.799	21313
869.929	21542
870.06	21412
870.19	21515
870.32	21599
870.45	21564
870.58	21568
870.71	21743
870.84	21808
870.97	21694
871.1	21595
871.23	21876
871.36	21876
871.489	21728
871.619	21823
871.749	21880
871.879	21926
872.008	22010
872.138	21922
872.267	21964
872.397	21755
872.526	21667
872.656	21797
872.785	21850
872.915	21869
873.044	22040
873.173	21880
873.303	21975
873.432	22002
873.561	22067
873.69	21926
873.819	21831
873.948	22150
874.077	21869
874.206	21903
874.335	21816
874.464	22112
874.593	22196
874.722	22055
874.851	22276
874.979	22257
875.108	22306
875.237	22116
875.365	21979
875.494	22238
875.623	22299
875.751	22204
875.88	22219
876.008	22325
876.136	22306
876.265	22489
876.393	22683
876.521	22596
876.65	22634
876.778	22398
876.906	22550
877.034	22417
877.162	22535
877.29	22508
877.418	22519
877.546	22508
877.674	22542
877.802	22409
877.93	22493
878.058	22459
878.185	22329
878.313	22500
878.441	22436
878.568	22249
878.696	22535
878.824	22599
878.951	22596
879.079	22573
879.206	22816
879.333	22691
879.461	22421
879.588	22660
879.715	22641
879.842	22831
879.97	22660
880.097	22405
880.224	22367
880.351	22367
880.478	22394
880.605	22310
880.732	22154
880.859	22649
880.986	22268
881.112	22421
881.239	22337
881.366	22044
881.493	21998
881.619	21880
881.746	21876
881.872	21797
881.999	22059
882.125	21717
882.252	21975
882.378	21880
882.505	22090
882.631	21884
882.757	21580
882.883	21736
883.01	21583
883.136	21622
883.262	21507
883.388	21431
883.514	21701
883.64	21663
883.766	21652
883.892	21401
884.018	21420
884.143	21454
884.269	21675
884.395	21329
884.52	21264
884.646	21321
884.772	21165
884.897	21169
885.023	21264
885.148	21313
885.274	21340
885.399	21408
885.524	21287
885.65	21317
885.775	21203
885.9	21214
886.025	21344
886.15	21260
886.275	21142
886.4	21116
886.525	21184
886.65	21096
886.775	21093
886.9	21389
887.025	21363
887.149	21283
887.274	21058
887.399	20967
887.523	21028
887.648	20902
887.773	20963
887.897	21055
888.021	21093
888.146	21089
888.27	21081
888.395	21062
888.519	21017
888.643	21036
888.767	20990
888.891	20811
889.015	20758
889.139	20868
889.263	20880
889.387	20804
889.511	20956
889.635	20952
889.759	20659
889.883	20826
890.006	20819
890.13	20819
890.254	20693
890.377	20648
890.501	20465
890.624	20450
890.748	20488
890.871	20415
890.995	20362
891.118	20221
891.241	20347
891.364	20229
891.488	20396
891.611	20355
891.734	20317
891.857	20442
891.98	20252
892.103	20328
892.226	20370
892.349	20294
892.471	20103
892.594	20301
892.717	20332
892.839	20324
892.962	20092
893.085	20396
893.207	20248
893.33	20062
893.452	20138
893.575	20271
893.697	20328
893.819	20278
893.941	20404
894.064	20298
894.186	20199
894.308	20119
894.43	20442
894.552	20374
894.674	20290
894.796	20088
894.918	20115
895.04	20180
895.161	20275
895.283	20244
895.405	20199
895.526	20229
895.648	20225
895.769	20134
895.891	20278
896.012	20347
896.134	20343
896.255	20218
896.376	20214
896.498	20180
896.619	20294
896.74	20282
896.861	20434
896.982	20636
897.103	20830
897.224	20594
897.345	20514
897.466	20374
897.587	20381
897.708	20564
897.828	20514
897.949	20503
898.07	20336
898.19	20339
898.311	20537
898.431	20396
898.552	20431
898.672	20556
898.792	20450
898.913	20343
899.033	20408
899.153	20153
899.273	20012
899.393	20138
899.513	20062
899.633	20050
899.753	20195
899.873	19932
899.993	20252
900.113	20206
900.232	20096
900.352	20107
900.472	19921
900.591	19928
900.711	19830
900.83	19940
900.95	19906
901.069	20031
901.189	19826
901.308	19746
901.427	19525
901.546	19556
901.665	19620
901.784	19556
901.904	19392
902.023	19308
902.141	19156
902.26	18993
902.379	19133
902.498	19050
902.617	18962
902.735	19091
902.854	18916
902.973	18924
903.091	18768
903.21	18700
903.328	18719
903.446	18521
903.565	18551
903.683	18429
903.801	18273
903.919	18388
904.038	18418
904.156	18186
904.274	18178
904.392	18174
904.51	18136
904.627	18209
904.745	18163
904.863	18319
904.981	18022
905.098	17897
905.216	17897
905.334	17904
905.451	17946
905.569	17855
905.686	17843
905.803	17840
905.921	17672
906.038	17828
906.155	17737
906.272	17512
906.389	17623
906.506	17471
906.623	17360
906.74	17471
906.857	17155
906.974	17277
907.091	17486
907.208	17562
907.324	17395
907.441	17208
907.557	17250
907.674	17151
907.79	16999
907.907	17086
908.023	17143
908.139	17056
908.256	17067
908.372	16987
908.488	16965
908.604	16782
908.72	16710
908.836	16790
908.952	16679
909.068	16820
909.184	16843
909.3	16797
909.415	16702
909.531	16767
909.647	16428
909.762	16413
909.878	16474
909.993	16481
910.108	16394
910.224	16500
910.339	16523
910.454	16371
910.57	16246
910.685	16230
910.8	16459
910.915	16428
911.03	16276
911.145	16139
911.259	16074
911.374	16055
911.489	15998
911.604	15926
911.718	15751
911.833	15724
911.947	15759
912.062	15595
912.176	15739
912.291	15827
912.405	15766
912.519	15972
912.633	15994
912.748	15762
912.862	15698
912.976	15595
913.09	15576
913.204	15523
913.318	15652
913.431	15663
913.545	15561
913.659	15641
913.772	15534
913.886	15462
914	15351
914.113	15492
914.226	15401
914.34	15534
914.453	15260
914.566	15469
914.68	15370
914.793	15157
914.906	15039
915.019	15074
915.132	15013
915.245	14948
915.358	14979
915.47	15127
915.583	15032
915.696	15017
915.809	15142
915.921	15127
916.034	14918
916.146	14883
916.259	14876
916.371	14975
916.483	14891
916.595	14792
916.708	14819
916.82	14834
916.932	14899
917.044	14754
917.156	14746
917.268	14640
917.38	14617
917.491	14697
917.603	14727
917.715	14754
917.826	14762
917.938	14617
918.049	14526
918.161	14590
918.272	14743
918.384	14708
918.495	14610
918.606	14427
918.717	14294
918.828	14446
918.939	14461
919.05	14278
919.161	14294
919.272	14142
919.383	14199
919.494	14339
919.604	14571
919.715	14332
919.826	14248
919.936	14298
920.047	14396
920.157	14301
920.267	14541
920.378	14343
920.488	14183
920.598	14431
920.708	14689
920.818	14415
920.928	14423
921.038	14583
921.148	14571
921.258	14298
921.368	14123
921.477	14088
921.587	14046
921.697	13894
921.806	14081
921.916	13944
922.025	13738
922.134	13746
922.244	13628
922.353	13723
922.462	13605
922.571	13540
922.68	13304
922.789	13320
922.898	13400
923.007	13263
923.116	13331
923.224	13289
923.333	13247
923.442	13209
923.55	13057
923.659	13122
923.767	13255
923.876	13183
923.984	13129
924.092	12958
924.201	13046
924.309	13152
924.417	13080
924.525	13015
924.633	12985
924.741	13856
924.849	12821
924.956	12935
925.064	12798
925.172	12673
925.279	12730
925.387	12825
925.494	12722
925.602	12939
925.709	12833
925.816	12677
925.924	12760
926.031	12802
926.138	12684
926.245	12741
926.352	12616
926.459	12722
926.566	12776
926.673	12627
926.779	12528
926.886	12498
926.993	12388
927.099	12433
927.206	12311
927.312	12346
927.419	12315
927.525	12334
927.631	12311
927.737	12209
927.843	12159
927.95	12102
928.056	12038
928.162	12133
928.267	12117
928.373	12810
928.479	12167
928.585	11954
928.69	12022
928.796	12098
928.901	12068
929.007	11805
929.112	12003
929.218	11920
929.323	11950
929.428	11961
929.533	11988
929.638	11729
929.743	11824
929.848	11855
929.953	11855
930.058	11665
930.163	11520
930.267	11512
930.372	11779
930.477	11482
930.581	11741
930.685	11501
930.79	11391
930.894	11516
930.998	11463
931.103	11490
931.207	11132
931.311	11052
931.415	11052
931.519	10847
931.623	10767
