Data from test_V78500241_2730.txt Node
Date: Fri Mar 25 16:00:42 CST 2022
User: usil
Spectrometer: V785-0024
Trigger mode: 0
Integration Time (sec): 4.000000E-1
Scans to average: 1
Nonlinearity correction enabled: false
Boxcar width: 0
Storing dark spectrum: false
XAxis mode: Wavelengths
Number of Pixels in Spectrum: 1024
>>>>>Begin Spectral Data<<<<<
801.071	28801
801.214	28622
801.356	28489
801.499	28596
801.641	28489
801.783	28462
801.926	28379
802.068	28424
802.211	28421
802.353	28276
802.496	28223
802.638	28177
802.78	28086
802.923	27964
803.065	27998
803.208	28143
803.35	28086
803.492	28204
803.635	28306
803.777	28215
803.919	28440
804.061	28542
804.204	28455
804.346	28154
804.488	28185
804.63	28440
804.773	28158
804.915	28344
805.057	28523
805.199	28360
805.341	28512
805.483	28519
805.626	28497
805.768	28379
805.91	28504
806.052	28565
806.194	28379
806.336	28584
806.478	28630
806.62	28626
806.762	28679
806.904	28828
807.046	29044
807.188	28938
807.33	28892
807.472	29098
807.614	28801
807.756	28923
807.898	28934
808.04	28702
808.182	28778
808.324	28790
808.465	29029
808.607	29109
808.749	29239
808.891	29341
809.033	29379
809.174	29239
809.316	29147
809.458	29155
809.6	29166
809.741	29231
809.883	29197
810.025	29554
810.166	29589
810.308	29360
810.45	29486
810.591	29330
810.733	29288
810.875	29284
811.016	29166
811.158	29193
811.299	29334
811.441	29433
811.582	29429
811.724	29303
811.865	29216
812.007	29204
812.148	29159
812.29	29258
812.431	29539
812.573	29646
812.714	29703
812.855	29771
812.997	29779
813.138	29935
813.279	29958
813.421	29893
813.562	29764
813.703	29596
813.845	29516
813.986	29200
814.127	28965
814.268	28980
814.41	28999
814.551	28888
814.692	29140
814.833	28778
814.974	28999
815.115	29029
815.256	28790
815.397	28691
815.539	28763
815.68	28755
815.821	28736
815.962	28740
816.103	28717
816.244	28675
816.385	28493
816.526	28519
816.666	28306
816.807	28226
816.948	28394
817.089	28329
817.23	28272
817.371	28166
817.512	28265
817.653	28211
817.793	28310
817.934	28348
818.075	28272
818.216	28253
818.356	28200
818.497	28070
818.638	27926
818.778	28040
818.919	28010
819.06	28124
819.2	28105
819.341	28196
819.481	28284
819.622	28424
819.762	28573
819.903	28493
820.043	28436
820.184	28363
820.324	28310
820.465	28565
820.605	28401
820.746	28329
820.886	28204
821.026	28371
821.167	28112
821.307	28390
821.447	28325
821.588	28128
821.728	28067
821.868	27838
822.008	27720
822.149	27808
822.289	27838
822.429	27610
822.569	27538
822.709	27477
822.849	27317
822.99	27233
823.13	27119
823.27	27157
823.41	27104
823.55	26956
823.69	27150
823.83	27058
823.97	26975
824.11	26815
824.25	26876
824.389	26929
824.529	26998
824.669	26887
824.809	27005
824.949	26891
825.089	27005
825.228	26967
825.368	26701
825.508	26739
825.648	26731
825.787	26838
825.927	26849
826.067	26796
826.206	26727
826.346	26750
826.485	26944
826.625	26674
826.765	26864
826.904	26765
827.044	26659
827.183	26670
827.323	26503
827.462	26579
827.601	26530
827.741	26484
827.88	26560
828.02	26317
828.159	26381
828.298	26461
828.437	26511
828.577	26625
828.716	26629
828.855	26438
828.994	26115
829.134	26214
829.273	26206
829.412	26214
829.551	26195
829.69	26229
829.829	26252
829.968	26202
830.107	26298
830.246	26233
830.385	26077
830.524	26024
830.663	25993
830.802	25928
830.941	25803
831.08	25647
831.219	25833
831.357	25811
831.496	25909
831.635	25887
831.774	25586
831.913	25696
832.051	25674
832.19	25495
832.329	25586
832.467	25567
832.606	25415
832.744	25514
832.883	25365
833.022	25430
833.16	25571
833.299	25590
833.437	25449
833.576	25586
833.714	25609
833.852	25674
833.991	25521
834.129	25605
834.267	25613
834.406	25590
834.544	25537
834.682	25430
834.821	25514
834.959	25742
835.097	25445
835.235	25643
835.373	25514
835.511	25476
835.65	25426
835.788	25358
835.926	25175
836.064	25168
836.202	25168
836.34	25312
836.478	25578
836.615	25369
836.753	25312
836.891	25502
837.029	25316
837.167	25270
837.305	25244
837.443	25244
837.58	25141
837.718	25228
837.856	25285
837.993	25133
838.131	25213
838.269	25088
838.406	25141
838.544	24962
838.681	24825
838.819	24833
838.956	24688
839.094	24787
839.231	24749
839.369	24840
839.506	25091
839.643	24878
839.781	24574
839.918	24486
840.055	24654
840.193	24547
840.33	24502
840.467	24597
840.604	24551
840.742	24817
840.879	24372
841.016	24391
841.153	24479
841.29	24646
841.427	24467
841.564	24528
841.701	24433
841.838	24494
841.975	24456
842.112	24528
842.249	24365
842.385	24182
842.522	24517
842.659	24361
842.796	24232
842.933	24254
843.069	24235
843.206	24155
843.343	24384
843.479	24350
843.616	24235
843.752	24053
843.889	24018
844.025	24194
844.162	24125
844.298	24129
844.435	24003
844.571	23999
844.708	24178
844.844	24224
844.98	24220
845.117	24186
845.253	23969
845.389	23961
845.525	24034
845.661	23973
845.798	23745
845.934	23821
846.07	23794
846.206	23950
846.342	23889
846.478	23828
846.614	23581
846.75	23497
846.886	23547
847.022	23524
847.158	23596
847.294	23524
847.429	23562
847.565	23528
847.701	23665
847.837	23318
847.972	23170
848.108	23356
848.244	23303
848.379	23216
848.515	23147
848.65	23136
848.786	23102
848.921	23185
849.057	23334
849.192	23159
849.328	23162
849.463	23102
849.598	23083
849.734	23064
849.869	22961
850.004	22961
850.14	23044
850.275	22919
850.41	22953
850.545	22809
850.68	22839
850.815	22927
850.95	22938
851.085	23094
851.22	22984
851.355	22934
851.49	22843
851.625	22858
851.76	22869
851.895	22873
852.03	22835
852.165	22786
852.299	22809
852.434	23033
852.569	22854
852.703	22881
852.838	22984
852.973	23048
853.107	23003
853.242	22797
853.376	22660
853.511	22538
853.645	22771
853.78	22774
853.914	22778
854.048	22637
854.183	22596
854.317	22774
854.451	22828
854.585	22641
854.72	22668
854.854	22896
854.988	22759
855.122	22713
855.256	22622
855.39	22694
855.524	22755
855.658	22752
855.792	22675
855.926	22706
856.06	22740
856.194	22675
856.327	22653
856.461	22710
856.595	22675
856.729	22641
856.862	22896
856.996	22771
857.13	22721
857.263	22850
857.397	22778
857.53	22622
857.664	22729
857.797	22733
857.931	22831
858.064	22843
858.197	22778
858.331	22694
858.464	22459
858.597	22713
858.731	22767
858.864	22634
858.997	22557
859.13	22634
859.263	22862
859.396	22767
859.529	22702
859.662	22645
859.795	22569
859.928	22618
860.061	22850
860.194	22797
860.327	22698
860.46	22660
860.592	22744
860.725	22752
860.858	22927
860.99	22630
861.123	22634
861.256	22683
861.388	22687
861.521	23512
861.653	22523
861.786	22432
861.918	22565
862.05	22542
862.183	22672
862.315	22782
862.447	22744
862.58	22557
862.712	22337
862.844	22447
862.976	22508
863.108	22432
863.24	22831
863.372	22322
863.504	22519
863.636	22417
863.768	22542
863.9	22379
864.032	22322
864.164	22295
864.296	22508
864.428	22451
864.559	22417
864.691	22390
864.823	22348
864.954	22421
865.086	22386
865.217	22295
865.349	22112
865.48	22261
865.612	22360
865.743	22565
865.875	22329
866.006	22341
866.137	22329
866.269	22348
866.4	22215
866.531	22299
866.662	22299
866.793	22204
866.924	22230
867.055	22295
867.186	22306
867.317	22249
867.448	22177
867.579	22162
867.71	22101
867.841	22074
867.972	22211
868.103	22284
868.233	22230
868.364	22257
868.495	22325
868.625	22371
868.756	22493
868.886	22356
869.017	22421
869.147	22573
869.278	22607
869.408	22459
869.539	22421
869.669	22462
869.799	22489
869.929	22713
870.06	22630
870.19	22881
870.32	22717
870.45	22706
870.58	22824
870.71	22889
870.84	22972
870.97	22881
871.1	22930
871.23	22995
871.36	23071
871.489	22972
871.619	23003
871.749	22919
871.879	23109
872.008	23223
872.138	23041
872.267	23029
872.397	23010
872.526	22782
872.656	22896
872.785	22866
872.915	23010
873.044	23227
873.173	22957
873.303	23056
873.432	23124
873.561	23124
873.69	23041
873.819	23083
873.948	23044
874.077	23037
874.206	22972
874.335	23117
874.464	23303
874.593	23349
874.722	23174
874.851	23273
874.979	23376
875.108	23307
875.237	23341
875.365	23292
875.494	23212
875.623	23417
875.751	23292
875.88	23216
876.008	23463
876.136	23474
876.265	23634
876.393	23722
876.521	23802
876.65	23771
876.778	23619
876.906	23668
877.034	23535
877.162	23600
877.29	23558
877.418	23585
877.546	23680
877.674	23661
877.802	23539
877.93	23539
878.058	23516
878.185	23463
878.313	23543
878.441	23512
878.568	23452
878.696	23566
878.824	23611
878.951	23699
879.079	23733
879.206	23935
879.333	23733
879.461	23687
879.588	23687
879.715	23783
879.842	24003
879.97	23832
880.097	23395
880.224	23474
880.351	23459
880.478	23402
880.605	23440
880.732	23425
880.859	23733
880.986	23379
881.112	23429
881.239	23299
881.366	23288
881.493	23098
881.619	22949
881.746	22949
881.872	23010
881.999	22995
882.125	22843
882.252	22953
882.378	22904
882.505	22987
882.631	22828
882.757	22698
882.883	22816
883.01	22634
883.136	22611
883.262	22611
883.388	22538
883.514	22641
883.64	22713
883.766	22523
883.892	22523
884.018	22535
884.143	22649
884.269	22649
884.395	22306
884.52	22272
884.646	22223
884.772	22291
884.897	22162
885.023	22284
885.148	22424
885.274	22447
885.399	22466
885.524	22371
885.65	22150
885.775	22318
885.9	22204
886.025	22394
886.15	22348
886.275	22067
886.4	22238
886.525	22356
886.65	22249
886.775	22181
886.9	22303
887.025	22493
887.149	22291
887.274	22040
887.399	22044
887.523	22067
887.648	21934
887.773	21937
887.897	22166
888.021	22025
888.146	21975
888.27	22040
888.395	22162
888.519	22013
888.643	22082
888.767	21991
888.891	22154
889.015	21831
889.139	21972
889.263	21869
889.387	21895
889.511	22059
889.635	21968
889.759	21945
889.883	21835
890.006	21816
890.13	21934
890.254	21793
890.377	21781
890.501	21656
890.624	21507
890.748	21542
890.871	21397
890.995	21329
891.118	21340
891.241	21454
891.364	21511
891.488	21370
891.611	21367
891.734	21428
891.857	21355
891.98	21424
892.103	21351
892.226	21447
892.349	21260
892.471	21230
892.594	21397
892.717	21336
892.839	21351
892.962	21275
893.085	21329
893.207	21302
893.33	21233
893.452	21192
893.575	21230
893.697	21256
893.819	21435
893.941	21492
894.064	21268
894.186	21169
894.308	21207
894.43	21291
894.552	21447
894.674	21272
894.796	21135
894.918	21294
895.04	21241
895.161	21340
895.283	21325
895.405	21146
895.526	21218
895.648	21218
895.769	21203
895.891	21233
896.012	21355
896.134	21291
896.255	21203
896.376	21184
896.498	21310
896.619	21264
896.74	21363
896.861	21302
896.982	21481
897.103	21671
897.224	21667
897.345	21492
897.466	21367
897.587	21374
897.708	21595
897.828	21496
897.949	21294
898.07	21317
898.19	21340
898.311	21481
898.431	21344
898.552	21359
898.672	21553
898.792	21424
898.913	21393
899.033	21230
899.153	21245
899.273	21028
899.393	21173
899.513	21252
899.633	21226
899.753	21241
899.873	21039
899.993	21188
900.113	21089
900.232	21116
900.352	21093
900.472	21028
900.591	20891
900.711	20944
900.83	20792
900.95	21017
901.069	21157
901.189	20880
901.308	20556
901.427	20377
901.546	20530
901.665	20613
901.784	20575
901.904	20427
902.023	20176
902.141	20122
902.26	20031
902.379	20202
902.498	20081
902.617	20020
902.735	19963
902.854	19963
902.973	19833
903.091	19715
903.21	19727
903.328	19670
903.446	19605
903.565	19556
903.683	19426
903.801	19324
903.919	19430
904.038	19464
904.156	19255
904.274	19236
904.392	19335
904.51	19183
904.627	19126
904.745	19221
904.863	19209
904.981	19023
905.098	18844
905.216	18856
905.334	18993
905.451	18935
905.569	18791
905.686	18848
905.803	18821
905.921	18715
906.038	18722
906.155	18669
906.272	18563
906.389	18593
906.506	18429
906.623	18410
906.74	18380
906.857	18342
906.974	18209
907.091	18384
907.208	18525
907.324	18353
907.441	18243
907.557	18140
907.674	18144
907.79	18152
907.907	18049
908.023	18098
908.139	18163
908.256	18079
908.372	17999
908.488	18003
908.604	17851
908.72	17824
908.836	17828
908.952	17779
909.068	17893
909.184	17882
909.3	17779
909.415	17908
909.531	17764
909.647	17577
909.762	17493
909.878	17497
909.993	17501
910.108	17532
910.224	17444
910.339	17436
910.454	17307
910.57	17341
910.685	17246
910.8	17349
910.915	17463
911.03	17292
911.145	17143
911.259	17037
911.374	17098
911.489	17048
911.604	16965
911.718	16881
911.833	16824
911.947	16767
912.062	16710
912.176	16854
912.291	16850
912.405	16790
912.519	17014
912.633	17018
912.748	16881
912.862	16767
912.976	16675
913.09	16596
913.204	16672
913.318	16615
913.431	16725
913.545	16736
913.659	16656
913.772	16618
913.886	16417
914	16360
914.113	16573
914.226	16462
914.34	16470
914.453	16303
914.566	16451
914.68	16287
914.793	16249
914.906	16116
915.019	16017
915.132	15895
915.245	16002
915.358	16002
915.47	16021
915.583	16074
915.696	15956
915.809	16017
915.921	16143
916.034	15994
916.146	15911
916.259	15930
916.371	15937
916.483	15941
916.595	15797
916.708	15873
916.82	15861
916.932	15819
917.044	15751
917.156	15724
917.268	15656
917.38	15656
917.491	15587
917.603	15564
917.715	15736
917.826	15774
917.938	15557
918.049	15542
918.161	15603
918.272	15656
918.384	15542
918.495	15477
918.606	15424
918.717	15264
918.828	15492
918.939	15401
919.05	15401
919.161	15310
919.272	15062
919.383	15199
919.494	15389
919.604	15656
919.715	15252
919.826	15332
919.936	15245
920.047	15389
920.157	15329
920.267	15481
920.378	15336
920.488	15252
920.598	15408
920.708	15504
920.818	15435
920.928	15466
921.038	15595
921.148	15538
921.258	15245
921.368	15081
921.477	15028
921.587	15001
921.697	14921
921.806	15036
921.916	14876
922.025	14743
922.134	14769
922.244	14590
922.353	14644
922.462	14541
922.571	14537
922.68	14317
922.789	14343
922.898	14404
923.007	14252
923.116	14256
923.224	14309
923.333	14218
923.442	14172
923.55	14153
923.659	14145
923.767	14172
923.876	14054
923.984	14126
924.092	14039
924.201	13993
924.309	13978
924.417	14016
924.525	13849
924.633	13967
924.741	14838
924.849	13769
924.956	13811
925.064	13742
925.172	13666
925.279	13578
925.387	13742
925.494	13658
925.602	13849
925.709	13811
925.816	13480
925.924	13594
926.031	13674
926.138	13639
926.245	13666
926.352	13434
926.459	13643
926.566	13662
926.673	13483
926.779	13384
926.886	13384
926.993	13327
927.099	13156
927.206	13293
927.312	13118
927.419	13247
927.525	13118
927.631	13209
927.737	13118
927.843	13137
927.95	12951
928.056	12985
928.162	12981
928.267	13019
928.373	13571
928.479	13072
928.585	12897
928.69	12993
928.796	13053
928.901	12882
929.007	12817
929.112	12875
929.218	12791
929.323	12829
929.428	12787
929.533	12806
929.638	12681
929.743	12669
929.848	12726
929.953	12730
930.058	12540
930.163	12429
930.267	12391
930.372	12555
930.477	12445
930.581	12563
930.685	12407
930.79	12228
930.894	12350
930.998	12292
931.103	12418
931.207	12106
931.311	11965
931.415	11840
931.519	11630
931.623	11554
