Data from test_V78500241_3457.txt Node
Date: Fri Mar 25 16:05:44 CST 2022
User: usil
Spectrometer: V785-0024
Trigger mode: 0
Integration Time (sec): 4.000000E-1
Scans to average: 1
Nonlinearity correction enabled: false
Boxcar width: 0
Storing dark spectrum: false
XAxis mode: Wavelengths
Number of Pixels in Spectrum: 1024
>>>>>Begin Spectral Data<<<<<
801.071	28790
801.214	28828
801.356	28580
801.499	28584
801.641	28356
801.783	28432
801.926	28436
802.068	28382
802.211	28474
802.353	28401
802.496	28348
802.638	28177
802.78	28188
802.923	28124
803.065	28044
803.208	28070
803.35	28173
803.492	28268
803.635	28363
803.777	28238
803.919	28379
804.061	28531
804.204	28489
804.346	28337
804.488	28322
804.63	28314
804.773	28394
804.915	28561
805.057	28569
805.199	28500
805.341	28565
805.483	28630
805.626	28580
805.768	28451
805.91	28554
806.052	28748
806.194	28348
806.336	28828
806.478	28653
806.62	28557
806.762	28752
806.904	28805
807.046	29094
807.188	29140
807.33	29048
807.472	29136
807.614	28904
807.756	29117
807.898	28869
808.04	28869
808.182	28679
808.324	28965
808.465	28984
808.607	29044
808.749	29307
808.891	29223
809.033	29372
809.174	29181
809.316	29155
809.458	29250
809.6	29162
809.741	29265
809.883	29356
810.025	29627
810.166	29531
810.308	29535
810.45	29474
810.591	29474
810.733	29208
810.875	29395
811.016	29227
811.158	29204
811.299	29414
811.441	29467
811.582	29490
811.724	29235
811.865	29216
812.007	29254
812.148	29379
812.29	29322
812.431	29520
812.573	29474
812.714	29649
812.855	29832
812.997	29866
813.138	30152
813.279	30026
813.421	29840
813.562	29668
813.703	29623
813.845	29535
813.986	29284
814.127	29090
814.268	28987
814.41	28934
814.551	28938
814.692	28991
814.833	28881
814.974	28976
815.115	29079
815.256	28968
815.397	28911
815.539	28839
815.68	28748
815.821	28828
815.962	28904
816.103	28820
816.244	28774
816.385	28668
816.526	28577
816.666	28382
816.807	28276
816.948	28371
817.089	28443
817.23	28322
817.371	28386
817.512	28356
817.653	28253
817.793	28169
817.934	28177
818.075	28299
818.216	28352
818.356	28272
818.497	28192
818.638	27987
818.778	28086
818.919	28192
819.06	28158
819.2	28219
819.341	28337
819.481	28291
819.622	28459
819.762	28577
819.903	28660
820.043	28565
820.184	28599
820.324	28500
820.465	28489
820.605	28485
820.746	28447
820.886	28333
821.026	28428
821.167	28394
821.307	28489
821.447	28379
821.588	28249
821.728	28055
821.868	27781
822.008	27808
822.149	27762
822.289	27793
822.429	27481
822.569	27348
822.709	27473
822.849	27344
822.99	27249
823.13	27294
823.27	27283
823.41	27233
823.55	27055
823.69	27135
823.83	27249
823.97	27127
824.11	26883
824.25	26956
824.389	26883
824.529	27207
824.669	27009
824.809	27207
824.949	26880
825.089	27112
825.228	27001
825.368	26659
825.508	26705
825.648	26796
825.787	26792
825.927	26861
826.067	26872
826.206	26720
826.346	26861
826.485	26868
826.625	26781
826.765	27005
826.904	26982
827.044	26648
827.183	26503
827.323	26495
827.462	26613
827.601	26667
827.741	26560
827.88	26492
828.02	26488
828.159	26568
828.298	26552
828.437	26651
828.577	26522
828.716	26522
828.855	26575
828.994	26168
829.134	26225
829.273	26278
829.412	26290
829.551	26077
829.69	26214
829.829	26294
829.968	26282
830.107	26320
830.246	26438
830.385	26225
830.524	26130
830.663	26065
830.802	25902
830.941	25959
831.08	25845
831.219	25879
831.357	26054
831.496	26199
831.635	25864
831.774	25852
831.913	25719
832.051	25674
832.19	25708
832.329	25647
832.467	25685
832.606	25559
832.744	25483
832.883	25445
833.022	25441
833.16	25381
833.299	25449
833.437	25552
833.576	25575
833.714	25708
833.852	25567
833.991	25658
834.129	25556
834.267	25708
834.406	25529
834.544	25525
834.682	25624
834.821	25677
834.959	25753
835.097	25655
835.235	25567
835.373	25609
835.511	25723
835.65	25453
835.788	25575
835.926	25270
836.064	25126
836.202	25160
836.34	25384
836.478	25346
836.615	25327
836.753	25468
836.891	25495
837.029	25388
837.167	25335
837.305	25270
837.443	25324
837.58	25263
837.718	25301
837.856	25411
837.993	25228
838.131	25327
838.269	25072
838.406	25259
838.544	24973
838.681	24886
838.819	24776
838.956	24760
839.094	24779
839.231	24745
839.369	24749
839.506	25012
839.643	24958
839.781	24711
839.918	24612
840.055	24738
840.193	24627
840.33	24776
840.467	24642
840.604	24639
840.742	24935
840.879	24521
841.016	24612
841.153	24559
841.29	24631
841.427	24555
841.564	24661
841.701	24661
841.838	24627
841.975	24471
842.112	24475
842.249	24285
842.385	24372
842.522	24486
842.659	24456
842.796	24475
842.933	24311
843.069	24270
843.206	24372
843.343	24426
843.479	24334
843.616	24239
843.752	24049
843.889	24167
844.025	24372
844.162	24110
844.298	24346
844.435	24076
844.571	24064
844.708	24057
844.844	24285
844.98	24235
845.117	24285
845.253	24194
845.389	23980
845.525	24079
845.661	24003
845.798	23802
845.934	23969
846.07	23783
846.206	23901
846.342	23863
846.478	23824
846.614	23672
846.75	23611
846.886	23570
847.022	23608
847.158	23562
847.294	23512
847.429	23695
847.565	23604
847.701	23798
847.837	23334
847.972	23216
848.108	23474
848.244	23299
848.379	23246
848.515	23216
848.65	23220
848.786	23322
848.921	23246
849.057	23250
849.192	23269
849.328	23048
849.463	23200
849.598	23174
849.734	23071
849.869	22984
850.004	22991
850.14	22987
850.275	22949
850.41	22793
850.545	22900
850.68	22942
850.815	22968
850.95	22946
851.085	23064
851.22	22984
851.355	22934
851.49	23067
851.625	22896
851.76	22866
851.895	22877
852.03	22774
852.165	22957
852.299	22847
852.434	22965
852.569	22942
852.703	22949
852.838	23010
852.973	23071
853.107	23098
853.242	22790
853.376	22763
853.511	22531
853.645	22961
853.78	22843
853.914	22725
854.048	22725
854.183	22820
854.317	22797
854.451	22908
854.585	22653
854.72	22774
854.854	22847
854.988	22725
855.122	22759
855.256	22664
855.39	22626
855.524	22847
855.658	22763
855.792	22675
855.926	22839
856.06	22854
856.194	22839
856.327	22786
856.461	22611
856.595	22683
856.729	22729
856.862	22881
856.996	22809
857.13	22706
857.263	22839
857.397	22774
857.53	22725
857.664	22797
857.797	22858
857.931	22793
858.064	22896
858.197	22763
858.331	22831
858.464	22660
858.597	22630
858.731	22656
858.864	22793
858.997	22698
859.13	22630
859.263	22763
859.396	22843
859.529	22668
859.662	22729
859.795	22710
859.928	22698
860.061	22938
860.194	22942
860.327	22847
860.46	22854
860.592	23029
860.725	22927
860.858	22850
860.99	22828
861.123	22618
861.256	22778
861.388	22828
861.521	23330
861.653	22664
861.786	22569
861.918	22687
862.05	22721
862.183	22702
862.315	22824
862.447	22755
862.58	22679
862.712	22489
862.844	22481
862.976	22546
863.108	22466
863.24	22858
863.372	22306
863.504	22390
863.636	22478
863.768	22508
863.9	22565
864.032	22519
864.164	22398
864.296	22466
864.428	22557
864.559	22637
864.691	22493
864.823	22436
864.954	22478
865.086	22363
865.217	22424
865.349	22299
865.48	22432
865.612	22356
865.743	22569
865.875	22348
866.006	22261
866.137	22314
866.269	22268
866.4	22287
866.531	22371
866.662	22120
866.793	22284
866.924	22204
867.055	22299
867.186	22344
867.317	22204
867.448	22177
867.579	22299
867.71	22223
867.841	22143
867.972	22295
868.103	22116
868.233	22322
868.364	22314
868.495	22348
868.625	22382
868.756	22630
868.886	22447
869.017	22436
869.147	22573
869.278	22580
869.408	22455
869.539	22405
869.669	22577
869.799	22561
869.929	22584
870.06	22618
870.19	22683
870.32	22839
870.45	22869
870.58	22816
870.71	23075
870.84	22949
870.97	22949
871.1	22835
871.23	23044
871.36	22999
871.489	23010
871.619	22987
871.749	22987
871.879	23136
872.008	23330
872.138	23056
872.267	23105
872.397	23060
872.526	23098
872.656	22949
872.785	23014
872.915	23151
873.044	23128
873.173	23242
873.303	23315
873.432	23151
873.561	23292
873.69	23178
873.819	23132
873.948	23216
874.077	22995
874.206	23056
874.335	23121
874.464	23265
874.593	23334
874.722	23280
874.851	23501
874.979	23448
875.108	23429
875.237	23223
875.365	23159
875.494	23322
875.623	23318
875.751	23402
875.88	23303
876.008	23448
876.136	23501
876.265	23608
876.393	23828
876.521	23946
876.65	23843
876.778	23748
876.906	23661
877.034	23611
877.162	23604
877.29	23779
877.418	23627
877.546	23783
877.674	23611
877.802	23718
877.93	23604
878.058	23714
878.185	23406
878.313	23630
878.441	23573
878.568	23406
878.696	23684
878.824	23646
878.951	23745
879.079	23874
879.206	24030
879.333	23805
879.461	23729
879.588	23916
879.715	23790
879.842	23851
879.97	23805
880.097	23414
880.224	23505
880.351	23661
880.478	23528
880.605	23425
880.732	23478
880.859	23710
880.986	23493
881.112	23455
881.239	23315
881.366	23216
881.493	23227
881.619	23090
881.746	23048
881.872	22976
881.999	22987
882.125	22991
882.252	23147
882.378	23018
882.505	23083
882.631	22946
882.757	22752
882.883	22858
883.01	22691
883.136	22660
883.262	22630
883.388	22554
883.514	22645
883.64	22683
883.766	22634
883.892	22466
884.018	22584
884.143	22630
884.269	22771
884.395	22402
884.52	22249
884.646	22402
884.772	22257
884.897	22268
885.023	22466
885.148	22432
885.274	22554
885.399	22447
885.524	22360
885.65	22440
885.775	22394
885.9	22367
886.025	22440
886.15	22443
886.275	22280
886.4	22398
886.525	22291
886.65	22295
886.775	22265
886.9	22466
887.025	22550
887.149	22322
887.274	22219
887.399	22067
887.523	22097
887.648	22067
887.773	21964
887.897	22215
888.021	22211
888.146	22002
888.27	22185
888.395	22196
888.519	22074
888.643	22154
888.767	22131
888.891	22029
889.015	21937
889.139	21911
889.263	21991
889.387	21987
889.511	22143
889.635	22044
889.759	21857
889.883	21785
890.006	21941
890.13	21987
890.254	21835
890.377	21785
890.501	21652
890.624	21641
890.748	21686
890.871	21545
890.995	21351
891.118	21473
891.241	21481
891.364	21397
891.488	21576
891.611	21344
891.734	21420
891.857	21481
891.98	21435
892.103	21496
892.226	21530
892.349	21310
892.471	21283
892.594	21386
892.717	21477
892.839	21458
892.962	21336
893.085	21317
893.207	21420
893.33	21340
893.452	21218
893.575	21393
893.697	21310
893.819	21519
893.941	21496
894.064	21458
894.186	21317
894.308	21287
894.43	21454
894.552	21454
894.674	21382
894.796	21279
894.918	21298
895.04	21386
895.161	21412
895.283	21370
895.405	21291
895.526	21344
895.648	21279
895.769	21382
895.891	21340
896.012	21420
896.134	21363
896.255	21397
896.376	21184
896.498	21310
896.619	21500
896.74	21325
896.861	21416
896.982	21644
897.103	21823
897.224	21393
897.345	21473
897.466	21378
897.587	21603
897.708	21641
897.828	21629
897.949	21507
898.07	21447
898.19	21386
898.311	21629
898.431	21538
898.552	21507
898.672	21713
898.792	21622
898.913	21496
899.033	21401
899.153	21291
899.273	21325
899.393	21256
899.513	21226
899.633	21252
899.753	21416
899.873	20941
899.993	21272
900.113	21154
900.232	21313
900.352	21142
900.472	20956
900.591	20982
900.711	21066
900.83	20880
900.95	21089
901.069	21066
901.189	20937
901.308	20507
901.427	20590
901.546	20663
901.665	20655
901.784	20609
901.904	20511
902.023	20415
902.141	20145
902.26	20145
902.379	20081
902.498	20145
902.617	20008
902.735	20088
902.854	20065
902.973	19936
903.091	19811
903.21	19731
903.328	19647
903.446	19666
903.565	19502
903.683	19529
903.801	19384
903.919	19502
904.038	19521
904.156	19122
904.274	19327
904.392	19297
904.51	19209
904.627	19263
904.745	19430
904.863	19316
904.981	19072
905.098	18890
905.216	18981
905.334	19126
905.451	18954
905.569	18977
905.686	18810
905.803	18973
905.921	18741
906.038	18844
906.155	18745
906.272	18639
906.389	18692
906.506	18407
906.623	18502
906.74	18429
906.857	18300
906.974	18391
907.091	18517
907.208	18426
907.324	18426
907.441	18372
907.557	18144
907.674	18136
907.79	18152
907.907	18171
908.023	18129
908.139	18148
908.256	18136
908.372	18034
908.488	18045
908.604	17935
908.72	17984
908.836	17859
908.952	17828
909.068	17977
909.184	18030
909.3	17927
909.415	17863
909.531	17859
909.647	17638
909.762	17634
909.878	17615
909.993	17528
910.108	17551
910.224	17520
910.339	17512
910.454	17414
910.57	17383
910.685	17360
910.8	17585
910.915	17478
911.03	17330
911.145	17261
911.259	17174
911.374	17174
911.489	17136
911.604	17185
911.718	16892
911.833	17037
911.947	16843
912.062	16805
912.176	16858
912.291	16942
912.405	16862
912.519	17132
912.633	17033
912.748	16999
912.862	16923
912.976	16793
913.09	16675
913.204	16744
913.318	16805
913.431	16793
913.545	16782
913.659	16793
913.772	16672
913.886	16512
914	16466
914.113	16599
914.226	16542
914.34	16626
914.453	16379
914.566	16519
914.68	16390
914.793	16261
914.906	16128
915.019	16051
915.132	16006
915.245	16124
915.358	16219
915.47	16086
915.583	16093
915.696	16173
915.809	16185
915.921	16158
916.034	15941
916.146	15960
916.259	15949
916.371	16131
916.483	15899
916.595	15949
916.708	15953
916.82	15895
916.932	15823
917.044	15743
917.156	15838
917.268	15755
917.38	15713
917.491	15717
917.603	15644
917.715	15823
917.826	15785
917.938	15591
918.049	15431
918.161	15701
918.272	15694
918.384	15770
918.495	15679
918.606	15519
918.717	15435
918.828	15481
918.939	15405
919.05	15351
919.161	15374
919.272	15169
919.383	15405
919.494	15447
919.604	15564
919.715	15450
919.826	15241
919.936	15329
920.047	15519
920.157	15367
920.267	15595
920.378	15340
920.488	15450
920.598	15466
920.708	15701
920.818	15469
920.928	15553
921.038	15667
921.148	15694
921.258	15302
921.368	15123
921.477	15127
921.587	15009
921.697	15043
921.806	15051
921.916	14960
922.025	14800
922.134	14678
922.244	14629
922.353	14720
922.462	14568
922.571	14533
922.68	14370
922.789	14328
922.898	14499
923.007	14237
923.116	14434
923.224	14351
923.333	14328
923.442	14275
923.55	14259
923.659	14195
923.767	14088
923.876	14092
923.984	14237
924.092	14043
924.201	14077
924.309	14142
924.417	14096
924.525	14046
924.633	14043
924.741	15039
924.849	13841
924.956	13986
925.064	13799
925.172	13685
925.279	13696
925.387	13784
925.494	13696
925.602	13864
925.709	13803
925.816	13590
925.924	13651
926.031	13830
926.138	13651
926.245	13712
926.352	13518
926.459	13746
926.566	13700
926.673	13597
926.779	13514
926.886	13540
926.993	13282
927.099	13324
927.206	13312
927.312	13152
927.419	13278
927.525	13259
927.631	13274
927.737	13129
927.843	13095
927.95	13015
928.056	13099
928.162	13069
928.267	13137
928.373	13727
928.479	13129
928.585	12829
928.69	12913
928.796	13080
928.901	13015
929.007	12806
929.112	12890
929.218	12878
929.323	12814
929.428	12806
929.533	12878
929.638	12753
929.743	12779
929.848	12814
929.953	12711
930.058	12627
930.163	12399
930.267	12452
930.372	12620
930.477	12319
930.581	12578
930.685	12540
930.79	12399
930.894	12323
930.998	12243
931.103	12384
931.207	12060
931.311	12026
931.415	11901
931.519	11668
931.623	11646
