Data from test_V78500241_2037.txt Node
Date: Fri Mar 25 15:55:54 CST 2022
User: usil
Spectrometer: V785-0024
Trigger mode: 0
Integration Time (sec): 4.000000E-1
Scans to average: 1
Nonlinearity correction enabled: false
Boxcar width: 0
Storing dark spectrum: false
XAxis mode: Wavelengths
Number of Pixels in Spectrum: 1024
>>>>>Begin Spectral Data<<<<<
801.071	28683
801.214	28820
801.356	28546
801.499	28508
801.641	28409
801.783	28371
801.926	28249
802.068	28436
802.211	28314
802.353	28367
802.496	28166
802.638	28029
802.78	28154
802.923	27994
803.065	28006
803.208	27968
803.35	28029
803.492	28207
803.635	28360
803.777	28268
803.919	28337
804.061	28641
804.204	28398
804.346	28230
804.488	28097
804.63	28325
804.773	28181
804.915	28470
805.057	28459
805.199	28428
805.341	28440
805.483	28462
805.626	28493
805.768	28360
805.91	28527
806.052	28382
806.194	28341
806.336	28611
806.478	28580
806.62	28596
806.762	28744
806.904	28873
807.046	28968
807.188	28805
807.33	29033
807.472	28904
807.614	28908
807.756	28824
807.898	28831
808.04	28710
808.182	28755
808.324	28729
808.465	28797
808.607	28942
808.749	29208
808.891	29197
809.033	29387
809.174	29261
809.316	29299
809.458	29121
809.6	29200
809.741	29208
809.883	29303
810.025	29551
810.166	29436
810.308	29406
810.45	29326
810.591	29353
810.733	29379
810.875	29132
811.016	29140
811.158	29162
811.299	29170
811.441	29429
811.582	29395
811.724	29105
811.865	29197
812.007	29071
812.148	29261
812.29	29235
812.431	29349
812.573	29558
812.714	29752
812.855	29684
812.997	29745
813.138	29973
813.279	29859
813.421	29916
813.562	29585
813.703	29547
813.845	29364
813.986	29296
814.127	28923
814.268	28927
814.41	28957
814.551	28885
814.692	28976
814.833	28831
814.974	28873
815.115	28850
815.256	28759
815.397	28649
815.539	28778
815.68	28771
815.821	28645
815.962	28767
816.103	28850
816.244	28626
816.385	28504
816.526	28470
816.666	28344
816.807	28363
816.948	28188
817.089	28352
817.23	28215
817.371	28215
817.512	28276
817.653	28261
817.793	28044
817.934	28207
818.075	28200
818.216	28211
818.356	28185
818.497	28185
818.638	28074
818.778	27937
818.919	28131
819.06	28093
819.2	28120
819.341	28386
819.481	28306
819.622	28333
819.762	28618
819.903	28588
820.043	28538
820.184	28329
820.324	28314
820.465	28382
820.605	28474
820.746	28413
820.886	28226
821.026	28341
821.167	28177
821.307	28462
821.447	28375
821.588	28173
821.728	28086
821.868	27888
822.008	27804
822.149	27610
822.289	27614
822.429	27606
822.569	27382
822.709	27416
822.849	27310
822.99	27214
823.13	27192
823.27	27264
823.41	27043
823.55	26895
823.69	27058
823.83	26990
823.97	27077
824.11	26861
824.25	26777
824.389	26940
824.529	26960
824.669	26792
824.809	26921
824.949	27070
825.089	27009
825.228	26921
825.368	26659
825.508	26838
825.648	26739
825.787	26762
825.927	26849
826.067	26743
826.206	26792
826.346	26868
826.485	26788
826.625	26758
826.765	26792
826.904	26823
827.044	26625
827.183	26522
827.323	26446
827.462	26457
827.601	26549
827.741	26427
827.88	26598
828.02	26358
828.159	26499
828.298	26495
828.437	26469
828.577	26484
828.716	26522
828.855	26393
828.994	26180
829.134	26122
829.273	26332
829.412	26092
829.551	26275
829.69	26088
829.829	26267
829.968	26157
830.107	26240
830.246	26145
830.385	26221
830.524	26054
830.663	25822
830.802	25849
830.941	25852
831.08	25655
831.219	25860
831.357	25746
831.496	26020
831.635	25712
831.774	25658
831.913	25597
832.051	25537
832.19	25506
832.329	25483
832.467	25514
832.606	25499
832.744	25343
832.883	25369
833.022	25411
833.16	25430
833.299	25419
833.437	25479
833.576	25415
833.714	25449
833.852	25575
833.991	25384
834.129	25453
834.267	25655
834.406	25609
834.544	25567
834.682	25502
834.821	25487
834.959	25776
835.097	25457
835.235	25529
835.373	25460
835.511	25552
835.65	25400
835.788	25377
835.926	25304
836.064	25228
836.202	25122
836.34	25316
836.478	25331
836.615	25293
836.753	25282
836.891	25411
837.029	25282
837.167	25225
837.305	25129
837.443	25133
837.58	25027
837.718	25099
837.856	25118
837.993	25171
838.131	25114
838.269	25000
838.406	24928
838.544	24943
838.681	24840
838.819	24738
838.956	24650
839.094	24661
839.231	24726
839.369	24700
839.506	25015
839.643	24730
839.781	24703
839.918	24513
840.055	24608
840.193	24604
840.33	24540
840.467	24566
840.604	24612
840.742	24852
840.879	24323
841.016	24418
841.153	24471
841.29	24635
841.427	24509
841.564	24479
841.701	24570
841.838	24410
841.975	24464
842.112	24422
842.249	24167
842.385	24285
842.522	24471
842.659	24407
842.796	24296
842.933	24201
843.069	24270
843.206	24186
843.343	24327
843.479	24155
843.616	24247
843.752	23939
843.889	24117
844.025	24197
844.162	24049
844.298	24102
844.435	23931
844.571	24121
844.708	24095
844.844	24270
844.98	24087
845.117	23992
845.253	24015
845.389	23965
845.525	23950
845.661	23916
845.798	23756
845.934	23764
846.07	23805
846.206	23649
846.342	23836
846.478	23775
846.614	23680
846.75	23452
846.886	23467
847.022	23604
847.158	23493
847.294	23539
847.429	23528
847.565	23467
847.701	23729
847.837	23364
847.972	23200
848.108	23387
848.244	23227
848.379	23094
848.515	23113
848.65	22949
848.786	23060
848.921	23113
849.057	23227
849.192	23105
849.328	23204
849.463	23086
849.598	23079
849.734	23003
849.869	22927
850.004	22885
850.14	22885
850.275	22820
850.41	22778
850.545	22862
850.68	22790
850.815	22862
850.95	22790
851.085	23010
851.22	22984
851.355	23025
851.49	22889
851.625	22854
851.76	22805
851.895	22702
852.03	22713
852.165	22797
852.299	22881
852.434	22968
852.569	22869
852.703	22748
852.838	22850
852.973	22961
853.107	22923
853.242	22900
853.376	22672
853.511	22599
853.645	22546
853.78	22687
853.914	22733
854.048	22599
854.183	22599
854.317	22584
854.451	22755
854.585	22721
854.72	22603
854.854	22660
854.988	22508
855.122	22733
855.256	22649
855.39	22729
855.524	22660
855.658	22668
855.792	22630
855.926	22577
856.06	22759
856.194	22866
856.327	22580
856.461	22679
856.595	22512
856.729	22664
856.862	22839
856.996	22835
857.13	22717
857.263	22672
857.397	22675
857.53	22664
857.664	22733
857.797	22797
857.931	22630
858.064	22683
858.197	22668
858.331	22725
858.464	22637
858.597	22550
858.731	22577
858.864	22599
858.997	22565
859.13	22683
859.263	22706
859.396	22645
859.529	22679
859.662	22634
859.795	22599
859.928	22611
860.061	22710
860.194	22869
860.327	22831
860.46	22615
860.592	22752
860.725	22873
860.858	22858
860.99	22725
861.123	22577
861.256	22588
861.388	22694
861.521	23406
861.653	22508
861.786	22455
861.918	22580
862.05	22546
862.183	22527
862.315	22668
862.447	22519
862.58	22550
862.712	22333
862.844	22322
862.976	22375
863.108	22481
863.24	22759
863.372	22284
863.504	22287
863.636	22329
863.768	22344
863.9	22478
864.032	22291
864.164	22379
864.296	22554
864.428	22382
864.559	22428
864.691	22481
864.823	22295
864.954	22318
865.086	22280
865.217	22223
865.349	22192
865.48	22234
865.612	22325
865.743	22268
865.875	22329
866.006	22196
866.137	22261
866.269	22310
866.4	22375
866.531	22234
866.662	22055
866.793	22185
866.924	22090
867.055	22188
867.186	22192
867.317	22067
867.448	21983
867.579	22192
867.71	22002
867.841	22040
867.972	22242
868.103	22200
868.233	22105
868.364	22166
868.495	22344
868.625	22379
868.756	22413
868.886	22386
869.017	22417
869.147	22432
869.278	22519
869.408	22398
869.539	22508
869.669	22455
869.799	22443
869.929	22618
870.06	22481
870.19	22725
870.32	22687
870.45	22733
870.58	22759
870.71	22995
870.84	22850
870.97	22763
871.1	22831
871.23	23048
871.36	23037
871.489	22869
871.619	22953
871.749	22995
871.879	23086
872.008	23094
872.138	22946
872.267	23147
872.397	22881
872.526	22900
872.656	22896
872.785	22755
872.915	23090
873.044	23121
873.173	23083
873.303	23056
873.432	22984
873.561	23121
873.69	23029
873.819	23003
873.948	23200
874.077	22957
874.206	22873
874.335	22965
874.464	23166
874.593	23299
874.722	23193
874.851	23296
874.979	23284
875.108	23246
875.237	23132
875.365	23094
875.494	23242
875.623	23193
875.751	23261
875.88	23288
876.008	23398
876.136	23383
876.265	23611
876.393	23703
876.521	23722
876.65	23722
876.778	23642
876.906	23512
877.034	23623
877.162	23551
877.29	23379
877.418	23680
877.546	23581
877.674	23589
877.802	23467
877.93	23566
878.058	23478
878.185	23509
878.313	23482
878.441	23547
878.568	23356
878.696	23474
878.824	23452
878.951	23714
879.079	23874
879.206	23904
879.333	23786
879.461	23543
879.588	23676
879.715	23760
879.842	23946
879.97	23630
880.097	23395
880.224	23512
880.351	23414
880.478	23356
880.605	23337
880.732	23383
880.859	23573
880.986	23356
881.112	23379
881.239	23261
881.366	23041
881.493	23105
881.619	22930
881.746	23041
881.872	23067
881.999	22885
882.125	22862
882.252	22957
882.378	22965
882.505	22999
882.631	22839
882.757	22748
882.883	22725
883.01	22626
883.136	22493
883.262	22493
883.388	22451
883.514	22649
883.64	22637
883.766	22596
883.892	22504
884.018	22508
884.143	22508
884.269	22500
884.395	22356
884.52	22303
884.646	22314
884.772	22177
884.897	22090
885.023	22318
885.148	22394
885.274	22424
885.399	22459
885.524	22169
885.65	22116
885.775	22265
885.9	22253
886.025	22371
886.15	22265
886.275	22154
886.4	22131
886.525	22226
886.65	22097
886.775	22287
886.9	22413
887.025	22432
887.149	22318
887.274	21983
887.399	22002
887.523	21857
887.648	21998
887.773	21892
887.897	22173
888.021	22101
888.146	21766
888.27	22097
888.395	22063
888.519	22097
888.643	22070
888.767	21960
888.891	21949
889.015	21701
889.139	21880
889.263	21854
889.387	21831
889.511	21998
889.635	21930
889.759	21827
889.883	21701
890.006	21842
890.13	21918
890.254	21675
890.377	21682
890.501	21530
890.624	21466
890.748	21485
890.871	21523
890.995	21207
891.118	21412
891.241	21325
891.364	21306
891.488	21481
891.611	21363
891.734	21313
891.857	21386
891.98	21348
892.103	21416
892.226	21329
892.349	21351
892.471	21150
892.594	21230
892.717	21249
892.839	21173
892.962	21310
893.085	21363
893.207	21154
893.33	21180
893.452	21165
893.575	21252
893.697	21150
893.819	21344
893.941	21378
894.064	21370
894.186	21154
894.308	21173
894.43	21207
894.552	21428
894.674	21264
894.796	21169
894.918	21203
895.04	21055
895.161	21150
895.283	21389
895.405	21218
895.526	21252
895.648	21233
895.769	21173
895.891	21249
896.012	21386
896.134	21298
896.255	21256
896.376	21165
896.498	21344
896.619	21127
896.74	21302
896.861	21306
896.982	21538
897.103	21679
897.224	21386
897.345	21428
897.466	21378
897.587	21351
897.708	21576
897.828	21473
897.949	21283
898.07	21275
898.19	21424
898.311	21447
898.431	21401
898.552	21393
898.672	21515
898.792	21488
898.913	21443
899.033	21348
899.153	21165
899.273	21070
899.393	21096
899.513	21207
899.633	21119
899.753	21226
899.873	20960
899.993	21116
900.113	21127
900.232	21195
900.352	21039
900.472	20921
900.591	20769
900.711	20830
900.83	20804
900.95	20975
901.069	20979
901.189	20716
901.308	20518
901.427	20480
901.546	20488
901.665	20499
901.784	20488
901.904	20248
902.023	20305
902.141	20065
902.26	19970
902.379	20054
902.498	19944
902.617	19845
902.735	19989
902.854	19959
902.973	19925
903.091	19594
903.21	19742
903.328	19712
903.446	19457
903.565	19449
903.683	19430
903.801	19274
903.919	19308
904.038	19346
904.156	19198
904.274	19354
904.392	19244
904.51	19126
904.627	19164
904.745	19168
904.863	19187
904.981	18993
905.098	18844
905.216	18886
905.334	18802
905.451	18852
905.569	18840
905.686	18817
905.803	18802
905.921	18620
906.038	18688
906.155	18665
906.272	18597
906.389	18597
906.506	18372
906.623	18342
906.74	18315
906.857	18197
906.974	18300
907.091	18376
907.208	18471
907.324	18399
907.441	18213
907.557	18072
907.674	18076
907.79	18030
907.907	18038
908.023	18098
908.139	18182
908.256	18022
908.372	17920
908.488	18034
908.604	17870
908.72	17741
908.836	17805
908.952	17748
909.068	17798
909.184	17813
909.3	17775
909.415	17843
909.531	17661
909.647	17474
909.762	17516
909.878	17429
909.993	17547
910.108	17478
910.224	17463
910.339	17467
910.454	17379
910.57	17353
910.685	17254
910.8	17524
910.915	17379
911.03	17181
911.145	17083
911.259	17003
911.374	17018
911.489	17018
911.604	16885
911.718	16771
911.833	16786
911.947	16752
912.062	16717
912.176	16824
912.291	16786
912.405	16854
912.519	17018
912.633	16984
912.748	16759
912.862	16805
912.976	16554
913.09	16440
913.204	16630
913.318	16592
913.431	16668
913.545	16672
913.659	16706
913.772	16607
913.886	16459
914	16371
914.113	16561
914.226	16462
914.34	16447
914.453	16257
914.566	16382
914.68	16246
914.793	16234
914.906	16071
915.019	16006
915.132	15922
915.245	15930
915.358	16071
915.47	15949
915.583	15968
915.696	16013
915.809	16101
915.921	16116
916.034	15842
916.146	15869
916.259	15812
916.371	15960
916.483	15941
916.595	15751
916.708	15793
916.82	15861
916.932	15701
917.044	15713
917.156	15713
917.268	15675
917.38	15644
917.491	15603
917.603	15648
917.715	15622
917.826	15663
917.938	15485
918.049	15462
918.161	15526
918.272	15641
918.384	15606
918.495	15488
918.606	15466
918.717	15249
918.828	15260
918.939	15321
919.05	15233
919.161	15294
919.272	15066
919.383	15195
919.494	15302
919.604	15454
919.715	15351
919.826	15226
919.936	15298
920.047	15374
920.157	15233
920.267	15447
920.378	15306
920.488	15135
920.598	15336
920.708	15553
920.818	15454
920.928	15325
921.038	15595
921.148	15488
921.258	15317
921.368	15135
921.477	15039
921.587	14971
921.697	14887
921.806	15024
921.916	14765
922.025	14689
922.134	14686
922.244	14594
922.353	14693
922.462	14530
922.571	14415
922.68	14290
922.789	14366
922.898	14256
923.007	14244
923.116	14347
923.224	14294
923.333	14221
923.442	14145
923.55	14069
923.659	14183
923.767	14187
923.876	14024
923.984	14126
924.092	13986
924.201	14012
924.309	13932
924.417	13932
924.525	13944
924.633	13887
924.741	14796
924.849	13666
924.956	13898
925.064	13704
925.172	13639
925.279	13624
925.387	13712
925.494	13677
925.602	13666
925.709	13696
925.816	13521
925.924	13464
926.031	13689
926.138	13586
926.245	13605
926.352	13487
926.459	13620
926.566	13628
926.673	13369
926.779	13411
926.886	13362
926.993	13346
927.099	13183
927.206	13217
927.312	13107
927.419	13206
927.525	13099
927.631	13206
927.737	13095
927.843	13008
927.95	12878
928.056	12977
928.162	13000
928.267	13061
928.373	13643
928.479	13076
928.585	12848
928.69	12989
928.796	12947
928.901	12779
929.007	12753
929.112	12901
929.218	12817
929.323	12730
929.428	12707
929.533	12817
929.638	12635
929.743	12650
929.848	12696
929.953	12658
930.058	12578
930.163	12380
930.267	12372
930.372	12509
930.477	12418
930.581	12551
930.685	12372
930.79	12239
930.894	12254
930.998	12266
931.103	12334
931.207	12007
931.311	11859
931.415	11756
931.519	11668
931.623	11604
