Data from test_V78500241_53.txt Node
Date: Fri Mar 25 15:42:10 CST 2022
User: usil
Spectrometer: V785-0024
Trigger mode: 0
Integration Time (sec): 4.000000E-1
Scans to average: 1
Nonlinearity correction enabled: false
Boxcar width: 0
Storing dark spectrum: false
XAxis mode: Wavelengths
Number of Pixels in Spectrum: 1024
>>>>>Begin Spectral Data<<<<<
801.071	29482
801.214	29562
801.356	29250
801.499	29124
801.641	29048
801.783	28999
801.926	29220
802.068	28957
802.211	28908
802.353	28774
802.496	28698
802.638	28694
802.78	28828
802.923	28596
803.065	28421
803.208	28599
803.35	28729
803.492	28679
803.635	28702
803.777	28733
803.919	28729
804.061	29033
804.204	28885
804.346	28573
804.488	28710
804.63	28767
804.773	28630
804.915	28866
805.057	28828
805.199	28786
805.341	28771
805.483	28885
805.626	28733
805.768	28607
805.91	28820
806.052	28919
806.194	28877
806.336	29006
806.478	28900
806.62	28725
806.762	28908
806.904	28984
807.046	29375
807.188	29235
807.33	29208
807.472	29288
807.614	29223
807.756	29113
807.898	28984
808.04	28976
808.182	28965
808.324	28904
808.465	29056
808.607	29079
808.749	29341
808.891	29490
809.033	29478
809.174	29440
809.316	29311
809.458	29433
809.6	29265
809.741	29566
809.883	29417
810.025	29596
810.166	29665
810.308	29714
810.45	29611
810.591	29471
810.733	29459
810.875	29322
811.016	29254
811.158	29204
811.299	29433
811.441	29501
811.582	29379
811.724	29360
811.865	29280
812.007	29292
812.148	29223
812.29	29375
812.431	29425
812.573	29516
812.714	29570
812.855	29653
812.997	29703
813.138	30041
813.279	29950
813.421	29828
813.562	29843
813.703	29627
813.845	29360
813.986	29147
814.127	29025
814.268	28968
814.41	28911
814.551	28839
814.692	28984
814.833	28733
814.974	28698
815.115	28843
815.256	28672
815.397	28649
815.539	28675
815.68	28653
815.821	28443
815.962	28519
816.103	28478
816.244	28580
816.385	28337
816.526	28238
816.666	28112
816.807	27918
816.948	28109
817.089	28204
817.23	28002
817.371	27987
817.512	27979
817.653	27854
817.793	27914
817.934	28006
818.075	27964
818.216	27994
818.356	27991
818.497	27827
818.638	27808
818.778	27705
818.919	27755
819.06	27705
819.2	27865
819.341	27960
819.481	27857
819.622	27972
819.762	28226
819.903	28090
820.043	27968
820.184	28074
820.324	27949
820.465	27880
820.605	28147
820.746	27907
820.886	27747
821.026	27739
821.167	27857
821.307	27854
821.447	27781
821.588	27549
821.728	27698
821.868	27321
822.008	27454
822.149	27245
822.289	27237
822.429	27047
822.569	26967
822.709	26960
822.849	26925
822.99	26701
823.13	26800
823.27	26697
823.41	26632
823.55	26415
823.69	26511
823.83	26499
823.97	26484
824.11	26366
824.25	26244
824.389	26180
824.529	26461
824.669	26263
824.809	26385
824.949	26358
825.089	26423
825.228	26396
825.368	26119
825.508	26035
825.648	26081
825.787	26088
825.927	26142
826.067	25970
826.206	26092
826.346	26115
826.485	26065
826.625	26107
826.765	26172
826.904	26149
827.044	25788
827.183	25917
827.323	25639
827.462	25799
827.601	25681
827.741	25780
827.88	25708
828.02	25438
828.159	25742
828.298	25556
828.437	25776
828.577	25655
828.716	25856
828.855	25582
828.994	25464
829.134	25506
829.273	25529
829.412	25415
829.551	25244
829.69	25369
829.829	25529
829.968	25476
830.107	25381
830.246	25381
830.385	25289
830.524	25274
830.663	25221
830.802	24989
830.941	24878
831.08	24840
831.219	25015
831.357	24924
831.496	25240
831.635	24878
831.774	24966
831.913	24745
832.051	24604
832.19	24726
832.329	24684
832.467	24692
832.606	24471
832.744	24479
832.883	24452
833.022	24445
833.16	24639
833.299	24483
833.437	24654
833.576	24471
833.714	24540
833.852	24578
833.991	24646
834.129	24502
834.267	24517
834.406	24437
834.544	24604
834.682	24566
834.821	24517
834.959	24612
835.097	24464
835.235	24665
835.373	24483
835.511	24563
835.65	24486
835.788	24308
835.926	24163
836.064	24098
836.202	24121
836.34	24391
836.478	24471
836.615	24285
836.753	24505
836.891	24350
837.029	24494
837.167	24315
837.305	24292
837.443	24163
837.58	24140
837.718	24159
837.856	24209
837.993	24136
838.131	24251
838.269	24136
838.406	24026
838.544	23840
838.681	23687
838.819	23672
838.956	23619
839.094	23471
839.231	23581
839.369	23672
839.506	23790
839.643	23767
839.781	23554
839.918	23398
840.055	23539
840.193	23528
840.33	23364
840.467	23474
840.604	23634
840.742	23649
840.879	23315
841.016	23265
841.153	23250
841.29	23516
841.427	23334
841.564	23592
841.701	23490
841.838	23345
841.975	23242
842.112	23353
842.249	23155
842.385	23261
842.522	23383
842.659	23223
842.796	23143
842.933	23022
843.069	23048
843.206	23025
843.343	23174
843.479	23121
843.616	22991
843.752	22877
843.889	22843
844.025	23006
844.162	22729
844.298	22892
844.435	22763
844.571	22767
844.708	22908
844.844	23010
844.98	22896
845.117	22820
845.253	22843
845.389	22725
845.525	22630
845.661	22630
845.798	22569
845.934	22561
846.07	22588
846.206	22508
846.342	22641
846.478	22424
846.614	22329
846.75	22109
846.886	22204
847.022	22348
847.158	22348
847.294	22204
847.429	22386
847.565	22242
847.701	22436
847.837	22025
847.972	21892
848.108	22017
848.244	21972
848.379	21835
848.515	21819
848.65	21720
848.786	21823
848.921	21854
849.057	21968
849.192	21732
849.328	21797
849.463	21759
849.598	21701
849.734	21644
849.869	21698
850.004	21603
850.14	21694
850.275	21644
850.41	21511
850.545	21492
850.68	21450
850.815	21408
850.95	21454
851.085	21652
851.22	21549
851.355	21500
851.49	21534
851.625	21435
851.76	21447
851.895	21386
852.03	21397
852.165	21462
852.299	21431
852.434	21526
852.569	21492
852.703	21481
852.838	21583
852.973	21644
853.107	21526
853.242	21462
853.376	21321
853.511	21161
853.645	21329
853.78	21370
853.914	21401
854.048	21336
854.183	21287
854.317	21264
854.451	21488
854.585	21237
854.72	21283
854.854	21401
854.988	21287
855.122	21291
855.256	21245
855.39	21195
855.524	21363
855.658	21294
855.792	21367
855.926	21291
856.06	21256
856.194	21367
856.327	21252
856.461	21325
856.595	21169
856.729	21195
856.862	21355
856.996	21279
857.13	21370
857.263	21382
857.397	21283
857.53	21351
857.664	21241
857.797	21264
857.931	21283
858.064	21302
858.197	21450
858.331	21344
858.464	21188
858.597	21093
858.731	21165
858.864	21192
858.997	21176
859.13	21241
859.263	21214
859.396	21306
859.529	21169
859.662	21188
859.795	21157
859.928	21142
860.061	21245
860.194	21367
860.327	21199
860.46	21150
860.592	21260
860.725	21279
860.858	21363
860.99	21104
861.123	21047
861.256	21066
861.388	21169
861.521	21762
861.653	21195
861.786	20990
861.918	21093
862.05	21165
862.183	21157
862.315	21214
862.447	21401
862.58	21180
862.712	20956
862.844	20941
862.976	20979
863.108	21013
863.24	21325
863.372	20807
863.504	20868
863.636	20754
863.768	20838
863.9	20864
864.032	20746
864.164	20834
864.296	20902
864.428	20986
864.559	20815
864.691	20823
864.823	20899
864.954	20941
865.086	20769
865.217	20758
865.349	20701
865.48	20876
865.612	20861
865.743	20910
865.875	20826
866.006	20811
866.137	20826
866.269	20716
866.4	20864
866.531	20636
866.662	20655
866.793	20864
866.924	20724
867.055	20629
867.186	20648
867.317	20587
867.448	20598
867.579	20613
867.71	20594
867.841	20575
867.972	20693
868.103	20682
868.233	20731
868.364	20659
868.495	20811
868.625	20899
868.756	20948
868.886	20883
869.017	20792
869.147	21032
869.278	21039
869.408	20921
869.539	20990
869.669	20975
869.799	20929
869.929	21093
870.06	21028
870.19	21256
870.32	21226
870.45	21336
870.58	21340
870.71	21336
870.84	21466
870.97	21447
871.1	21298
871.23	21568
871.36	21545
871.489	21359
871.619	21507
871.749	21477
871.879	21599
872.008	21629
872.138	21534
872.267	21504
872.397	21420
872.526	21348
872.656	21287
872.785	21336
872.915	21618
873.044	21637
873.173	21534
873.303	21496
873.432	21610
873.561	21686
873.69	21515
873.819	21633
873.948	21648
874.077	21549
874.206	21428
874.335	21428
874.464	21663
874.593	21739
874.722	21838
874.851	21884
874.979	21728
875.108	21945
875.237	21663
875.365	21682
875.494	21720
875.623	21827
875.751	21732
875.88	22013
876.008	21842
876.136	22002
876.265	22044
876.393	22341
876.521	22196
876.65	22306
876.778	22143
876.906	22139
877.034	22128
877.162	22112
877.29	21953
877.418	22109
877.546	22074
877.674	22143
877.802	22181
877.93	22070
878.058	22067
878.185	21945
878.313	22135
878.441	22185
878.568	21983
878.696	22116
878.824	22048
878.951	22249
879.079	22253
879.206	22402
879.333	22291
879.461	22173
879.588	22234
879.715	22234
879.842	22432
879.97	22124
880.097	21949
880.224	21766
880.351	21907
880.478	21930
880.605	21915
880.732	21956
880.859	22234
880.986	21930
881.112	21880
881.239	21656
881.366	21759
881.493	21477
881.619	21523
881.746	21629
881.872	21568
881.999	21488
882.125	21519
882.252	21530
882.378	21431
882.505	21591
882.631	21412
882.757	21275
882.883	21386
883.01	21321
883.136	21336
883.262	21272
883.388	21051
883.514	21237
883.64	21370
883.766	21192
883.892	21108
884.018	21096
884.143	21176
884.269	21348
884.395	21047
884.52	20925
884.646	20929
884.772	20868
884.897	20861
885.023	20971
885.148	21001
885.274	20982
885.399	21017
885.524	20902
885.65	20918
885.775	20815
885.9	20838
886.025	20941
886.15	20925
886.275	20857
886.4	20678
886.525	20769
886.65	20804
886.775	20823
886.9	21001
887.025	21195
887.149	20880
887.274	20663
887.399	20659
887.523	20545
887.648	20533
887.773	20511
887.897	20644
888.021	20541
888.146	20564
888.27	20701
888.395	20720
888.519	20590
888.643	20648
888.767	20705
888.891	20476
889.015	20328
889.139	20457
889.263	20457
889.387	20503
889.511	20701
889.635	20511
889.759	20282
889.883	20332
890.006	20530
890.13	20499
890.254	20305
890.377	20374
890.501	20115
890.624	20016
890.748	20225
890.871	20111
890.995	20008
891.118	20001
891.241	19993
891.364	20020
891.488	20119
891.611	20115
891.734	19997
891.857	20024
891.98	20020
892.103	20012
892.226	20005
892.349	20043
892.471	19746
892.594	19921
892.717	19860
892.839	19856
892.962	19932
893.085	19932
893.207	19868
893.33	19913
893.452	19951
893.575	19826
893.697	19830
893.819	20043
893.941	20046
894.064	19993
894.186	19868
894.308	19742
894.43	19967
894.552	20096
894.674	19947
894.796	19860
894.918	19875
895.04	19826
895.161	19982
895.283	19906
895.405	19769
895.526	19898
895.648	19856
895.769	20058
895.891	19951
896.012	19970
896.134	19947
896.255	19947
896.376	19887
896.498	19944
896.619	20069
896.74	19982
896.861	20016
896.982	20256
897.103	20499
897.224	20339
897.345	20157
897.466	20256
897.587	20183
897.708	20294
897.828	20126
897.949	20039
898.07	19989
898.19	20077
898.311	20077
898.431	20115
898.552	20027
898.672	20157
898.792	20134
898.913	20054
899.033	19898
899.153	19841
899.273	19761
899.393	19845
899.513	19864
899.633	19883
899.753	19909
899.873	19647
899.993	19788
900.113	19841
900.232	19670
900.352	19670
900.472	19655
900.591	19544
900.711	19552
900.83	19643
900.95	19803
901.069	19788
901.189	19544
901.308	19316
901.427	19289
901.546	19244
901.665	19198
901.784	19282
901.904	19080
902.023	18970
902.141	18829
902.26	18696
902.379	18886
902.498	18673
902.617	18623
902.735	18650
902.854	18684
902.973	18627
903.091	18285
903.21	18338
903.328	18323
903.446	18232
903.565	18220
903.683	18277
903.801	18072
903.919	18110
904.038	18133
904.156	17923
904.274	18034
904.392	17920
904.51	17935
904.627	17885
904.745	17996
904.863	17897
904.981	17733
905.098	17592
905.216	17608
905.334	17608
905.451	17562
905.569	17505
905.686	17646
905.803	17600
905.921	17406
906.038	17284
906.155	17478
906.272	17345
906.389	17364
906.506	17128
906.623	17151
906.74	17064
906.857	16953
906.974	16965
907.091	17086
907.208	17296
907.324	17136
907.441	17048
907.557	16790
907.674	16809
907.79	16752
907.907	16778
908.023	16790
908.139	16881
908.256	16786
908.372	16637
908.488	16588
908.604	16565
908.72	16497
908.836	16443
908.952	16485
909.068	16516
909.184	16421
909.3	16402
909.415	16592
909.531	16527
909.647	16223
909.762	16074
909.878	16215
909.993	16124
910.108	16090
910.224	16093
910.339	16128
910.454	16063
910.57	16063
910.685	15899
910.8	16211
910.915	16131
911.03	16040
911.145	15816
911.259	15747
911.374	15743
911.489	15766
911.604	15530
911.718	15496
911.833	15462
911.947	15428
912.062	15329
912.176	15542
912.291	15534
912.405	15450
912.519	15724
912.633	15648
912.748	15454
912.862	15397
912.976	15256
913.09	15264
913.204	15176
913.318	15272
913.431	15397
913.545	15344
913.659	15420
913.772	15199
913.886	15119
914	15112
914.113	15116
914.226	15161
914.34	15150
914.453	15013
914.566	15237
914.68	15100
914.793	15001
914.906	14815
915.019	14750
915.132	14682
915.245	14716
915.358	14705
915.47	14602
915.583	14746
915.696	14830
915.809	14880
915.921	14769
916.034	14750
916.146	14602
916.259	14571
916.371	14739
916.483	14697
916.595	14594
916.708	14545
916.82	14545
916.932	14590
917.044	14514
917.156	14442
917.268	14328
917.38	14294
917.491	14275
917.603	14408
917.715	14465
917.826	14434
917.938	14320
918.049	14164
918.161	14256
918.272	14465
918.384	14431
918.495	14347
918.606	14206
918.717	14191
918.828	14084
918.939	14168
919.05	14096
919.161	14123
919.272	13936
919.383	13932
919.494	14138
919.604	14362
919.715	14145
919.826	13978
919.936	14031
920.047	14164
920.157	14065
920.267	14214
920.378	14115
920.488	14058
920.598	14126
920.708	14290
920.818	14195
920.928	14218
921.038	14355
921.148	14298
921.258	14138
921.368	13989
921.477	13769
921.587	13761
921.697	13620
921.806	13803
921.916	13639
922.025	13578
922.134	13457
922.244	13445
922.353	13449
922.462	13312
922.571	13274
922.68	13065
922.789	13103
922.898	13114
923.007	12993
923.116	13065
923.224	13076
923.333	13095
923.442	13027
923.55	12894
923.659	12894
923.767	12913
923.876	12837
923.984	12932
924.092	12878
924.201	12932
924.309	12886
924.417	12791
924.525	12764
924.633	12757
924.741	13662
924.849	12616
924.956	12745
925.064	12536
925.172	12486
925.279	12547
925.387	12574
925.494	12513
925.602	12738
925.709	12608
925.816	12498
925.924	12433
926.031	12589
926.138	12448
926.245	12486
926.352	12369
926.459	12578
926.566	12593
926.673	12422
926.779	12281
926.886	12216
926.993	12163
927.099	12083
927.206	12091
927.312	12034
927.419	12114
927.525	12049
927.631	12167
927.737	11961
927.843	11950
927.95	11840
928.056	11946
928.162	11958
928.267	11999
928.373	12612
928.479	12045
928.585	11809
928.69	11908
928.796	12053
928.901	11779
929.007	11649
929.112	11790
929.218	11817
929.323	11733
929.428	11619
929.533	11783
929.638	11570
929.743	11627
929.848	11668
929.953	11570
930.058	11524
930.163	11349
930.267	11364
930.372	11414
930.477	11292
930.581	11501
930.685	11406
930.79	11147
930.894	11318
930.998	11151
931.103	11322
931.207	10938
931.311	10908
931.415	10824
931.519	10660
931.623	10611
