Data from test_V78500241_538.txt Node
Date: Fri Mar 25 15:45:31 CST 2022
User: usil
Spectrometer: V785-0024
Trigger mode: 0
Integration Time (sec): 4.000000E-1
Scans to average: 1
Nonlinearity correction enabled: false
Boxcar width: 0
Storing dark spectrum: false
XAxis mode: Wavelengths
Number of Pixels in Spectrum: 1024
>>>>>Begin Spectral Data<<<<<
801.071	27804
801.214	27751
801.356	27477
801.499	27431
801.641	27214
801.783	27249
801.926	27336
802.068	27355
802.211	27142
802.353	27112
802.496	26994
802.638	27009
802.78	26960
802.923	26899
803.065	26902
803.208	26819
803.35	27036
803.492	27081
803.635	27108
803.777	26990
803.919	26990
804.061	27374
804.204	26986
804.346	26998
804.488	26960
804.63	27017
804.773	27138
804.915	27146
805.057	27203
805.199	27070
805.341	27203
805.483	27142
805.626	27294
805.768	27081
805.91	27393
806.052	27176
806.194	27192
806.336	27439
806.478	27195
806.62	27226
806.762	27363
806.904	27492
807.046	27808
807.188	27610
807.33	27603
807.472	27709
807.614	27557
807.756	27549
807.898	27500
808.04	27454
808.182	27408
808.324	27458
808.465	27637
808.607	27568
808.749	27724
808.891	28002
809.033	28112
809.174	27812
809.316	27728
809.458	28013
809.6	27903
809.741	28112
809.883	27934
810.025	28169
810.166	28101
810.308	28040
810.45	28116
810.591	28101
810.733	27880
810.875	27922
811.016	27720
811.158	27713
811.299	27922
811.441	28044
811.582	27956
811.724	27831
811.865	27880
812.007	27785
812.148	27838
812.29	27934
812.431	28013
812.573	28253
812.714	28363
812.855	28413
812.997	28299
813.138	28664
813.279	28546
813.421	28337
813.562	28413
813.703	28029
813.845	28112
813.986	27747
814.127	27709
814.268	27435
814.41	27523
814.551	27637
814.692	27485
814.833	27485
814.974	27424
815.115	27576
815.256	27408
815.397	27389
815.539	27431
815.68	27169
815.821	27268
815.962	27378
816.103	27378
816.244	27135
816.385	27066
816.526	27146
816.666	26975
816.807	26883
816.948	26895
817.089	26807
817.23	26883
817.371	26720
817.512	26804
817.653	26830
817.793	26807
817.934	26781
818.075	26788
818.216	26864
818.356	26880
818.497	26667
818.638	26545
818.778	26492
818.919	26511
819.06	26644
819.2	26781
819.341	26887
819.481	26834
819.622	26868
819.762	27070
819.903	27066
820.043	26952
820.184	26781
820.324	26925
820.465	26998
820.605	26963
820.746	26868
820.886	26765
821.026	26815
821.167	26864
821.307	26937
821.447	26800
821.588	26777
821.728	26473
821.868	26355
822.008	26286
822.149	26374
822.289	26313
822.429	26050
822.569	26092
822.709	25932
822.849	25780
822.99	25712
823.13	25677
823.27	25670
823.41	25540
823.55	25426
823.69	25594
823.83	25628
823.97	25476
824.11	25312
824.25	25369
824.389	25343
824.529	25479
824.669	25468
824.809	25422
824.949	25506
825.089	25487
825.228	25449
825.368	25255
825.508	25331
825.648	25232
825.787	25221
825.927	25320
826.067	25198
826.206	25274
826.346	25312
826.485	25430
826.625	25240
826.765	25301
826.904	25187
827.044	24954
827.183	25008
827.323	25027
827.462	25080
827.601	24958
827.741	24867
827.88	24989
828.02	24970
828.159	24985
828.298	24962
828.437	25091
828.577	24962
828.716	25012
828.855	24943
828.994	24738
829.134	24517
829.273	24760
829.412	24616
829.551	24570
829.69	24696
829.829	24749
829.968	24738
830.107	24779
830.246	24677
830.385	24661
830.524	24578
830.663	24452
830.802	24403
830.941	24289
831.08	24182
831.219	24247
831.357	24456
831.496	24547
831.635	24300
831.774	24232
831.913	24197
832.051	24186
832.19	24095
832.329	24041
832.467	23958
832.606	23882
832.744	23901
832.883	24034
833.022	23923
833.16	23935
833.299	24079
833.437	24030
833.576	23904
833.714	24064
833.852	24102
833.991	24098
834.129	24144
834.267	24091
834.406	23901
834.544	24136
834.682	24083
834.821	23965
834.959	24155
835.097	24007
835.235	24003
835.373	23973
835.511	24022
835.65	23901
835.788	24022
835.926	23714
836.064	23714
836.202	23733
836.34	23863
836.478	23973
836.615	23901
836.753	23973
836.891	23882
837.029	23984
837.167	23802
837.305	23855
837.443	23608
837.58	23703
837.718	23855
837.856	23714
837.993	23786
838.131	23589
838.269	23391
838.406	23577
838.544	23372
838.681	23269
838.819	23280
838.956	23258
839.094	23170
839.231	23109
839.369	23330
839.506	23516
839.643	23455
839.781	23235
839.918	23083
840.055	23185
840.193	23155
840.33	23014
840.467	23208
840.604	23124
840.742	23444
840.879	23022
841.016	23083
841.153	23067
841.29	23079
841.427	22968
841.564	23147
841.701	22961
841.838	22934
841.975	23044
842.112	23102
842.249	22896
842.385	22938
842.522	23235
842.659	23003
842.796	22839
842.933	22858
843.069	22824
843.206	22755
843.343	22923
843.479	22892
843.616	22797
843.752	22618
843.889	22607
844.025	22744
844.162	22535
844.298	22630
844.435	22588
844.571	22573
844.708	22725
844.844	22759
844.98	22721
845.117	22634
845.253	22557
845.389	22440
845.525	22413
845.661	22459
845.798	22474
845.934	22421
846.07	22310
846.206	22546
846.342	22405
846.478	22291
846.614	22128
846.75	22044
846.886	21998
847.022	22219
847.158	22067
847.294	22253
847.429	22120
847.565	22120
847.701	22200
847.837	21873
847.972	21892
848.108	21911
848.244	21884
848.379	21644
848.515	21629
848.65	21603
848.786	21728
848.921	21686
849.057	21857
849.192	21854
849.328	21675
849.463	21717
849.598	21568
849.734	21591
849.869	21595
850.004	21519
850.14	21557
850.275	21393
850.41	21302
850.545	21367
850.68	21313
850.815	21389
850.95	21481
851.085	21591
851.22	21542
851.355	21450
851.49	21332
851.625	21416
851.76	21348
851.895	21344
852.03	21386
852.165	21401
852.299	21454
852.434	21454
852.569	21408
852.703	21401
852.838	21511
852.973	21572
853.107	21568
853.242	21329
853.376	21378
853.511	21180
853.645	21135
853.78	21370
853.914	21317
854.048	21302
854.183	21154
854.317	21222
854.451	21542
854.585	21298
854.72	21184
854.854	21325
854.988	21169
855.122	21218
855.256	21112
855.39	21173
855.524	21332
855.658	21245
855.792	21173
855.926	21180
856.06	21226
856.194	21359
856.327	21245
856.461	21043
856.595	21154
856.729	21344
856.862	21302
856.996	21355
857.13	21344
857.263	21439
857.397	21298
857.53	21157
857.664	21218
857.797	21306
857.931	21401
858.064	21272
858.197	21443
858.331	21408
858.464	21161
858.597	21077
858.731	21077
858.864	21077
858.997	21184
859.13	21135
859.263	21203
859.396	21370
859.529	21260
859.662	21192
859.795	21340
859.928	21374
860.061	21359
860.194	21447
860.327	21226
860.46	21214
860.592	21363
860.725	21397
860.858	21344
860.99	21245
861.123	21165
861.256	21161
861.388	21264
861.521	21994
861.653	21085
861.786	21081
861.918	21013
862.05	21108
862.183	21222
862.315	21199
862.447	21226
862.58	21344
862.712	20960
862.844	20986
862.976	21020
863.108	20956
863.24	21313
863.372	20883
863.504	20975
863.636	20864
863.768	20990
863.9	20883
864.032	20906
864.164	20876
864.296	21020
864.428	21055
864.559	21009
864.691	21009
864.823	20891
864.954	20861
865.086	20960
865.217	20925
865.349	20777
865.48	20842
865.612	20849
865.743	21001
865.875	20910
866.006	20807
866.137	20948
866.269	20800
866.4	20899
866.531	20849
866.662	20754
866.793	20792
866.924	20925
867.055	20823
867.186	20826
867.317	20720
867.448	20667
867.579	20823
867.71	20762
867.841	20667
867.972	20743
868.103	20712
868.233	20804
868.364	20716
868.495	20910
868.625	21104
868.756	21112
868.886	21013
869.017	21028
869.147	21192
869.278	21100
869.408	21112
869.539	20990
869.669	21096
869.799	21195
869.929	21249
870.06	21165
870.19	21355
870.32	21313
870.45	21439
870.58	21500
870.71	21606
870.84	21564
870.97	21420
871.1	21401
871.23	21724
871.36	21481
871.489	21641
871.619	21675
871.749	21610
871.879	21603
872.008	21823
872.138	21682
872.267	21644
872.397	21572
872.526	21519
872.656	21526
872.785	21473
872.915	21648
873.044	21736
873.173	21808
873.303	21679
873.432	21838
873.561	21724
873.69	21660
873.819	21759
873.948	21781
874.077	21766
874.206	21564
874.335	21762
874.464	21842
874.593	21987
874.722	21926
874.851	22097
874.979	21869
875.108	21983
875.237	21899
875.365	21903
875.494	21778
875.623	21888
875.751	21888
875.88	21945
876.008	22063
876.136	22063
876.265	22337
876.393	22367
876.521	22421
876.65	22428
876.778	22367
876.906	22226
877.034	22352
877.162	22147
877.29	22185
877.418	22284
877.546	22215
877.674	22246
877.802	22223
877.93	22207
878.058	22246
878.185	22185
878.313	22124
878.441	22344
878.568	22086
878.696	22188
878.824	22265
878.951	22341
879.079	22424
879.206	22508
879.333	22443
879.461	22348
879.588	22451
879.715	22440
879.842	22523
879.97	22348
880.097	22048
880.224	22013
880.351	22120
880.478	22120
880.605	22044
880.732	22097
880.859	22280
880.986	21964
881.112	22143
881.239	21907
881.366	21960
881.493	21679
881.619	21599
881.746	21667
881.872	21641
881.999	21591
882.125	21671
882.252	21701
882.378	21641
882.505	21656
882.631	21408
882.757	21435
882.883	21420
883.01	21332
883.136	21363
883.262	21279
883.388	21199
883.514	21458
883.64	21370
883.766	21298
883.892	21096
884.018	21230
884.143	21294
884.269	21340
884.395	20952
884.52	21036
884.646	20975
884.772	20979
884.897	20887
885.023	21005
885.148	21074
885.274	21009
885.399	21066
885.524	21020
885.65	21005
885.775	21077
885.9	20971
886.025	21119
886.15	21032
886.275	20921
886.4	20952
886.525	20979
886.65	20921
886.775	21013
886.9	21013
887.025	21203
887.149	20967
887.274	20872
887.399	20811
887.523	20796
887.648	20609
887.773	20674
887.897	20830
888.021	20899
888.146	20678
888.27	20857
888.395	20842
888.519	20800
888.643	20777
888.767	20765
888.891	20724
889.015	20590
889.139	20674
889.263	20480
889.387	20724
889.511	20678
889.635	20663
889.759	20457
889.883	20541
890.006	20632
890.13	20621
890.254	20518
890.377	20438
890.501	20252
890.624	20324
890.748	20423
890.871	20187
890.995	20145
891.118	20024
891.241	20103
891.364	20138
891.488	20256
891.611	20107
891.734	20103
891.857	20202
891.98	20107
892.103	20172
892.226	20122
892.349	19993
892.471	19894
892.594	20115
892.717	20142
892.839	20035
892.962	19959
893.085	20199
893.207	19928
893.33	19959
893.452	19963
893.575	20073
893.697	20069
893.819	20206
893.941	20172
894.064	20229
894.186	19947
894.308	19970
894.43	20168
894.552	20161
894.674	20153
894.796	19898
894.918	20130
895.04	19947
895.161	20077
895.283	20096
895.405	20035
895.526	19947
895.648	20008
895.769	20149
895.891	20046
896.012	20252
896.134	20039
896.255	20088
896.376	20065
896.498	20001
896.619	20046
896.74	20027
896.861	20073
896.982	20400
897.103	20438
897.224	20431
897.345	20130
897.466	20130
897.587	20263
897.708	20454
897.828	20377
897.949	20248
898.07	20138
898.19	20073
898.311	20370
898.431	20161
898.552	20271
898.672	20358
898.792	20358
898.913	20404
899.033	20111
899.153	20062
899.273	19940
899.393	20031
899.513	19917
899.633	19997
899.753	20069
899.873	19913
899.993	20073
900.113	19879
900.232	19887
900.352	19940
900.472	19875
900.591	19830
900.711	19887
900.83	19704
900.95	19917
901.069	19936
901.189	19712
901.308	19468
901.427	19403
901.546	19521
901.665	19312
901.784	19327
901.904	19324
902.023	19324
902.141	18981
902.26	18962
902.379	18913
902.498	18993
902.617	18837
902.735	18970
902.854	18932
902.973	18810
903.091	18559
903.21	18612
903.328	18475
903.446	18464
903.565	18376
903.683	18433
903.801	18334
903.919	18338
904.038	18315
904.156	18228
904.274	18201
904.392	18102
904.51	18155
904.627	18140
904.745	18167
904.863	18201
904.981	17927
905.098	17882
905.216	17771
905.334	17783
905.451	17798
905.569	17805
905.686	17866
905.803	17786
905.921	17672
906.038	17729
906.155	17596
906.272	17535
906.389	17535
906.506	17383
906.623	17345
906.74	17414
906.857	17311
906.974	17337
907.091	17395
907.208	17429
907.324	17311
907.441	17235
907.557	17117
907.674	17022
907.79	16987
907.907	17079
908.023	17132
908.139	17056
908.256	17037
908.372	17006
908.488	16968
908.604	16892
908.72	16778
908.836	16717
908.952	16812
909.068	16759
909.184	16923
909.3	16675
909.415	16828
909.531	16759
909.647	16504
909.762	16565
909.878	16402
909.993	16577
910.108	16527
910.224	16371
910.339	16367
910.454	16402
910.57	16318
910.685	16204
910.8	16474
910.915	16546
911.03	16284
911.145	16143
911.259	16112
911.374	16078
911.489	16044
911.604	16048
911.718	15739
911.833	15865
911.947	15781
912.062	15705
912.176	15766
912.291	15930
912.405	15888
912.519	15987
912.633	15998
912.748	15979
912.862	15785
912.976	15736
913.09	15545
913.204	15595
913.318	15637
913.431	15709
913.545	15720
913.659	15709
913.772	15587
913.886	15515
914	15458
914.113	15469
914.226	15603
914.34	15553
914.453	15275
914.566	15401
914.68	15393
914.793	15214
914.906	15142
915.019	15085
915.132	15043
915.245	14944
915.358	15028
915.47	15138
915.583	15074
915.696	15062
915.809	15226
915.921	15226
916.034	14952
916.146	14982
916.259	14956
916.371	14979
916.483	14963
916.595	14853
916.708	14842
916.82	14933
916.932	14956
917.044	14864
917.156	14769
917.268	14708
917.38	14800
917.491	14655
917.603	14739
917.715	14746
917.826	14804
917.938	14598
918.049	14526
918.161	14621
918.272	14819
918.384	14815
918.495	14613
918.606	14454
918.717	14450
918.828	14427
918.939	14617
919.05	14511
919.161	14431
919.272	14271
919.383	14267
919.494	14484
919.604	14705
919.715	14488
919.826	14396
919.936	14370
920.047	14389
920.157	14362
920.267	14651
920.378	14511
920.488	14434
920.598	14530
920.708	14746
920.818	14590
920.928	14590
921.038	14781
921.148	14716
921.258	14377
921.368	14343
921.477	14092
921.587	14206
921.697	14069
921.806	14164
921.916	13997
922.025	13913
922.134	13890
922.244	13833
922.353	13814
922.462	13795
922.571	13563
922.68	13540
922.789	13407
922.898	13476
923.007	13457
923.116	13563
923.224	13487
923.333	13400
923.442	13343
923.55	13285
923.659	13369
923.767	13247
923.876	13270
923.984	13365
924.092	13145
924.201	13259
924.309	13190
924.417	13247
924.525	13137
924.633	13152
924.741	13967
924.849	12939
924.956	13050
925.064	12837
925.172	12871
925.279	12920
925.387	12909
925.494	12856
925.602	13023
925.709	12981
925.816	12806
925.924	12886
926.031	12901
926.138	12829
926.245	12890
926.352	12795
926.459	12875
926.566	12909
926.673	12764
926.779	12582
926.886	12662
926.993	12544
927.099	12456
927.206	12433
927.312	12380
927.419	12460
927.525	12525
927.631	12391
927.737	12365
927.843	12342
927.95	12251
928.056	12334
928.162	12342
928.267	12277
928.373	12890
928.479	12323
928.585	12144
928.69	12182
928.796	12289
928.901	12106
929.007	11996
929.112	12213
929.218	12076
929.323	12095
929.428	12076
929.533	12190
929.638	11942
929.743	12026
929.848	11992
929.953	11920
930.058	11935
930.163	11684
930.267	11805
930.372	11855
930.477	11707
930.581	11832
930.685	11741
930.79	11600
930.894	11649
930.998	11577
931.103	11722
931.207	11387
931.311	11299
931.415	11201
931.519	10995
931.623	11006
