Data from test_V78500241_2096.txt Node
Date: Fri Mar 25 15:56:19 CST 2022
User: usil
Spectrometer: V785-0024
Trigger mode: 0
Integration Time (sec): 4.000000E-1
Scans to average: 1
Nonlinearity correction enabled: false
Boxcar width: 0
Storing dark spectrum: false
XAxis mode: Wavelengths
Number of Pixels in Spectrum: 1024
>>>>>Begin Spectral Data<<<<<
801.071	28778
801.214	28843
801.356	28641
801.499	28748
801.641	28516
801.783	28447
801.926	28622
802.068	28398
802.211	28405
802.353	28356
802.496	28234
802.638	28246
802.78	28211
802.923	27994
803.065	28082
803.208	28116
803.35	28242
803.492	28314
803.635	28466
803.777	28329
803.919	28474
804.061	28759
804.204	28352
804.346	28401
804.488	28398
804.63	28577
804.773	28459
804.915	28417
805.057	28580
805.199	28470
805.341	28504
805.483	28519
805.626	28546
805.768	28489
805.91	28538
806.052	28725
806.194	28394
806.336	28710
806.478	28554
806.62	28618
806.762	28691
806.904	28957
807.046	29037
807.188	29056
807.33	28927
807.472	29060
807.614	28946
807.756	29128
807.898	29052
808.04	28824
808.182	28664
808.324	28984
808.465	29003
808.607	29193
808.749	29440
808.891	29474
809.033	29459
809.174	29417
809.316	29307
809.458	29360
809.6	29239
809.741	29512
809.883	29387
810.025	29566
810.166	29623
810.308	29547
810.45	29440
810.591	29501
810.733	29250
810.875	29326
811.016	29337
811.158	29159
811.299	29330
811.441	29444
811.582	29570
811.724	29200
811.865	29273
812.007	29425
812.148	29391
812.29	29250
812.431	29417
812.573	29687
812.714	29851
812.855	29672
812.997	29916
813.138	30045
813.279	30060
813.421	29745
813.562	29687
813.703	29707
813.845	29539
813.986	29269
814.127	29022
814.268	29105
814.41	29128
814.551	29086
814.692	29086
814.833	28980
814.974	29025
815.115	28938
815.256	28923
815.397	28877
815.539	28930
815.68	28877
815.821	28805
815.962	28927
816.103	28698
816.244	28809
816.385	28653
816.526	28573
816.666	28356
816.807	28337
816.948	28367
817.089	28390
817.23	28268
817.371	28401
817.512	28246
817.653	28291
817.793	28291
817.934	28253
818.075	28394
818.216	28379
818.356	28219
818.497	28109
818.638	28105
818.778	28139
818.919	28154
819.06	28169
819.2	28109
819.341	28322
819.481	28451
819.622	28550
819.762	28653
819.903	28618
820.043	28447
820.184	28531
820.324	28432
820.465	28322
820.605	28451
820.746	28352
820.886	28417
821.026	28394
821.167	28371
821.307	28493
821.447	28356
821.588	28234
821.728	28044
821.868	27987
822.008	27709
822.149	27804
822.289	27781
822.429	27523
822.569	27397
822.709	27599
822.849	27275
822.99	27329
823.13	27450
823.27	27230
823.41	27154
823.55	27233
823.69	27268
823.83	27089
823.97	27207
824.11	26948
824.25	26754
824.389	27017
824.529	27070
824.669	27017
824.809	27157
824.949	27104
825.089	27089
825.228	27062
825.368	26815
825.508	26853
825.648	26880
825.787	26986
825.927	26956
826.067	26868
826.206	26872
826.346	26967
826.485	26940
826.625	26796
826.765	27005
826.904	26895
827.044	26636
827.183	26613
827.323	26796
827.462	26659
827.601	26590
827.741	26606
827.88	26629
828.02	26514
828.159	26507
828.298	26682
828.437	26659
828.577	26556
828.716	26792
828.855	26522
828.994	26309
829.134	26202
829.273	26362
829.412	26412
829.551	26271
829.69	26172
829.829	26259
829.968	26427
830.107	26305
830.246	26263
830.385	26221
830.524	26233
830.663	26088
830.802	26130
830.941	25959
831.08	25921
831.219	26020
831.357	26050
831.496	26096
831.635	25955
831.774	25852
831.913	25750
832.051	25738
832.19	25632
832.329	25917
832.467	25651
832.606	25464
832.744	25377
832.883	25639
833.022	25514
833.16	25495
833.299	25643
833.437	25510
833.576	25556
833.714	25731
833.852	25776
833.991	25753
834.129	25750
834.267	25643
834.406	25578
834.544	25753
834.682	25639
834.821	25639
834.959	25738
835.097	25723
835.235	25597
835.373	25483
835.511	25510
835.65	25468
835.788	25457
835.926	25449
836.064	25282
836.202	25301
836.34	25441
836.478	25407
836.615	25457
836.753	25556
836.891	25567
837.029	25582
837.167	25445
837.305	25472
837.443	25479
837.58	25263
837.718	25362
837.856	25339
837.993	25255
838.131	25339
838.269	25213
838.406	25202
838.544	25228
838.681	24913
838.819	24985
838.956	24692
839.094	24738
839.231	24878
839.369	24833
839.506	24989
839.643	24928
839.781	24734
839.918	24802
840.055	24703
840.193	24658
840.33	24661
840.467	24661
840.604	24483
840.742	24916
840.879	24585
841.016	24574
841.153	24486
841.29	24684
841.427	24616
841.564	24665
841.701	24612
841.838	24631
841.975	24536
842.112	24597
842.249	24414
842.385	24384
842.522	24684
842.659	24399
842.796	24311
842.933	24464
843.069	24452
843.206	24334
843.343	24372
843.479	24353
843.616	24410
843.752	24083
843.889	24330
844.025	24361
844.162	24190
844.298	24304
844.435	24213
844.571	24247
844.708	24285
844.844	24330
844.98	24300
845.117	24209
845.253	24095
845.389	24136
845.525	24083
845.661	23927
845.798	23752
845.934	23973
846.07	23866
846.206	23965
846.342	23901
846.478	23783
846.614	23710
846.75	23531
846.886	23604
847.022	23619
847.158	23687
847.294	23756
847.429	23528
847.565	23646
847.701	23790
847.837	23345
847.972	23391
848.108	23467
848.244	23459
848.379	23318
848.515	23273
848.65	23166
848.786	23258
848.921	23178
849.057	23288
849.192	23360
849.328	23273
849.463	23083
849.598	23094
849.734	23109
849.869	22999
850.004	22915
850.14	22938
850.275	23170
850.41	22812
850.545	22736
850.68	22911
850.815	22873
850.95	22965
851.085	23060
851.22	23083
851.355	23037
851.49	22934
851.625	22892
851.76	22953
851.895	22896
852.03	22949
852.165	23025
852.299	22911
852.434	23056
852.569	23044
852.703	22980
852.838	23071
852.973	23044
853.107	23121
853.242	22911
853.376	22778
853.511	22675
853.645	22793
853.78	22847
853.914	22824
854.048	22740
854.183	22744
854.317	22908
854.451	22927
854.585	22820
854.72	22801
854.854	22877
854.988	22740
855.122	22725
855.256	22637
855.39	22809
855.524	22713
855.658	22835
855.792	22911
855.926	22797
856.06	22698
856.194	22892
856.327	22736
856.461	22763
856.595	22599
856.729	22759
856.862	22915
856.996	22824
857.13	22752
857.263	22972
857.397	22831
857.53	22767
857.664	22782
857.797	22771
857.931	22873
858.064	22744
858.197	22869
858.331	22820
858.464	22778
858.597	22805
858.731	22744
858.864	22664
858.997	22759
859.13	22843
859.263	22706
859.396	22896
859.529	22828
859.662	22881
859.795	22691
859.928	22717
860.061	22968
860.194	22957
860.327	22938
860.46	22797
860.592	22942
860.725	22889
860.858	22949
860.99	22744
861.123	22774
861.256	22847
861.388	22736
861.521	23520
861.653	22668
861.786	22500
861.918	22519
862.05	22725
862.183	22679
862.315	22721
862.447	22900
862.58	22710
862.712	22512
862.844	22443
862.976	22694
863.108	22569
863.24	22843
863.372	22485
863.504	22470
863.636	22417
863.768	22470
863.9	22569
864.032	22440
864.164	22299
864.296	22542
864.428	22565
864.559	22504
864.691	22436
864.823	22390
864.954	22428
865.086	22356
865.217	22306
865.349	22333
865.48	22466
865.612	22394
865.743	22584
865.875	22470
866.006	22325
866.137	22337
866.269	22325
866.4	22287
866.531	22356
866.662	22196
866.793	22249
866.924	22215
867.055	22265
867.186	22451
867.317	22284
867.448	22128
867.579	22272
867.71	22268
867.841	22280
867.972	22261
868.103	22268
868.233	22226
868.364	22322
868.495	22489
868.625	22565
868.756	22580
868.886	22371
869.017	22497
869.147	22653
869.278	22611
869.408	22462
869.539	22500
869.669	22637
869.799	22645
869.929	22584
870.06	22561
870.19	22782
870.32	22782
870.45	22862
870.58	22839
870.71	22949
870.84	22976
870.97	22885
871.1	22904
871.23	23143
871.36	23136
871.489	23083
871.619	23056
871.749	23140
871.879	23239
872.008	23231
872.138	23151
872.267	23143
872.397	23003
872.526	22957
872.656	23109
872.785	22892
872.915	23155
873.044	23113
873.173	23280
873.303	23086
873.432	23277
873.561	23280
873.69	23121
873.819	23132
873.948	23220
874.077	23204
874.206	23197
874.335	23079
874.464	23178
874.593	23296
874.722	23395
874.851	23444
874.979	23410
875.108	23376
875.237	23280
875.365	23296
875.494	23322
875.623	23455
875.751	23417
875.88	23277
876.008	23444
876.136	23376
876.265	23619
876.393	23851
876.521	23828
876.65	23786
876.778	23779
876.906	23596
877.034	23577
877.162	23638
877.29	23619
877.418	23615
877.546	23729
877.674	23718
877.802	23737
877.93	23699
878.058	23642
878.185	23623
878.313	23630
878.441	23638
878.568	23524
878.696	23649
878.824	23764
878.951	23726
879.079	23882
879.206	23912
879.333	23893
879.461	23775
879.588	23783
879.715	23805
879.842	23847
879.97	23687
880.097	23570
880.224	23486
880.351	23570
880.478	23547
880.605	23448
880.732	23478
880.859	23577
880.986	23524
881.112	23402
881.239	23368
881.366	23364
881.493	23143
881.619	23151
881.746	23098
881.872	23136
881.999	22980
882.125	22980
882.252	23185
882.378	22949
882.505	23102
882.631	22828
882.757	22698
882.883	22915
883.01	22683
883.136	22759
883.262	22611
883.388	22470
883.514	22721
883.64	22702
883.766	22653
883.892	22485
884.018	22432
884.143	22554
884.269	22675
884.395	22363
884.52	22261
884.646	22371
884.772	22352
884.897	22265
885.023	22440
885.148	22382
885.274	22504
885.399	22417
885.524	22344
885.65	22341
885.775	22337
885.9	22325
886.025	22440
886.15	22428
886.275	22348
886.4	22268
886.525	22341
886.65	22375
886.775	22230
886.9	22382
887.025	22538
887.149	22337
887.274	22143
887.399	22112
887.523	22006
887.648	22070
887.773	21987
887.897	22211
888.021	22074
888.146	22017
888.27	22211
888.395	22249
888.519	22215
888.643	21987
888.767	22230
888.891	21994
889.015	21964
889.139	22002
889.263	21797
889.387	21998
889.511	22173
889.635	21911
889.759	21968
889.883	21884
890.006	22139
890.13	21994
890.254	21861
890.377	22036
890.501	21629
890.624	21591
890.748	21644
890.871	21538
890.995	21359
891.118	21469
891.241	21348
891.364	21469
891.488	21534
891.611	21549
891.734	21317
891.857	21355
891.98	21443
892.103	21583
892.226	21401
892.349	21359
892.471	21363
892.594	21412
892.717	21302
892.839	21252
892.962	21378
893.085	21401
893.207	21351
893.33	21268
893.452	21192
893.575	21344
893.697	21306
893.819	21477
893.941	21389
894.064	21492
894.186	21287
894.308	21138
894.43	21397
894.552	21348
894.674	21317
894.796	21161
894.918	21131
895.04	21336
895.161	21439
895.283	21386
895.405	21199
895.526	21287
895.648	21279
895.769	21222
895.891	21298
896.012	21401
896.134	21355
896.255	21245
896.376	21241
896.498	21142
896.619	21351
896.74	21317
896.861	21408
896.982	21629
897.103	21698
897.224	21633
897.345	21553
897.466	21367
897.587	21515
897.708	21542
897.828	21492
897.949	21420
898.07	21306
898.19	21348
898.311	21583
898.431	21504
898.552	21515
898.672	21542
898.792	21424
898.913	21485
899.033	21291
899.153	21332
899.273	21157
899.393	21279
899.513	21218
899.633	21176
899.753	21268
899.873	21294
899.993	21222
900.113	21036
900.232	21226
900.352	21176
900.472	21009
900.591	20845
900.711	20899
900.83	21055
900.95	21017
901.069	21055
901.189	20754
901.308	20655
901.427	20571
901.546	20518
901.665	20518
901.784	20454
901.904	20385
902.023	20248
902.141	20145
902.26	19993
902.379	20180
902.498	20111
902.617	19963
902.735	20149
902.854	20149
902.973	19818
903.091	19807
903.21	19670
903.328	19666
903.446	19605
903.565	19422
903.683	19563
903.801	19373
903.919	19377
904.038	19449
904.156	19381
904.274	19266
904.392	19221
904.51	19244
904.627	19251
904.745	19251
904.863	19312
904.981	19061
905.098	18996
905.216	19038
905.334	19012
905.451	18966
905.569	18947
905.686	18939
905.803	18840
905.921	18795
906.038	18772
906.155	18703
906.272	18585
906.389	18722
906.506	18456
906.623	18433
906.74	18300
906.857	18391
906.974	18342
907.091	18517
907.208	18616
907.324	18483
907.441	18319
907.557	18216
907.674	18186
907.79	18068
907.907	18129
908.023	18262
908.139	18087
908.256	18087
908.372	17999
908.488	17935
908.604	17958
908.72	17889
908.836	17832
908.952	17821
909.068	17874
909.184	17980
909.3	17748
909.415	17863
909.531	17775
909.647	17596
909.762	17562
909.878	17490
909.993	17520
910.108	17490
910.224	17516
910.339	17539
910.454	17505
910.57	17440
910.685	17311
910.8	17619
910.915	17414
911.03	17322
911.145	17204
911.259	17060
911.374	17181
911.489	17056
911.604	16953
911.718	16824
911.833	16908
911.947	16877
912.062	16622
912.176	16820
912.291	16961
912.405	16889
912.519	17022
912.633	17094
912.748	16896
912.862	16816
912.976	16679
913.09	16474
913.204	16622
913.318	16706
913.431	16748
913.545	16721
913.659	16797
913.772	16687
913.886	16523
914	16466
914.113	16535
914.226	16694
914.34	16531
914.453	16329
914.566	16413
914.68	16363
914.793	16325
914.906	16188
915.019	16071
915.132	16044
915.245	16116
915.358	16173
915.47	16010
915.583	16021
915.696	16002
915.809	16143
915.921	16230
916.034	15846
916.146	15937
916.259	15869
916.371	16006
916.483	15934
916.595	15865
916.708	15949
916.82	15873
916.932	15816
917.044	15846
917.156	15770
917.268	15675
917.38	15690
917.491	15641
917.603	15675
917.715	15686
917.826	15724
917.938	15542
918.049	15439
918.161	15595
918.272	15751
918.384	15694
918.495	15557
918.606	15386
918.717	15310
918.828	15477
918.939	15443
919.05	15431
919.161	15435
919.272	15184
919.383	15218
919.494	15485
919.604	15564
919.715	15405
919.826	15275
919.936	15264
920.047	15389
920.157	15450
920.267	15515
920.378	15401
920.488	15245
920.598	15542
920.708	15648
920.818	15447
920.928	15435
921.038	15625
921.148	15591
921.258	15237
921.368	15203
921.477	15074
921.587	15176
921.697	14872
921.806	15024
921.916	14960
922.025	14708
922.134	14708
922.244	14575
922.353	14762
922.462	14503
922.571	14560
922.68	14301
922.789	14282
922.898	14328
923.007	14259
923.116	14305
923.224	14324
923.333	14294
923.442	14115
923.55	14176
923.659	14092
923.767	14134
923.876	14088
923.984	14202
924.092	14035
924.201	14054
924.309	14138
924.417	13982
924.525	14050
924.633	13890
924.741	14887
924.849	13833
924.956	13868
925.064	13750
925.172	13731
925.279	13712
925.387	13666
925.494	13647
925.602	13761
925.709	13750
925.816	13689
925.924	13662
926.031	13738
926.138	13639
926.245	13643
926.352	13464
926.459	13647
926.566	13769
926.673	13518
926.779	13476
926.886	13377
926.993	13289
927.099	13282
927.206	13183
927.312	13206
927.419	13206
927.525	13270
927.631	13194
927.737	13118
927.843	13072
927.95	12981
928.056	13091
928.162	13076
928.267	13050
928.373	13795
928.479	13099
928.585	12825
928.69	12977
928.796	13046
928.901	12932
929.007	12829
929.112	12848
929.218	12867
929.323	12772
929.428	12772
929.533	12886
929.638	12745
929.743	12726
929.848	12711
929.953	12734
930.058	12631
930.163	12437
930.267	12464
930.372	12593
930.477	12376
930.581	12582
930.685	12471
930.79	12281
930.894	12304
930.998	12342
931.103	12365
931.207	12030
931.311	12019
931.415	11821
931.519	11615
931.623	11619
