Data from test_V78500241_620.txt Node
Date: Fri Mar 25 15:46:05 CST 2022
User: usil
Spectrometer: V785-0024
Trigger mode: 0
Integration Time (sec): 4.000000E-1
Scans to average: 1
Nonlinearity correction enabled: false
Boxcar width: 0
Storing dark spectrum: false
XAxis mode: Wavelengths
Number of Pixels in Spectrum: 1024
>>>>>Begin Spectral Data<<<<<
801.071	27739
801.214	27614
801.356	27454
801.499	27424
801.641	27298
801.783	27294
801.926	27237
802.068	27176
802.211	27184
802.353	27112
802.496	26823
802.638	26956
802.78	26906
802.923	26868
803.065	26823
803.208	26940
803.35	27013
803.492	26982
803.635	26982
803.777	26880
803.919	27100
804.061	27313
804.204	26994
804.346	26979
804.488	26956
804.63	27081
804.773	27085
804.915	27089
805.057	27150
805.199	27028
805.341	27127
805.483	27249
805.626	27199
805.768	27104
805.91	27214
806.052	27230
806.194	27199
806.336	27344
806.478	27252
806.62	27211
806.762	27161
806.904	27530
807.046	27679
807.188	27660
807.33	27682
807.472	27785
807.614	27477
807.756	27492
807.898	27538
808.04	27534
808.182	27481
808.324	27431
808.465	27492
808.607	27766
808.749	27819
808.891	27739
809.033	28078
809.174	28021
809.316	27861
809.458	27804
809.6	27819
809.741	27975
809.883	28017
810.025	28215
810.166	28055
810.308	28063
810.45	28230
810.591	27918
810.733	27861
810.875	27789
811.016	27819
811.158	27732
811.299	27998
811.441	28017
811.582	27960
811.724	27755
811.865	27751
812.007	27797
812.148	27808
812.29	27914
812.431	28017
812.573	28230
812.714	28150
812.855	28360
812.997	28322
813.138	28656
813.279	28519
813.421	28409
813.562	28367
813.703	28249
813.845	28048
813.986	27816
814.127	27572
814.268	27424
814.41	27606
814.551	27370
814.692	27557
814.833	27412
814.974	27488
815.115	27614
815.256	27405
815.397	27351
815.539	27272
815.68	27214
815.821	27230
815.962	27367
816.103	27355
816.244	27245
816.385	27131
816.526	26979
816.666	27032
816.807	26765
816.948	26895
817.089	26902
817.23	26716
817.371	26819
817.512	26785
817.653	26689
817.793	26705
817.934	26655
818.075	26724
818.216	26743
818.356	26743
818.497	26678
818.638	26636
818.778	26511
818.919	26613
819.06	26689
819.2	26609
819.341	26746
819.481	26842
819.622	26929
819.762	27173
819.903	27043
820.043	26895
820.184	26849
820.324	26891
820.465	26998
820.605	26948
820.746	26971
820.886	26861
821.026	26857
821.167	26830
821.307	26956
821.447	26697
821.588	26762
821.728	26598
821.868	26507
822.008	26423
822.149	26313
822.289	26252
822.429	25951
822.569	26016
822.709	26020
822.849	25887
822.99	25750
823.13	25769
823.27	25818
823.41	25613
823.55	25544
823.69	25723
823.83	25601
823.97	25491
824.11	25362
824.25	25407
824.389	25563
824.529	25540
824.669	25422
824.809	25552
824.949	25571
825.089	25529
825.228	25582
825.368	25426
825.508	25365
825.648	25369
825.787	25479
825.927	25343
826.067	25308
826.206	25411
826.346	25369
826.485	25343
826.625	25381
826.765	25377
826.904	25346
827.044	25069
827.183	25072
827.323	25065
827.462	25084
827.601	25129
827.741	25053
827.88	24913
828.02	24924
828.159	25080
828.298	25038
828.437	25091
828.577	24966
828.716	25065
828.855	25000
828.994	24620
829.134	24795
829.273	24719
829.412	24612
829.551	24745
829.69	24779
829.829	24707
829.968	24848
830.107	24772
830.246	24650
830.385	24631
830.524	24536
830.663	24498
830.802	24350
830.941	24410
831.08	24350
831.219	24422
831.357	24418
831.496	24646
831.635	24270
831.774	24289
831.913	24152
832.051	24144
832.19	24110
832.329	24091
832.467	23935
832.606	23958
832.744	23984
832.883	24026
833.022	24030
833.16	23950
833.299	24049
833.437	24026
833.576	24136
833.714	24015
833.852	24045
833.991	24030
834.129	24079
834.267	24098
834.406	24110
834.544	24121
834.682	24076
834.821	23935
834.959	24224
835.097	23920
835.235	24247
835.373	24003
835.511	23977
835.65	24034
835.788	23996
835.926	23847
836.064	23703
836.202	23619
836.34	23870
836.478	23939
836.615	23790
836.753	23916
836.891	23973
837.029	23889
837.167	23790
837.305	23714
837.443	23684
837.58	23611
837.718	23821
837.856	23707
837.993	23653
838.131	23714
838.269	23474
838.406	23516
838.544	23509
838.681	23364
838.819	23318
838.956	23174
839.094	23136
839.231	23189
839.369	23181
839.506	23520
839.643	23277
839.781	23136
839.918	23155
840.055	23162
840.193	23083
840.33	23170
840.467	23086
840.604	23166
840.742	23299
840.879	22896
841.016	23075
841.153	22999
841.29	23216
841.427	23018
841.564	23090
841.701	23147
841.838	22984
841.975	22965
842.112	23006
842.249	23052
842.385	22957
842.522	23037
842.659	22957
842.796	22771
842.933	22733
843.069	22938
843.206	22687
843.343	22930
843.479	22908
843.616	22873
843.752	22672
843.889	22584
844.025	22771
844.162	22554
844.298	22729
844.435	22771
844.571	22497
844.708	22599
844.844	22877
844.98	22634
845.117	22748
845.253	22577
845.389	22478
845.525	22531
845.661	22512
845.798	22382
845.934	22455
846.07	22325
846.206	22417
846.342	22546
846.478	22234
846.614	22143
846.75	22093
846.886	22025
847.022	22177
847.158	22093
847.294	22109
847.429	22082
847.565	21941
847.701	22367
847.837	21846
847.972	21720
848.108	21903
848.244	21804
848.379	21682
848.515	21713
848.65	21667
848.786	21713
848.921	21774
849.057	22017
849.192	21652
849.328	21686
849.463	21606
849.598	21641
849.734	21614
849.869	21435
850.004	21428
850.14	21435
850.275	21526
850.41	21389
850.545	21367
850.68	21306
850.815	21462
850.95	21367
851.085	21720
851.22	21583
851.355	21488
851.49	21374
851.625	21389
851.76	21424
851.895	21382
852.03	21466
852.165	21458
852.299	21557
852.434	21496
852.569	21561
852.703	21447
852.838	21454
852.973	21595
853.107	21526
853.242	21355
853.376	21298
853.511	21211
853.645	21241
853.78	21401
853.914	21275
854.048	21245
854.183	21249
854.317	21302
854.451	21473
854.585	21275
854.72	21173
854.854	21378
854.988	21252
855.122	21279
855.256	21142
855.39	21302
855.524	21313
855.658	21283
855.792	21237
855.926	21268
856.06	21237
856.194	21382
856.327	21184
856.461	21169
856.595	21161
856.729	21138
856.862	21378
856.996	21214
857.13	21374
857.263	21340
857.397	21519
857.53	21230
857.664	21203
857.797	21275
857.931	21515
858.064	21374
858.197	21374
858.331	21211
858.464	21207
858.597	21127
858.731	21176
858.864	21283
858.997	21169
859.13	21325
859.263	21169
859.396	21275
859.529	21279
859.662	21256
859.795	21268
859.928	21195
860.061	21389
860.194	21340
860.327	21447
860.46	21340
860.592	21340
860.725	21401
860.858	21428
860.99	21321
861.123	21096
861.256	21157
861.388	21336
861.521	21968
861.653	21039
861.786	21070
861.918	21184
862.05	21085
862.183	20994
862.315	21176
862.447	21287
862.58	21119
862.712	20933
862.844	20948
862.976	21116
863.108	21047
863.24	21382
863.372	20982
863.504	20963
863.636	20849
863.768	21127
863.9	20910
864.032	20948
864.164	21047
864.296	21020
864.428	21009
864.559	21005
864.691	21043
864.823	20960
864.954	21017
865.086	20921
865.217	20914
865.349	20796
865.48	20986
865.612	20944
865.743	21116
865.875	20982
866.006	20697
866.137	20788
866.269	20758
866.4	20864
866.531	20838
866.662	20701
866.793	20849
866.924	20819
867.055	20849
867.186	20842
867.317	20895
867.448	20720
867.579	20811
867.71	20811
867.841	20762
867.972	20796
868.103	20773
868.233	20807
868.364	20781
868.495	20975
868.625	21104
868.756	21165
868.886	20971
869.017	21009
869.147	21176
869.278	21131
869.408	21093
869.539	21066
869.669	21142
869.799	21051
869.929	21192
870.06	21313
870.19	21401
870.32	21386
870.45	21321
870.58	21515
870.71	21561
870.84	21439
870.97	21363
871.1	21454
871.23	21633
871.36	21568
871.489	21542
871.619	21690
871.749	21679
871.879	21629
872.008	21793
872.138	21770
872.267	21766
872.397	21466
872.526	21458
872.656	21473
872.785	21443
872.915	21576
873.044	21705
873.173	21686
873.303	21762
873.432	21663
873.561	21747
873.69	21816
873.819	21690
873.948	21751
874.077	21648
874.206	21648
874.335	21720
874.464	21698
874.593	21888
874.722	21991
874.851	21941
874.979	21975
875.108	21865
875.237	21873
875.365	21850
875.494	21819
875.623	21899
875.751	21751
875.88	21934
876.008	21994
876.136	22055
876.265	22268
876.393	22459
876.521	22428
876.65	22344
876.778	22291
876.906	22329
877.034	22128
877.162	22207
877.29	22154
877.418	22333
877.546	22261
877.674	22226
877.802	22280
877.93	22234
878.058	22192
878.185	22109
878.313	22249
878.441	22139
878.568	22048
878.696	22257
878.824	22303
878.951	22318
879.079	22394
879.206	22523
879.333	22402
879.461	22242
879.588	22276
879.715	22253
879.842	22481
879.97	22322
880.097	21994
880.224	22116
880.351	22112
880.478	22063
880.605	22101
880.732	22021
880.859	22428
880.986	22017
881.112	22021
881.239	21937
881.366	21857
881.493	21804
881.619	21713
881.746	21675
881.872	21656
881.999	21671
882.125	21553
882.252	21610
882.378	21622
882.505	21675
882.631	21496
882.757	21378
882.883	21397
883.01	21230
883.136	21393
883.262	21207
883.388	21272
883.514	21367
883.64	21355
883.766	21283
883.892	21077
884.018	21230
884.143	21188
884.269	21291
884.395	21089
884.52	20933
884.646	20853
884.772	20921
884.897	20979
885.023	20986
885.148	21180
885.274	21165
885.399	21036
885.524	20933
885.65	20998
885.775	20982
885.9	20876
886.025	21070
886.15	21089
886.275	20868
886.4	20868
886.525	21089
886.65	20792
886.775	20895
886.9	21047
887.025	21138
887.149	20956
887.274	20804
887.399	20762
887.523	20758
887.648	20739
887.773	20640
887.897	20800
888.021	20807
888.146	20686
888.27	20868
888.395	20754
888.519	20781
888.643	20735
888.767	20720
888.891	20651
889.015	20594
889.139	20629
889.263	20644
889.387	20655
889.511	20724
889.635	20644
889.759	20518
889.883	20499
890.006	20606
890.13	20697
890.254	20560
890.377	20552
890.501	20317
890.624	20309
890.748	20480
890.871	20259
890.995	20172
891.118	20016
891.241	20084
891.364	20115
891.488	20210
891.611	20126
891.734	20218
891.857	20187
891.98	20115
892.103	20225
892.226	20218
892.349	20096
892.471	19879
892.594	20062
892.717	20100
892.839	20046
892.962	20130
893.085	20084
893.207	20005
893.33	19902
893.452	20008
893.575	19986
893.697	19974
893.819	20115
893.941	20187
894.064	20122
894.186	19997
894.308	19909
894.43	20176
894.552	20180
894.674	20111
894.796	20035
894.918	19909
895.04	19959
895.161	20035
895.283	20103
895.405	19909
895.526	20058
895.648	19925
895.769	20122
895.891	19997
896.012	20164
896.134	20073
896.255	19997
896.376	20005
896.498	20012
896.619	19967
896.74	19986
896.861	20077
896.982	20259
897.103	20522
897.224	20393
897.345	20237
897.466	20191
897.587	20290
897.708	20339
897.828	20408
897.949	20142
898.07	19947
898.19	20233
898.311	20381
898.431	20214
898.552	20229
898.672	20412
898.792	20324
898.913	20320
899.033	20103
899.153	20073
899.273	19970
899.393	20065
899.513	20008
899.633	20058
899.753	20058
899.873	19864
899.993	20130
900.113	19909
900.232	19860
900.352	19967
900.472	19875
900.591	19795
900.711	19879
900.83	19693
900.95	19811
901.069	19795
901.189	19727
901.308	19407
901.427	19441
901.546	19365
901.665	19301
901.784	19426
901.904	19240
902.023	19095
902.141	18935
902.26	18932
902.379	19126
902.498	18894
902.617	18901
902.735	18859
902.854	18916
902.973	18715
903.091	18585
903.21	18456
903.328	18574
903.446	18506
903.565	18384
903.683	18407
903.801	18285
903.919	18285
904.038	18399
904.156	18117
904.274	18262
904.392	18087
904.51	18235
904.627	18034
904.745	18178
904.863	18220
904.981	17931
905.098	17855
905.216	17756
905.334	17958
905.451	17817
905.569	17760
905.686	17828
905.803	17771
905.921	17592
906.038	17649
906.155	17589
906.272	17562
906.389	17474
906.506	17402
906.623	17406
906.74	17349
906.857	17185
906.974	17296
907.091	17383
907.208	17421
907.324	17391
907.441	17269
907.557	17189
907.674	17170
907.79	16949
907.907	17086
908.023	17075
908.139	17086
908.256	16987
908.372	16885
908.488	16930
908.604	16835
908.72	16767
908.836	16782
908.952	16831
909.068	16771
909.184	16911
909.3	16759
909.415	16858
909.531	16793
909.647	16485
909.762	16421
909.878	16455
909.993	16508
910.108	16485
910.224	16478
910.339	16421
910.454	16348
910.57	16272
910.685	16196
910.8	16527
910.915	16409
911.03	16306
911.145	16135
911.259	15987
911.374	16032
911.489	16071
911.604	15956
911.718	15861
911.833	15800
911.947	15701
912.062	15701
912.176	15819
912.291	15903
912.405	15804
912.519	16044
912.633	15888
912.748	15831
912.862	15797
912.976	15561
913.09	15557
913.204	15553
913.318	15686
913.431	15694
913.545	15663
913.659	15686
913.772	15606
913.886	15443
914	15405
914.113	15587
914.226	15614
914.34	15580
914.453	15272
914.566	15447
914.68	15348
914.793	15294
914.906	15207
915.019	15001
915.132	14960
915.245	14986
915.358	15077
915.47	15127
915.583	15097
915.696	15070
915.809	15093
915.921	15211
916.034	15005
916.146	14918
916.259	14933
916.371	15070
916.483	14979
916.595	14880
916.708	14750
916.82	14857
916.932	14826
917.044	14868
917.156	14876
917.268	14731
917.38	14777
917.491	14697
917.603	14670
917.715	14769
917.826	14785
917.938	14598
918.049	14571
918.161	14587
918.272	14823
918.384	14800
918.495	14686
918.606	14530
918.717	14412
918.828	14575
918.939	14393
919.05	14332
919.161	14385
919.272	14309
919.383	14317
919.494	14473
919.604	14621
919.715	14518
919.826	14332
919.936	14446
920.047	14499
920.157	14461
920.267	14686
920.378	14469
920.488	14442
920.598	14621
920.708	14678
920.818	14598
920.928	14461
921.038	14754
921.148	14705
921.258	14374
921.368	14286
921.477	14142
921.587	14115
921.697	14084
921.806	14149
921.916	13982
922.025	13978
922.134	13818
922.244	13845
922.353	13833
922.462	13704
922.571	13647
922.68	13502
922.789	13460
922.898	13544
923.007	13445
923.116	13540
923.224	13434
923.333	13460
923.442	13304
923.55	13304
923.659	13358
923.767	13278
923.876	13346
923.984	13327
924.092	13202
924.201	13175
924.309	13187
924.417	13190
924.525	13107
924.633	13228
924.741	14073
924.849	12875
924.956	13141
925.064	12920
925.172	12875
925.279	12856
925.387	12947
925.494	12867
925.602	12985
925.709	12973
925.816	12852
925.924	12924
926.031	12928
926.138	12787
926.245	12951
926.352	12776
926.459	12867
926.566	12871
926.673	12768
926.779	12566
926.886	12597
926.993	12563
927.099	12384
927.206	12441
927.312	12403
927.419	12395
927.525	12433
927.631	12380
927.737	12273
927.843	12357
927.95	12121
928.056	12220
928.162	12327
928.267	12277
928.373	12905
928.479	12315
928.585	12102
928.69	12235
928.796	12323
928.901	12167
929.007	12049
929.112	12072
929.218	12079
929.323	11973
929.428	11996
929.533	12083
929.638	11866
929.743	11904
929.848	11984
929.953	11912
930.058	11931
930.163	11718
930.267	11688
930.372	11809
930.477	11741
930.581	11824
930.685	11733
930.79	11570
930.894	11535
930.998	11558
931.103	11691
931.207	11273
931.311	11299
931.415	11162
931.519	10949
931.623	10961
