Data from test_V78500241_2976.txt Node
Date: Fri Mar 25 16:02:25 CST 2022
User: usil
Spectrometer: V785-0024
Trigger mode: 0
Integration Time (sec): 4.000000E-1
Scans to average: 1
Nonlinearity correction enabled: false
Boxcar width: 0
Storing dark spectrum: false
XAxis mode: Wavelengths
Number of Pixels in Spectrum: 1024
>>>>>Begin Spectral Data<<<<<
801.071	27618
801.214	27652
801.356	27454
801.499	27397
801.641	27161
801.783	27169
801.926	27112
802.068	27222
802.211	26952
802.353	27142
802.496	26895
802.638	26807
802.78	26777
802.923	26621
803.065	26765
803.208	26701
803.35	26617
803.492	26921
803.635	26952
803.777	26762
803.919	26872
804.061	27207
804.204	27081
804.346	26887
804.488	26838
804.63	26891
804.773	26952
804.915	27020
805.057	27077
805.199	27020
805.341	26998
805.483	27146
805.626	27070
805.768	26979
805.91	27161
806.052	27211
806.194	26944
806.336	27237
806.478	27146
806.62	27093
806.762	27157
806.904	27473
807.046	27580
807.188	27549
807.33	27481
807.472	27614
807.614	27538
807.756	27553
807.898	27359
808.04	27207
808.182	27325
808.324	27363
808.465	27504
808.607	27633
808.749	27736
808.891	27800
809.033	27941
809.174	27770
809.316	27701
809.458	27736
809.6	27679
809.741	27789
809.883	27934
810.025	27941
810.166	27998
810.308	28067
810.45	27941
810.591	27873
810.733	27797
810.875	27686
811.016	27637
811.158	27595
811.299	27705
811.441	27869
811.582	27793
811.724	27827
811.865	27717
812.007	27717
812.148	27736
812.29	27656
812.431	27865
812.573	28010
812.714	28112
812.855	28226
812.997	28200
813.138	28371
813.279	28360
813.421	28188
813.562	28158
813.703	28048
813.845	27945
813.986	27625
814.127	27412
814.268	27587
814.41	27340
814.551	27420
814.692	27401
814.833	27317
814.974	27321
815.115	27397
815.256	27260
815.397	27272
815.539	27176
815.68	27142
815.821	27001
815.962	27150
816.103	27066
816.244	27089
816.385	26982
816.526	26940
816.666	26880
816.807	26560
816.948	26678
817.089	26758
817.23	26659
817.371	26640
817.512	26678
817.653	26480
817.793	26526
817.934	26689
818.075	26682
818.216	26613
818.356	26518
818.497	26507
818.638	26423
818.778	26309
818.919	26408
819.06	26499
819.2	26511
819.341	26708
819.481	26724
819.622	26777
819.762	27142
819.903	26910
820.043	26785
820.184	26762
820.324	26689
820.465	26921
820.605	26731
820.746	26773
820.886	26701
821.026	26830
821.167	26849
821.307	26754
821.447	26655
821.588	26537
821.728	26530
821.868	26271
822.008	26240
822.149	26161
822.289	26126
822.429	25856
822.569	25670
822.709	26001
822.849	25700
822.99	25613
823.13	25620
823.27	25556
823.41	25525
823.55	25434
823.69	25495
823.83	25426
823.97	25407
824.11	25076
824.25	25209
824.389	25362
824.529	25282
824.669	25331
824.809	25422
824.949	25358
825.089	25343
825.228	25293
825.368	25023
825.508	25069
825.648	25118
825.787	25202
825.927	25206
826.067	25019
826.206	25118
826.346	25206
826.485	25312
826.625	25148
826.765	25316
826.904	25095
827.044	24905
827.183	24897
827.323	24760
827.462	24947
827.601	24844
827.741	24806
827.88	24924
828.02	24726
828.159	24779
828.298	24897
828.437	24932
828.577	24757
828.716	24741
828.855	24859
828.994	24475
829.134	24570
829.273	24593
829.412	24547
829.551	24486
829.69	24566
829.829	24665
829.968	24566
830.107	24525
830.246	24502
830.385	24570
830.524	24273
830.663	24338
830.802	24330
830.941	24163
831.08	24057
831.219	24159
831.357	24155
831.496	24448
831.635	24159
831.774	23942
831.913	24011
832.051	23992
832.19	23973
832.329	23961
832.467	23752
832.606	23657
832.744	23707
832.883	23817
833.022	23767
833.16	23939
833.299	23836
833.437	23707
833.576	23843
833.714	23855
833.852	23904
833.991	23855
834.129	23904
834.267	24038
834.406	23847
834.544	23942
834.682	23946
834.821	23813
834.959	24098
835.097	23870
835.235	23817
835.373	23843
835.511	23977
835.65	23703
835.788	23863
835.926	23547
836.064	23509
836.202	23520
836.34	23794
836.478	23775
836.615	23786
836.753	23642
836.891	23718
837.029	23634
837.167	23634
837.305	23726
837.443	23531
837.58	23524
837.718	23707
837.856	23551
837.993	23417
838.131	23585
838.269	23501
838.406	23524
838.544	23452
838.681	23292
838.819	23296
838.956	22877
839.094	23029
839.231	23124
839.369	23143
839.506	23417
839.643	23307
839.781	23071
839.918	23018
840.055	23033
840.193	22911
840.33	22927
840.467	22873
840.604	23037
840.742	23265
840.879	22820
841.016	22752
841.153	22908
841.29	23064
841.427	22953
841.564	22946
841.701	22908
841.838	23006
841.975	22866
842.112	22839
842.249	22885
842.385	22812
842.522	22866
842.659	22824
842.796	22698
842.933	22683
843.069	22542
843.206	22592
843.343	22862
843.479	22736
843.616	22596
843.752	22455
843.889	22535
844.025	22607
844.162	22432
844.298	22717
844.435	22462
844.571	22504
844.708	22535
844.844	22649
844.98	22641
845.117	22523
845.253	22367
845.389	22284
845.525	22379
845.661	22360
845.798	22352
845.934	22363
846.07	22246
846.206	22207
846.342	22226
846.478	22211
846.614	22059
846.75	21987
846.886	21861
847.022	22044
847.158	22029
847.294	21972
847.429	21937
847.565	21945
847.701	22185
847.837	21675
847.972	21652
848.108	21618
848.244	21660
848.379	21542
848.515	21473
848.65	21507
848.786	21576
848.921	21595
849.057	21564
849.192	21564
849.328	21564
849.463	21500
849.598	21538
849.734	21408
849.869	21226
850.004	21340
850.14	21275
850.275	21389
850.41	21169
850.545	21260
850.68	21298
850.815	21283
850.95	21272
851.085	21466
851.22	21389
851.355	21351
851.49	21260
851.625	21260
851.76	21279
851.895	21142
852.03	21298
852.165	21283
852.299	21298
852.434	21405
852.569	21340
852.703	21367
852.838	21283
852.973	21340
853.107	21435
853.242	21329
853.376	21211
853.511	20967
853.645	21142
853.78	21176
853.914	21241
854.048	21085
854.183	21074
854.317	21070
854.451	21325
854.585	21211
854.72	21005
854.854	21142
854.988	21009
855.122	21218
855.256	21184
855.39	21055
855.524	21108
855.658	21081
855.792	21062
855.926	21230
856.06	21173
856.194	21249
856.327	21131
856.461	21058
856.595	21066
856.729	21142
856.862	21218
856.996	21161
857.13	21176
857.263	21195
857.397	21218
857.53	21180
857.664	21199
857.797	21252
857.931	21116
858.064	21294
858.197	21249
858.331	21096
858.464	21089
858.597	21070
858.731	21108
858.864	21047
858.997	21188
859.13	21188
859.263	21138
859.396	21359
859.529	21195
859.662	21093
859.795	21100
859.928	21116
860.061	21226
860.194	21226
860.327	21176
860.46	21142
860.592	21260
860.725	21252
860.858	21283
860.99	21127
861.123	21062
861.256	20990
861.388	21180
861.521	21888
861.653	21119
861.786	20872
861.918	21024
862.05	20956
862.183	21085
862.315	21119
862.447	21005
862.58	21108
862.712	20804
862.844	20868
862.976	20750
863.108	20861
863.24	21367
863.372	20796
863.504	20891
863.636	20861
863.768	20838
863.9	20777
864.032	20670
864.164	20754
864.296	20872
864.428	20895
864.559	20902
864.691	20918
864.823	20960
864.954	20902
865.086	20861
865.217	20807
865.349	20758
865.48	20773
865.612	20807
865.743	20807
865.875	20842
866.006	20686
866.137	20800
866.269	20731
866.4	20663
866.531	20743
866.662	20636
866.793	20735
866.924	20693
867.055	20705
867.186	20678
867.317	20686
867.448	20594
867.579	20670
867.71	20705
867.841	20492
867.972	20807
868.103	20796
868.233	20788
868.364	20754
868.495	20762
868.625	20956
868.756	21036
868.886	20857
869.017	20895
869.147	20914
869.278	21100
869.408	20872
869.539	20914
869.669	20971
869.799	20933
869.929	21112
870.06	20986
870.19	21272
870.32	21199
870.45	21313
870.58	21329
870.71	21420
870.84	21332
870.97	21363
871.1	21291
871.23	21424
871.36	21625
871.489	21477
871.619	21477
871.749	21587
871.879	21466
872.008	21610
872.138	21580
872.267	21576
872.397	21408
872.526	21310
872.656	21492
872.785	21302
872.915	21545
873.044	21564
873.173	21504
873.303	21542
873.432	21603
873.561	21736
873.69	21538
873.819	21496
873.948	21679
874.077	21580
874.206	21523
874.335	21614
874.464	21618
874.593	21732
874.722	21743
874.851	21774
874.979	21880
875.108	21812
875.237	21774
875.365	21709
875.494	21778
875.623	21915
875.751	21671
875.88	21785
876.008	21960
876.136	21987
876.265	22093
876.393	22367
876.521	22299
876.65	22257
876.778	22196
876.906	22147
877.034	22192
877.162	22055
877.29	22143
877.418	22112
877.546	22120
877.674	22211
877.802	22120
877.93	22090
878.058	22109
878.185	21941
878.313	22181
878.441	22017
878.568	21983
878.696	22204
878.824	22162
878.951	22234
879.079	22223
879.206	22314
879.333	22344
879.461	22177
879.588	22192
879.715	22356
879.842	22382
879.97	22249
880.097	22055
880.224	21991
880.351	22116
880.478	21895
880.605	21934
880.732	22006
880.859	22093
880.986	21945
881.112	22002
881.239	21854
881.366	21671
881.493	21705
881.619	21580
881.746	21534
881.872	21625
881.999	21515
882.125	21477
882.252	21606
882.378	21523
882.505	21679
882.631	21313
882.757	21397
882.883	21230
883.01	21230
883.136	21127
883.262	21131
883.388	21051
883.514	21329
883.64	21249
883.766	21108
883.892	21017
884.018	21108
884.143	21188
884.269	21207
884.395	21051
884.52	20963
884.646	20883
884.772	20861
884.897	20743
885.023	20857
885.148	20921
885.274	21119
885.399	21070
885.524	20891
885.65	20902
885.775	20895
885.9	20819
886.025	20994
886.15	20944
886.275	20845
886.4	20750
886.525	20857
886.65	20777
886.775	20750
886.9	20929
887.025	21070
887.149	20925
887.274	20636
887.399	20629
887.523	20773
887.648	20697
887.773	20549
887.897	20701
888.021	20705
888.146	20693
888.27	20693
888.395	20743
888.519	20739
888.643	20644
888.767	20632
888.891	20583
889.015	20511
889.139	20545
889.263	20400
889.387	20579
889.511	20632
889.635	20590
889.759	20431
889.883	20461
890.006	20522
890.13	20537
890.254	20434
890.377	20259
890.501	20191
890.624	20202
890.748	20229
890.871	20107
890.995	19993
891.118	20088
891.241	20107
891.364	20012
891.488	20107
891.611	20058
891.734	20027
891.857	20024
891.98	20081
892.103	20073
892.226	20035
892.349	20081
892.471	19890
892.594	20012
892.717	20046
892.839	19742
892.962	19974
893.085	20039
893.207	19875
893.33	19902
893.452	19909
893.575	20035
893.697	19845
893.819	20069
893.941	20157
894.064	20050
894.186	19837
894.308	19799
894.43	19970
894.552	20081
894.674	20100
894.796	19879
894.918	19944
895.04	19932
895.161	20024
895.283	19970
895.405	19921
895.526	19932
895.648	19925
895.769	20008
895.891	19856
896.012	20088
896.134	19978
896.255	19799
896.376	19928
896.498	20005
896.619	20012
896.74	19913
896.861	20012
896.982	20210
897.103	20256
897.224	20221
897.345	20229
897.466	20035
897.587	20130
897.708	20366
897.828	20237
897.949	20168
898.07	20092
898.19	20058
898.311	20282
898.431	20043
898.552	20210
898.672	20088
898.792	20267
898.913	20145
899.033	20069
899.153	19955
899.273	19837
899.393	19963
899.513	20001
899.633	19940
899.753	19928
899.873	19849
899.993	19947
900.113	19989
900.232	19868
900.352	19822
900.472	19811
900.591	19620
900.711	19761
900.83	19746
900.95	19833
901.069	19765
901.189	19700
901.308	19453
901.427	19362
901.546	19285
901.665	19377
901.784	19327
901.904	19103
902.023	19076
902.141	18897
902.26	18814
902.379	18996
902.498	18738
902.617	18684
902.735	18833
902.854	18795
902.973	18673
903.091	18464
903.21	18460
903.328	18429
903.446	18380
903.565	18254
903.683	18296
903.801	18209
903.919	18262
904.038	18235
904.156	18041
904.274	18049
904.392	18068
904.51	17980
904.627	18083
904.745	18068
904.863	18045
904.981	17813
905.098	17752
905.216	17668
905.334	17729
905.451	17775
905.569	17760
905.686	17718
905.803	17722
905.921	17402
906.038	17642
906.155	17459
906.272	17429
906.389	17417
906.506	17242
906.623	17326
906.74	17250
906.857	17083
906.974	17162
907.091	17345
907.208	17330
907.324	17440
907.441	17025
907.557	17052
907.674	16957
907.79	16824
907.907	16930
908.023	16965
908.139	16854
908.256	16934
908.372	16771
908.488	16824
908.604	16816
908.72	16687
908.836	16668
908.952	16641
909.068	16691
909.184	16816
909.3	16580
909.415	16702
909.531	16607
909.647	16519
909.762	16443
909.878	16428
909.993	16516
910.108	16386
910.224	16352
910.339	16234
910.454	16238
910.57	16261
910.685	16207
910.8	16303
910.915	16371
911.03	16257
911.145	15998
911.259	16006
911.374	15964
911.489	15915
911.604	15884
911.718	15797
911.833	15778
911.947	15675
912.062	15549
912.176	15770
912.291	15785
912.405	15804
912.519	15918
912.633	15968
912.748	15842
912.862	15774
912.976	15587
913.09	15454
913.204	15519
913.318	15557
913.431	15587
913.545	15686
913.659	15713
913.772	15561
913.886	15344
914	15405
914.113	15496
914.226	15435
914.34	15405
914.453	15256
914.566	15473
914.68	15313
914.793	15214
914.906	15005
915.019	15005
915.132	14960
915.245	14941
915.358	14960
915.47	15017
915.583	14990
915.696	15024
915.809	15058
915.921	15089
916.034	14990
916.146	14861
916.259	14925
916.371	14994
916.483	14914
916.595	14819
916.708	14830
916.82	14819
916.932	14735
917.044	14849
917.156	14762
917.268	14602
917.38	14697
917.491	14670
917.603	14613
917.715	14674
917.826	14682
917.938	14579
918.049	14503
918.161	14644
918.272	14708
918.384	14735
918.495	14560
918.606	14347
918.717	14233
918.828	14377
918.939	14465
919.05	14282
919.161	14370
919.272	14142
919.383	14161
919.494	14427
919.604	14590
919.715	14503
919.826	14267
919.936	14317
920.047	14476
920.157	14355
920.267	14518
920.378	14412
920.488	14320
920.598	14499
920.708	14689
920.818	14594
920.928	14434
921.038	14648
921.148	14613
921.258	14320
921.368	14164
921.477	14027
921.587	14012
921.697	13978
921.806	14001
921.916	13944
922.025	13871
922.134	13769
922.244	13799
922.353	13681
922.462	13639
922.571	13632
922.68	13426
922.789	13499
922.898	13483
923.007	13301
923.116	13339
923.224	13343
923.333	13377
923.442	13274
923.55	13255
923.659	13217
923.767	13221
923.876	13133
923.984	13285
924.092	13069
924.201	13152
924.309	13198
924.417	13107
924.525	13107
924.633	13050
924.741	13917
924.849	12856
924.956	13000
925.064	12947
925.172	12753
925.279	12745
925.387	12821
925.494	12894
925.602	12985
925.709	12825
925.816	12776
925.924	12867
926.031	12890
926.138	12798
926.245	12867
926.352	12662
926.459	12795
926.566	12878
926.673	12711
926.779	12616
926.886	12532
926.993	12513
927.099	12403
927.206	12281
927.312	12418
927.419	12376
927.525	12388
927.631	12369
927.737	12285
927.843	12258
927.95	12144
928.056	12281
928.162	12258
928.267	12285
928.373	12863
928.479	12330
928.585	12072
928.69	12178
928.796	12178
928.901	12163
929.007	11958
929.112	12106
929.218	12102
929.323	11996
929.428	11984
929.533	12087
929.638	11980
929.743	11863
929.848	11980
929.953	11935
930.058	11885
930.163	11688
930.267	11745
930.372	11775
930.477	11528
930.581	11866
930.685	11596
930.79	11509
930.894	11520
930.998	11429
931.103	11653
931.207	11315
931.311	11166
931.415	11140
931.519	10854
931.623	10850
