Data from test_V78500241_2444.txt Node
Date: Fri Mar 25 15:58:43 CST 2022
User: usil
Spectrometer: V785-0024
Trigger mode: 0
Integration Time (sec): 4.000000E-1
Scans to average: 1
Nonlinearity correction enabled: false
Boxcar width: 0
Storing dark spectrum: false
XAxis mode: Wavelengths
Number of Pixels in Spectrum: 1024
>>>>>Begin Spectral Data<<<<<
801.071	28748
801.214	28603
801.356	28519
801.499	28363
801.641	28169
801.783	28375
801.926	28367
802.068	28215
802.211	28261
802.353	28154
802.496	27979
802.638	27987
802.78	27930
802.923	27880
803.065	27922
803.208	27873
803.35	28029
803.492	28131
803.635	28215
803.777	28196
803.919	28173
804.061	28580
804.204	28196
804.346	28348
804.488	28143
804.63	28219
804.773	28139
804.915	28272
805.057	28299
805.199	28238
805.341	28276
805.483	28325
805.626	28398
805.768	28207
805.91	28405
806.052	28421
806.194	28299
806.336	28550
806.478	28280
806.62	28417
806.762	28577
806.904	28596
807.046	28968
807.188	28733
807.33	28736
807.472	28782
807.614	28748
807.756	28888
807.898	28752
808.04	28611
808.182	28478
808.324	28752
808.465	28748
808.607	28908
808.749	28927
808.891	29197
809.033	29204
809.174	28949
809.316	29041
809.458	29151
809.6	28984
809.741	29029
809.883	29200
810.025	29372
810.166	29246
810.308	29410
810.45	29105
810.591	29296
810.733	29064
810.875	29162
811.016	29140
811.158	29033
811.299	29071
811.441	29288
811.582	29265
811.724	29117
811.865	29105
812.007	29083
812.148	29022
812.29	29018
812.431	29292
812.573	29547
812.714	29566
812.855	29611
812.997	29668
813.138	29733
813.279	29726
813.421	29676
813.562	29596
813.703	29364
813.845	29269
813.986	28938
814.127	28854
814.268	28778
814.41	28877
814.551	28683
814.692	28919
814.833	28866
814.974	28694
815.115	28824
815.256	28649
815.397	28584
815.539	28573
815.68	28462
815.821	28481
815.962	28626
816.103	28622
816.244	28493
816.385	28405
816.526	28394
816.666	28029
816.807	28086
816.948	28162
817.089	28325
817.23	28097
817.371	28059
817.512	28120
817.653	28131
817.793	28006
817.934	27865
818.075	28078
818.216	28070
818.356	27956
818.497	28021
818.638	27747
818.778	27873
818.919	27892
819.06	27854
819.2	27953
819.341	28169
819.481	28128
819.622	28329
819.762	28394
819.903	28200
820.043	28246
820.184	28276
820.324	28211
820.465	28303
820.605	28306
820.746	28219
820.886	28063
821.026	28200
821.167	28169
821.307	28272
821.447	28032
821.588	28067
821.728	27968
821.868	27633
822.008	27679
822.149	27610
822.289	27439
822.429	27306
822.569	27199
822.709	27329
822.849	27005
822.99	27058
823.13	27127
823.27	27001
823.41	26933
823.55	26788
823.69	26944
823.83	26819
823.97	26754
824.11	26632
824.25	26678
824.389	26705
824.529	26735
824.669	26724
824.809	26868
824.949	26826
825.089	26895
825.228	26902
825.368	26568
825.508	26549
825.648	26568
825.787	26575
825.927	26625
826.067	26648
826.206	26587
826.346	26777
826.485	26587
826.625	26579
826.765	26693
826.904	26583
827.044	26549
827.183	26324
827.323	26305
827.462	26381
827.601	26305
827.741	26301
827.88	26518
828.02	26320
828.159	26248
828.298	26438
828.437	26362
828.577	26164
828.716	26362
828.855	26240
828.994	26168
829.134	25986
829.273	26035
829.412	25951
829.551	25913
829.69	26043
829.829	26001
829.968	26005
830.107	26138
830.246	25997
830.385	25879
830.524	25883
830.663	25685
830.802	25712
830.941	25677
831.08	25556
831.219	25594
831.357	25689
831.496	25947
831.635	25559
831.774	25582
831.913	25533
832.051	25396
832.19	25407
832.329	25312
832.467	25274
832.606	25244
832.744	25042
832.883	25282
833.022	25384
833.16	25289
833.299	25339
833.437	25297
833.576	25263
833.714	25301
833.852	25468
833.991	25419
834.129	25419
834.267	25358
834.406	25247
834.544	25343
834.682	25289
834.821	25369
834.959	25525
835.097	25236
835.235	25304
835.373	25297
835.511	25331
835.65	25114
835.788	25145
835.926	25057
836.064	25065
836.202	25072
836.34	25133
836.478	25244
836.615	25061
836.753	25255
836.891	25198
837.029	25091
837.167	25126
837.305	25069
837.443	25042
837.58	25031
837.718	25069
837.856	25023
837.993	24844
838.131	24992
838.269	24886
838.406	24795
838.544	24844
838.681	24711
838.819	24559
838.956	24471
839.094	24414
839.231	24597
839.369	24551
839.506	24871
839.643	24563
839.781	24338
839.918	24445
840.055	24353
840.193	24357
840.33	24445
840.467	24296
840.604	24407
840.742	24623
840.879	24285
841.016	24311
841.153	24224
841.29	24357
841.427	24262
841.564	24353
841.701	24369
841.838	24376
841.975	24273
842.112	24251
842.249	24292
842.385	24117
842.522	24327
842.659	24391
842.796	24133
842.933	24068
843.069	23999
843.206	24053
843.343	24121
843.479	24034
843.616	24045
843.752	23882
843.889	23707
844.025	24106
844.162	23855
844.298	23908
844.435	23832
844.571	23878
844.708	23866
844.844	24015
844.98	24060
845.117	24110
845.253	23912
845.389	23718
845.525	23771
845.661	23767
845.798	23528
845.934	23729
846.07	23672
846.206	23562
846.342	23752
846.478	23486
846.614	23364
846.75	23322
846.886	23223
847.022	23395
847.158	23246
847.294	23326
847.429	23326
847.565	23284
847.701	23596
847.837	23109
847.972	23113
848.108	23071
848.244	23075
848.379	22923
848.515	22911
848.65	22949
848.786	22968
848.921	23025
849.057	23124
849.192	23067
849.328	22900
849.463	22965
849.598	22854
849.734	22820
849.869	22748
850.004	22691
850.14	22797
850.275	22717
850.41	22793
850.545	22573
850.68	22577
850.815	22752
850.95	22664
851.085	22930
851.22	22782
851.355	22759
851.49	22683
851.625	22569
851.76	22675
851.895	22634
852.03	22504
852.165	22698
852.299	22725
852.434	22790
852.569	22752
852.703	22717
852.838	22733
852.973	22774
853.107	22790
853.242	22634
853.376	22527
853.511	22265
853.645	22443
853.78	22649
853.914	22459
854.048	22455
854.183	22596
854.317	22500
854.451	22649
854.585	22527
854.72	22421
854.854	22508
854.988	22459
855.122	22561
855.256	22371
855.39	22459
855.524	22504
855.658	22519
855.792	22474
855.926	22580
856.06	22474
856.194	22656
856.327	22535
856.461	22375
856.595	22516
856.729	22504
856.862	22656
856.996	22542
857.13	22478
857.263	22755
857.397	22668
857.53	22405
857.664	22443
857.797	22497
857.931	22797
858.064	22557
858.197	22630
858.331	22481
858.464	22462
858.597	22421
858.731	22531
858.864	22451
858.997	22485
859.13	22519
859.263	22592
859.396	22588
859.529	22481
859.662	22417
859.795	22451
859.928	22474
860.061	22542
860.194	22771
860.327	22447
860.46	22565
860.592	22504
860.725	22687
860.858	22603
860.99	22497
861.123	22341
861.256	22341
861.388	22497
861.521	23147
861.653	22242
861.786	22348
861.918	22413
862.05	22409
862.183	22390
862.315	22478
862.447	22405
862.58	22436
862.712	22154
862.844	22166
862.976	22310
863.108	22352
863.24	22531
863.372	22226
863.504	22196
863.636	22215
863.768	22246
863.9	22238
864.032	22253
864.164	22131
864.296	22268
864.428	22379
864.559	22185
864.691	22276
864.823	22284
864.954	22249
865.086	22162
865.217	22067
865.349	22051
865.48	22040
865.612	22143
865.743	22219
865.875	22116
866.006	21975
866.137	22166
866.269	21991
866.4	22093
866.531	22010
866.662	21998
866.793	21983
866.924	22010
867.055	22055
867.186	21941
867.317	21884
867.448	21949
867.579	22040
867.71	21930
867.841	21895
867.972	21987
868.103	22006
868.233	21884
868.364	22010
868.495	22177
868.625	22249
868.756	22310
868.886	22082
869.017	22223
869.147	22306
869.278	22295
869.408	22360
869.539	22192
869.669	22337
869.799	22299
869.929	22447
870.06	22363
870.19	22607
870.32	22557
870.45	22626
870.58	22656
870.71	22744
870.84	22793
870.97	22630
871.1	22748
871.23	22862
871.36	22786
871.489	22744
871.619	22805
871.749	22850
871.879	22862
872.008	22900
872.138	22915
872.267	22839
872.397	22691
872.526	22713
872.656	22664
872.785	22687
872.915	22862
873.044	22805
873.173	22904
873.303	22949
873.432	23003
873.561	23003
873.69	22854
873.819	22976
873.948	22881
874.077	22801
874.206	22972
874.335	22835
874.464	22953
874.593	23200
874.722	23041
874.851	23048
874.979	23025
875.108	23109
875.237	22984
875.365	22908
875.494	23121
875.623	23079
875.751	23037
875.88	23128
876.008	23185
876.136	23265
876.265	23425
876.393	23562
876.521	23509
876.65	23554
876.778	23531
876.906	23455
877.034	23490
877.162	23436
877.29	23440
877.418	23452
877.546	23368
877.674	23459
877.802	23539
877.93	23376
878.058	23345
878.185	23353
878.313	23455
878.441	23398
878.568	23162
878.696	23315
878.824	23436
878.951	23478
879.079	23596
879.206	23756
879.333	23467
879.461	23490
879.588	23524
879.715	23623
879.842	23699
879.97	23490
880.097	23330
880.224	23239
880.351	23193
880.478	23307
880.605	23216
880.732	23094
880.859	23345
880.986	23261
881.112	23269
881.239	23090
881.366	23098
881.493	22965
881.619	22755
881.746	22721
881.872	22968
881.999	22809
882.125	22790
882.252	22839
882.378	22721
882.505	22900
882.631	22660
882.757	22516
882.883	22523
883.01	22432
883.136	22405
883.262	22272
883.388	22211
883.514	22645
883.64	22440
883.766	22360
883.892	22238
884.018	22295
884.143	22394
884.269	22409
884.395	22059
884.52	22093
884.646	22154
884.772	22128
884.897	21972
885.023	22112
885.148	22234
885.274	22185
885.399	22150
885.524	22147
885.65	22078
885.775	22017
885.9	22105
886.025	22177
886.15	22109
886.275	22169
886.4	21998
886.525	22097
886.65	22086
886.775	22036
886.9	22101
887.025	22234
887.149	21991
887.274	21915
887.399	21823
887.523	21907
887.648	21804
887.773	21732
887.897	21895
888.021	21907
888.146	21819
888.27	21857
888.395	22029
888.519	21953
888.643	21930
888.767	21911
888.891	21876
889.015	21660
889.139	21667
889.263	21660
889.387	21705
889.511	21797
889.635	21762
889.759	21770
889.883	21606
890.006	21797
890.13	21759
890.254	21648
890.377	21698
890.501	21317
890.624	21336
890.748	21344
890.871	21294
890.995	21203
891.118	21112
891.241	21138
891.364	21264
891.488	21310
891.611	21230
891.734	21260
891.857	21218
891.98	21165
892.103	21127
892.226	21070
892.349	20998
892.471	20925
892.594	21199
892.717	21135
892.839	21104
892.962	21024
893.085	21176
893.207	21066
893.33	21013
893.452	20986
893.575	21184
893.697	21005
893.819	21218
893.941	21188
894.064	21150
894.186	21032
894.308	20963
894.43	21233
894.552	21199
894.674	21169
894.796	20982
894.918	21062
895.04	21028
895.161	21154
895.283	21093
895.405	21070
895.526	21135
895.648	21032
895.769	21062
895.891	21207
896.012	21112
896.134	21119
896.255	21081
896.376	21017
896.498	21176
896.619	21154
896.74	21089
896.861	21024
896.982	21420
897.103	21542
897.224	21401
897.345	21275
897.466	21279
897.587	21405
897.708	21363
897.828	21287
897.949	21222
898.07	21077
898.19	21157
898.311	21329
898.431	21230
898.552	21340
898.672	21279
898.792	21344
898.913	21252
899.033	21127
899.153	21089
899.273	21001
899.393	21093
899.513	20971
899.633	20910
899.753	21013
899.873	20933
899.993	21074
900.113	21039
900.232	20998
900.352	20948
900.472	20811
900.591	20777
900.711	20826
900.83	20750
900.95	20804
901.069	20967
901.189	20712
901.308	20427
901.427	20332
901.546	20404
901.665	20278
901.784	20248
901.904	20206
902.023	19997
902.141	19837
902.26	19925
902.379	19871
902.498	19841
902.617	19849
902.735	19837
902.854	19818
902.973	19780
903.091	19529
903.21	19335
903.328	19449
903.446	19438
903.565	19190
903.683	19343
903.801	19103
903.919	19141
904.038	19156
904.156	19206
904.274	19187
904.392	19057
904.51	19061
904.627	19160
904.745	19126
904.863	18977
904.981	18920
905.098	18715
905.216	18722
905.334	18745
905.451	18673
905.569	18688
905.686	18814
905.803	18772
905.921	18563
906.038	18738
906.155	18498
906.272	18376
906.389	18517
906.506	18273
906.623	18311
906.74	18224
906.857	18144
906.974	18171
907.091	18327
907.208	18285
907.324	18213
907.441	18129
907.557	18053
907.674	18053
907.79	18034
907.907	18041
908.023	17992
908.139	18041
908.256	17923
908.372	17836
908.488	17912
908.604	17722
908.72	17752
908.836	17676
908.952	17627
909.068	17779
909.184	17794
909.3	17684
909.415	17767
909.531	17703
909.647	17391
909.762	17330
909.878	17421
909.993	17337
910.108	17296
910.224	17326
910.339	17364
910.454	17334
910.57	17265
910.685	17170
910.8	17414
910.915	17292
911.03	17162
911.145	17052
911.259	16972
911.374	16972
911.489	16965
911.604	16881
911.718	16721
911.833	16778
911.947	16713
912.062	16558
912.176	16725
912.291	16733
912.405	16626
912.519	16843
912.633	16824
912.748	16759
912.862	16778
912.976	16558
913.09	16478
913.204	16466
913.318	16569
913.431	16630
913.545	16653
913.659	16607
913.772	16504
913.886	16348
914	16348
914.113	16402
914.226	16428
914.34	16382
914.453	16211
914.566	16390
914.68	16200
914.793	16207
914.906	16063
915.019	15888
915.132	15812
915.245	15888
915.358	15888
915.47	15907
915.583	15804
915.696	15903
915.809	16010
915.921	15987
916.034	15835
916.146	15842
916.259	15804
916.371	15930
916.483	15949
916.595	15751
916.708	15648
916.82	15800
916.932	15766
917.044	15679
917.156	15675
917.268	15488
917.38	15492
917.491	15519
917.603	15504
917.715	15603
917.826	15584
917.938	15431
918.049	15359
918.161	15443
918.272	15652
918.384	15534
918.495	15447
918.606	15374
918.717	15150
918.828	15272
918.939	15310
919.05	15275
919.161	15313
919.272	15020
919.383	15085
919.494	15332
919.604	15450
919.715	15192
919.826	15085
919.936	15161
920.047	15268
920.157	15214
920.267	15374
920.378	15218
920.488	15127
920.598	15447
920.708	15614
920.818	15317
920.928	15260
921.038	15397
921.148	15504
921.258	15066
921.368	15119
921.477	15039
921.587	14918
921.697	14842
921.806	14861
921.916	14826
922.025	14636
922.134	14579
922.244	14530
922.353	14682
922.462	14385
922.571	14362
922.68	14301
922.789	14172
922.898	14138
923.007	14168
923.116	14233
923.224	14180
923.333	14092
923.442	14115
923.55	13974
923.659	14008
923.767	14092
923.876	13932
923.984	13989
924.092	13909
924.201	14050
924.309	13871
924.417	13883
924.525	13928
924.633	13818
924.741	14568
924.849	13647
924.956	13780
925.064	13624
925.172	13525
925.279	13476
925.387	13605
925.494	13609
925.602	13689
925.709	13609
925.816	13499
925.924	13540
926.031	13575
926.138	13514
926.245	13518
926.352	13430
926.459	13548
926.566	13537
926.673	13499
926.779	13285
926.886	13430
926.993	13228
927.099	13118
927.206	13110
927.312	13027
927.419	13217
927.525	13168
927.631	13069
927.737	13034
927.843	13019
927.95	12970
928.056	12882
928.162	12947
928.267	12958
928.373	13590
928.479	12996
928.585	12837
928.69	12920
928.796	12890
928.901	12760
929.007	12585
929.112	12825
929.218	12802
929.323	12719
929.428	12635
929.533	12798
929.638	12593
929.743	12593
929.848	12639
929.953	12506
930.058	12502
930.163	12285
930.267	12327
930.372	12429
930.477	12262
930.581	12437
930.685	12391
930.79	12239
930.894	12338
930.998	12121
931.103	12342
931.207	11980
931.311	11805
931.415	11779
931.519	11646
931.623	11661
