Data from test_V78500241_1654.txt Node
Date: Fri Mar 25 15:53:15 CST 2022
User: usil
Spectrometer: V785-0024
Trigger mode: 0
Integration Time (sec): 4.000000E-1
Scans to average: 1
Nonlinearity correction enabled: false
Boxcar width: 0
Storing dark spectrum: false
XAxis mode: Wavelengths
Number of Pixels in Spectrum: 1024
>>>>>Begin Spectral Data<<<<<
801.071	28017
801.214	27816
801.356	27580
801.499	27591
801.641	27424
801.783	27378
801.926	27359
802.068	27294
802.211	27397
802.353	27287
802.496	27058
802.638	27081
802.78	27104
802.923	26994
803.065	26952
803.208	26895
803.35	26975
803.492	27123
803.635	27283
803.777	27100
803.919	27272
804.061	27580
804.204	27176
804.346	27226
804.488	27287
804.63	27192
804.773	27192
804.915	27298
805.057	27359
805.199	27275
805.341	27207
805.483	27462
805.626	27348
805.768	27363
805.91	27283
806.052	27393
806.194	27222
806.336	27580
806.478	27310
806.62	27378
806.762	27488
806.904	27656
807.046	27831
807.188	27854
807.33	27804
807.472	27850
807.614	27781
807.756	27838
807.898	27797
808.04	27606
808.182	27606
808.324	27762
808.465	27717
808.607	27861
808.749	28036
808.891	28162
809.033	28200
809.174	28006
809.316	27892
809.458	28040
809.6	27934
809.741	28131
809.883	28207
810.025	28261
810.166	28268
810.308	28223
810.45	28200
810.591	28284
810.733	28055
810.875	27991
811.016	27873
811.158	27842
811.299	28150
811.441	28032
811.582	28204
811.724	28055
811.865	27880
812.007	27895
812.148	28021
812.29	28013
812.431	28158
812.573	28295
812.714	28352
812.855	28504
812.997	28588
813.138	28717
813.279	28474
813.421	28653
813.562	28523
813.703	28238
813.845	28306
813.986	27987
814.127	27747
814.268	27812
814.41	27770
814.551	27743
814.692	27778
814.833	27606
814.974	27583
815.115	27770
815.256	27538
815.397	27519
815.539	27496
815.68	27424
815.821	27416
815.962	27439
816.103	27564
816.244	27408
816.385	27275
816.526	27237
816.666	27001
816.807	26899
816.948	27032
817.089	27074
817.23	27005
817.371	26830
817.512	26914
817.653	26906
817.793	26918
817.934	26857
818.075	27024
818.216	27024
818.356	26849
818.497	26918
818.638	26769
818.778	26621
818.919	26667
819.06	26815
819.2	26921
819.341	26906
819.481	27017
819.622	27123
819.762	27230
819.903	27275
820.043	27192
820.184	26948
820.324	26994
820.465	27131
820.605	27093
820.746	27032
820.886	26773
821.026	27020
821.167	27077
821.307	27104
821.447	26963
821.588	26899
821.728	26815
821.868	26651
822.008	26640
822.149	26393
822.289	26396
822.429	26278
822.569	26187
822.709	26046
822.849	25906
822.99	25966
823.13	25776
823.27	25807
823.41	25693
823.55	25738
823.69	25609
823.83	25693
823.97	25712
824.11	25643
824.25	25430
824.389	25582
824.529	25575
824.669	25639
824.809	25818
824.949	25544
825.089	25616
825.228	25537
825.368	25472
825.508	25422
825.648	25396
825.787	25415
825.927	25472
826.067	25327
826.206	25464
826.346	25468
826.485	25460
826.625	25415
826.765	25525
826.904	25445
827.044	25168
827.183	25194
827.323	25198
827.462	25187
827.601	25175
827.741	25126
827.88	25145
828.02	25023
828.159	25057
828.298	25217
828.437	25050
828.577	25042
828.716	25122
828.855	25061
828.994	24859
829.134	24844
829.273	24894
829.412	24814
829.551	24897
829.69	24795
829.829	24977
829.968	25000
830.107	24871
830.246	24825
830.385	24764
830.524	24795
830.663	24753
830.802	24555
830.941	24479
831.08	24509
831.219	24498
831.357	24555
831.496	24570
831.635	24486
831.774	24437
831.913	24220
832.051	24125
832.19	24353
832.329	24197
832.467	24110
832.606	24125
832.744	24216
832.883	24136
833.022	24121
833.16	24190
833.299	24041
833.437	24049
833.576	24144
833.714	24258
833.852	24209
833.991	24197
834.129	24224
834.267	24258
834.406	24136
834.544	24186
834.682	24133
834.821	24087
834.959	24292
835.097	24205
835.235	24144
835.373	24194
835.511	24129
835.65	23988
835.788	24038
835.926	23977
836.064	23927
836.202	23882
836.34	23950
836.478	24049
836.615	23843
836.753	24049
836.891	24076
837.029	23939
837.167	23870
837.305	24034
837.443	23805
837.58	23847
837.718	23920
837.856	23821
837.993	23893
838.131	23737
838.269	23695
838.406	23729
838.544	23745
838.681	23406
838.819	23505
838.956	23364
839.094	23220
839.231	23364
839.369	23459
839.506	23699
839.643	23486
839.781	23337
839.918	23311
840.055	23334
840.193	23349
840.33	23303
840.467	23356
840.604	23220
840.742	23562
840.879	23136
841.016	23105
841.153	23174
841.29	23178
841.427	23151
841.564	23143
841.701	23261
841.838	23079
841.975	23296
842.112	23174
842.249	23079
842.385	22949
842.522	23284
842.659	23109
842.796	22987
842.933	23090
843.069	22862
843.206	22961
843.343	23010
843.479	23128
843.616	23018
843.752	22843
843.889	22793
844.025	22858
844.162	22634
844.298	22824
844.435	22828
844.571	22858
844.708	22892
844.844	23037
844.98	22965
845.117	22858
845.253	22713
845.389	22645
845.525	22577
845.661	22512
845.798	22508
845.934	22611
846.07	22462
846.206	22493
846.342	22641
846.478	22474
846.614	22257
846.75	22272
846.886	22261
847.022	22352
847.158	22181
847.294	22150
847.429	22329
847.565	22177
847.701	22531
847.837	21903
847.972	21998
848.108	22040
848.244	21998
848.379	21880
848.515	21720
848.65	21785
848.786	21838
848.921	21759
849.057	21854
849.192	21823
849.328	21842
849.463	21899
849.598	21739
849.734	21808
849.869	21599
850.004	21564
850.14	21469
850.275	21675
850.41	21466
850.545	21450
850.68	21580
850.815	21618
850.95	21618
851.085	21701
851.22	21709
851.355	21587
851.49	21583
851.625	21557
851.76	21549
851.895	21587
852.03	21511
852.165	21603
852.299	21633
852.434	21606
852.569	21553
852.703	21576
852.838	21644
852.973	21675
853.107	21629
853.242	21405
853.376	21393
853.511	21332
853.645	21291
853.78	21469
853.914	21408
854.048	21382
854.183	21363
854.317	21526
854.451	21557
854.585	21370
854.72	21378
854.854	21515
854.988	21287
855.122	21420
855.256	21279
855.39	21317
855.524	21412
855.658	21397
855.792	21504
855.926	21481
856.06	21428
856.194	21580
856.327	21462
856.461	21329
856.595	21408
856.729	21382
856.862	21511
856.996	21496
857.13	21496
857.263	21462
857.397	21576
857.53	21378
857.664	21557
857.797	21587
857.931	21545
858.064	21538
858.197	21610
858.331	21439
858.464	21340
858.597	21245
858.731	21329
858.864	21378
858.997	21428
859.13	21450
859.263	21428
859.396	21580
859.529	21485
859.662	21275
859.795	21393
859.928	21416
860.061	21587
860.194	21641
860.327	21367
860.46	21515
860.592	21447
860.725	21644
860.858	21557
860.99	21462
861.123	21393
861.256	21287
861.388	21431
861.521	22192
861.653	21344
861.786	21188
861.918	21203
862.05	21283
862.183	21401
862.315	21515
862.447	21424
862.58	21477
862.712	21218
862.844	21058
862.976	21176
863.108	21119
863.24	21561
863.372	21066
863.504	21135
863.636	21169
863.768	21119
863.9	21036
864.032	21089
864.164	21131
864.296	21055
864.428	21294
864.559	21119
864.691	21374
864.823	21214
864.954	21165
865.086	21112
865.217	21047
865.349	21051
865.48	20952
865.612	20971
865.743	21161
865.875	21089
866.006	21005
866.137	20925
866.269	20982
866.4	21047
866.531	20857
866.662	20765
866.793	20899
866.924	20883
867.055	21043
867.186	20887
867.317	20944
867.448	20960
867.579	21013
867.71	20857
867.841	20792
867.972	21009
868.103	20887
868.233	20971
868.364	20994
868.495	21116
868.625	21104
868.756	21203
868.886	21195
869.017	21169
869.147	21260
869.278	21348
869.408	21211
869.539	21184
869.669	21291
869.799	21332
869.929	21340
870.06	21317
870.19	21450
870.32	21511
870.45	21629
870.58	21709
870.71	21606
870.84	21690
870.97	21644
871.1	21591
871.23	21770
871.36	21724
871.489	21641
871.619	21774
871.749	21846
871.879	21835
872.008	21907
872.138	21873
872.267	21869
872.397	21739
872.526	21633
872.656	21641
872.785	21656
872.915	21895
873.044	21937
873.173	21831
873.303	21842
873.432	21831
873.561	21953
873.69	21838
873.819	21937
873.948	21911
874.077	21743
874.206	21698
874.335	21857
874.464	21892
874.593	22116
874.722	21949
874.851	22090
874.979	22048
875.108	22093
875.237	22013
875.365	21915
875.494	21945
875.623	22059
875.751	21926
875.88	22162
876.008	22188
876.136	22188
876.265	22356
876.393	22561
876.521	22409
876.65	22550
876.778	22451
876.906	22462
877.034	22386
877.162	22550
877.29	22242
877.418	22398
877.546	22344
877.674	22310
877.802	22363
877.93	22341
878.058	22443
878.185	22215
878.313	22417
878.441	22470
878.568	22310
878.696	22424
878.824	22405
878.951	22455
879.079	22519
879.206	22626
879.333	22542
879.461	22451
879.588	22504
879.715	22577
879.842	22736
879.97	22466
880.097	22188
880.224	22188
880.351	22276
880.478	22200
880.605	22211
880.732	22242
880.859	22447
880.986	22082
881.112	22337
881.239	22025
881.366	21983
881.493	21804
881.619	21880
881.746	21671
881.872	21869
881.999	21736
882.125	21770
882.252	21816
882.378	21842
882.505	21953
882.631	21743
882.757	21542
882.883	21603
883.01	21523
883.136	21431
883.262	21401
883.388	21374
883.514	21431
883.64	21462
883.766	21344
883.892	21104
884.018	21294
884.143	21344
884.269	21481
884.395	21138
884.52	21074
884.646	21108
884.772	21135
884.897	21055
885.023	20948
885.148	21077
885.274	21351
885.399	21245
885.524	21195
885.65	21081
885.775	21062
885.9	21142
886.025	21173
886.15	21108
886.275	21005
886.4	21047
886.525	21119
886.65	21089
886.775	21165
886.9	21226
887.025	21226
887.149	21096
887.274	20967
887.399	20918
887.523	20838
887.648	20891
887.773	20826
887.897	20963
888.021	20971
888.146	20807
888.27	20967
888.395	20971
888.519	21017
888.643	20899
888.767	20948
888.891	20872
889.015	20674
889.139	20785
889.263	20651
889.387	20811
889.511	20868
889.635	20861
889.759	20674
889.883	20625
890.006	20712
890.13	20845
890.254	20594
890.377	20674
890.501	20423
890.624	20469
890.748	20465
890.871	20336
890.995	20294
891.118	20214
891.241	20271
891.364	20336
891.488	20408
891.611	20278
891.734	20275
891.857	20412
891.98	20408
892.103	20328
892.226	20320
892.349	20180
892.471	20065
892.594	20164
892.717	20191
892.839	20111
892.962	20195
893.085	20244
893.207	20107
893.33	20084
893.452	20122
893.575	20233
893.697	20168
893.819	20412
893.941	20309
894.064	20252
894.186	20122
894.308	20092
894.43	20187
894.552	20256
894.674	20142
894.796	20149
894.918	20168
895.04	20153
895.161	20282
895.283	20149
895.405	20050
895.526	20275
895.648	20214
895.769	20229
895.891	20267
896.012	20282
896.134	20214
896.255	20142
896.376	20153
896.498	20202
896.619	20233
896.74	20054
896.861	20054
896.982	20552
897.103	20549
897.224	20450
897.345	20450
897.466	20282
897.587	20389
897.708	20469
897.828	20423
897.949	20278
898.07	20240
898.19	20290
898.311	20415
898.431	20324
898.552	20404
898.672	20545
898.792	20575
898.913	20419
899.033	20393
899.153	20244
899.273	20069
899.393	20145
899.513	20187
899.633	20103
899.753	19982
899.873	20145
899.993	20294
900.113	20084
900.232	20199
900.352	20130
900.472	20054
900.591	19883
900.711	19868
900.83	19921
900.95	19936
901.069	19993
901.189	19849
901.308	19521
901.427	19422
901.546	19575
901.665	19483
901.784	19464
901.904	19331
902.023	19331
902.141	19221
902.26	19042
902.379	19179
902.498	19027
902.617	18913
902.735	19042
902.854	19065
902.973	18973
903.091	18753
903.21	18635
903.328	18608
903.446	18521
903.565	18445
903.683	18536
903.801	18353
903.919	18471
904.038	18399
904.156	18155
904.274	18270
904.392	18289
904.51	18201
904.627	18365
904.745	18361
904.863	18266
904.981	18038
905.098	17855
905.216	17946
905.334	17958
905.451	17874
905.569	17866
905.686	17923
905.803	17882
905.921	17642
906.038	17912
906.155	17649
906.272	17573
906.389	17611
906.506	17387
906.623	17364
906.74	17524
906.857	17341
906.974	17265
907.091	17482
907.208	17573
907.324	17474
907.441	17303
907.557	17117
907.674	17174
907.79	17052
907.907	17113
908.023	17216
908.139	17200
908.256	17128
908.372	17067
908.488	17056
908.604	16999
908.72	16885
908.836	16889
908.952	16889
909.068	16915
909.184	17029
909.3	16816
909.415	16885
909.531	16812
909.647	16683
909.762	16672
909.878	16645
909.993	16554
910.108	16569
910.224	16584
910.339	16519
910.454	16443
910.57	16394
910.685	16455
910.8	16656
910.915	16592
911.03	16421
911.145	16249
911.259	16150
911.374	16124
911.489	16135
911.604	16086
911.718	15979
911.833	15949
911.947	15774
912.062	15842
912.176	15804
912.291	15949
912.405	15865
912.519	16177
912.633	16074
912.748	15949
912.862	15922
912.976	15770
913.09	15534
913.204	15717
913.318	15831
913.431	15762
913.545	15797
913.659	15888
913.772	15694
913.886	15652
914	15515
914.113	15584
914.226	15644
914.34	15667
914.453	15488
914.566	15538
914.68	15496
914.793	15420
914.906	15325
915.019	15249
915.132	15104
915.245	15176
915.358	15066
915.47	15195
915.583	15123
915.696	15207
915.809	15218
915.921	15211
916.034	15097
916.146	15142
916.259	15020
916.371	15131
916.483	15043
916.595	15051
916.708	15001
916.82	14921
916.932	14994
917.044	14975
917.156	14868
917.268	14838
917.38	14823
917.491	14750
917.603	14849
917.715	14883
917.826	14880
917.938	14826
918.049	14590
918.161	14724
918.272	14899
918.384	14975
918.495	14804
918.606	14629
918.717	14533
918.828	14495
918.939	14526
919.05	14469
919.161	14552
919.272	14362
919.383	14454
919.494	14568
919.604	14743
919.715	14556
919.826	14434
919.936	14518
920.047	14625
920.157	14518
920.267	14689
920.378	14556
920.488	14476
920.598	14640
920.708	14864
920.818	14663
920.928	14655
921.038	14667
921.148	14762
921.258	14507
921.368	14377
921.477	14248
921.587	14214
921.697	14168
921.806	14248
921.916	14172
922.025	13974
922.134	13887
922.244	13868
922.353	13894
922.462	13750
922.571	13674
922.68	13601
922.789	13575
922.898	13457
923.007	13563
923.116	13601
923.224	13594
923.333	13441
923.442	13483
923.55	13445
923.659	13392
923.767	13441
923.876	13278
923.984	13343
924.092	13240
924.201	13316
924.309	13350
924.417	13282
924.525	13202
924.633	13270
924.741	13944
924.849	12996
924.956	13095
925.064	12989
925.172	12966
925.279	12958
925.387	13088
925.494	12932
925.602	13065
925.709	12966
925.816	12814
925.924	12924
926.031	13057
926.138	12932
926.245	12962
926.352	12863
926.459	13034
926.566	13004
926.673	12871
926.779	12741
926.886	12802
926.993	12639
927.099	12521
927.206	12471
927.312	12544
927.419	12551
927.525	12532
927.631	12627
927.737	12502
927.843	12456
927.95	12315
928.056	12350
928.162	12426
928.267	12429
928.373	13149
928.479	12410
928.585	12251
928.69	12372
928.796	12330
928.901	12262
929.007	12083
929.112	12266
929.218	12194
929.323	12148
929.428	12178
929.533	12194
929.638	12057
929.743	12072
929.848	12091
929.953	12030
930.058	12053
930.163	11737
930.267	11779
930.372	11889
930.477	11817
930.581	11954
930.685	11904
930.79	11786
930.894	11745
930.998	11627
931.103	11836
931.207	11520
931.311	11288
931.415	11284
931.519	11037
931.623	11056
