Data from test_V78500241_878.txt Node
Date: Fri Mar 25 15:47:53 CST 2022
User: usil
Spectrometer: V785-0024
Trigger mode: 0
Integration Time (sec): 4.000000E-1
Scans to average: 1
Nonlinearity correction enabled: false
Boxcar width: 0
Storing dark spectrum: false
XAxis mode: Wavelengths
Number of Pixels in Spectrum: 1024
>>>>>Begin Spectral Data<<<<<
801.071	27633
801.214	27564
801.356	27302
801.499	27260
801.641	27184
801.783	27176
801.926	27302
802.068	27268
802.211	27135
802.353	27066
802.496	26758
802.638	26811
802.78	26769
802.923	26842
803.065	26804
803.208	26746
803.35	26868
803.492	26918
803.635	26998
803.777	26982
803.919	27112
804.061	27363
804.204	27013
804.346	26944
804.488	26963
804.63	26940
804.773	26975
804.915	27070
805.057	27157
805.199	27146
805.341	27146
805.483	27138
805.626	27146
805.768	27074
805.91	27039
806.052	27188
806.194	27066
806.336	27469
806.478	27127
806.62	27214
806.762	27214
806.904	27492
807.046	27629
807.188	27717
807.33	27534
807.472	27587
807.614	27587
807.756	27500
807.898	27504
808.04	27348
808.182	27317
808.324	27382
808.465	27511
808.607	27538
808.749	27759
808.891	28025
809.033	27888
809.174	27770
809.316	27819
809.458	27793
809.6	27720
809.741	28048
809.883	27914
810.025	28177
810.166	28188
810.308	28154
810.45	28120
810.591	27930
810.733	27941
810.875	27808
811.016	27660
811.158	27759
811.299	27918
811.441	28055
811.582	27926
811.724	27846
811.865	27816
812.007	27854
812.148	27857
812.29	27842
812.431	28082
812.573	28219
812.714	28257
812.855	28242
812.997	28390
813.138	28611
813.279	28409
813.421	28379
813.562	28246
813.703	28086
813.845	28074
813.986	27701
814.127	27549
814.268	27481
814.41	27583
814.551	27359
814.692	27599
814.833	27363
814.974	27431
815.115	27549
815.256	27294
815.397	27306
815.539	27283
815.68	27218
815.821	27180
815.962	27245
816.103	27256
816.244	27272
816.385	27241
816.526	26967
816.666	26902
816.807	26811
816.948	26819
817.089	26861
817.23	26864
817.371	26948
817.512	26792
817.653	26667
817.793	26708
817.934	26777
818.075	26762
818.216	26781
818.356	26697
818.497	26556
818.638	26556
818.778	26568
818.919	26492
819.06	26530
819.2	26613
819.341	26682
819.481	26773
819.622	27066
819.762	27104
819.903	27032
820.043	26971
820.184	26952
820.324	26743
820.465	26899
820.605	26883
820.746	26823
820.886	26845
821.026	26982
821.167	26845
821.307	26933
821.447	26724
821.588	26792
821.728	26613
821.868	26556
822.008	26240
822.149	26256
822.289	26259
822.429	25909
822.569	25925
822.709	26020
822.849	25738
822.99	25925
823.13	25750
823.27	25658
823.41	25563
823.55	25597
823.69	25666
823.83	25616
823.97	25681
824.11	25430
824.25	25274
824.389	25270
824.529	25381
824.669	25354
824.809	25651
824.949	25514
825.089	25540
825.228	25483
825.368	25213
825.508	25198
825.648	25453
825.787	25308
825.927	25320
826.067	25251
826.206	25217
826.346	25293
826.485	25312
826.625	25122
826.765	25289
826.904	25285
827.044	25042
827.183	24962
827.323	24981
827.462	25050
827.601	24848
827.741	24772
827.88	24958
828.02	24734
828.159	24992
828.298	24863
828.437	25053
828.577	25046
828.716	25031
828.855	24734
828.994	24722
829.134	24757
829.273	24791
829.412	24738
829.551	24741
829.69	24760
829.829	24673
829.968	24677
830.107	24753
830.246	24719
830.385	24559
830.524	24627
830.663	24547
830.802	24323
830.941	24224
831.08	24232
831.219	24315
831.357	24296
831.496	24521
831.635	24247
831.774	24258
831.913	24136
832.051	24095
832.19	24049
832.329	24087
832.467	24011
832.606	23969
832.744	24076
832.883	24018
833.022	23954
833.16	24015
833.299	24015
833.437	23988
833.576	23988
833.714	24038
833.852	24072
833.991	24072
834.129	24068
834.267	24068
834.406	24045
834.544	24026
834.682	24015
834.821	23931
834.959	24117
835.097	23958
835.235	24045
835.373	23946
835.511	23965
835.65	23752
835.788	23836
835.926	23741
836.064	23634
836.202	23718
836.34	23805
836.478	23920
836.615	23805
836.753	23942
836.891	23821
837.029	23855
837.167	23748
837.305	23710
837.443	23619
837.58	23646
837.718	23707
837.856	23699
837.993	23535
838.131	23566
838.269	23558
838.406	23630
838.544	23490
838.681	23341
838.819	23242
838.956	23265
839.094	23029
839.231	23155
839.369	23303
839.506	23467
839.643	23353
839.781	23136
839.918	23079
840.055	23124
840.193	23162
840.33	23018
840.467	23197
840.604	23147
840.742	23376
840.879	22942
841.016	23029
841.153	23029
841.29	23090
841.427	23029
841.564	23121
841.701	22999
841.838	23044
841.975	23094
842.112	23159
842.249	22881
842.385	22915
842.522	23140
842.659	22915
842.796	22752
842.933	22877
843.069	22694
843.206	22748
843.343	22930
843.479	22797
843.616	22790
843.752	22679
843.889	22607
844.025	22759
844.162	22584
844.298	22828
844.435	22675
844.571	22535
844.708	22717
844.844	22828
844.98	22820
845.117	22573
845.253	22584
845.389	22519
845.525	22512
845.661	22417
845.798	22272
845.934	22379
846.07	22284
846.206	22329
846.342	22417
846.478	22303
846.614	22135
846.75	22036
846.886	22036
847.022	22211
847.158	21964
847.294	22059
847.429	22070
847.565	22135
847.701	22299
847.837	21884
847.972	21819
848.108	21804
848.244	21865
848.379	21785
848.515	21648
848.65	21660
848.786	21606
848.921	21679
849.057	21819
849.192	21770
849.328	21618
849.463	21606
849.598	21572
849.734	21606
849.869	21500
850.004	21549
850.14	21454
850.275	21382
850.41	21287
850.545	21355
850.68	21321
850.815	21386
850.95	21428
851.085	21606
851.22	21530
851.355	21431
851.49	21485
851.625	21458
851.76	21405
851.895	21294
852.03	21412
852.165	21507
852.299	21534
852.434	21572
852.569	21462
852.703	21473
852.838	21420
852.973	21530
853.107	21542
853.242	21428
853.376	21287
853.511	21233
853.645	21237
853.78	21367
853.914	21279
854.048	21173
854.183	21142
854.317	21294
854.451	21492
854.585	21165
854.72	21306
854.854	21344
854.988	21157
855.122	21275
855.256	21074
855.39	21260
855.524	21325
855.658	21279
855.792	21348
855.926	21230
856.06	21245
856.194	21317
856.327	21218
856.461	21173
856.595	21291
856.729	21249
856.862	21363
856.996	21233
857.13	21348
857.263	21405
857.397	21393
857.53	21291
857.664	21249
857.797	21268
857.931	21321
858.064	21275
858.197	21142
858.331	21268
858.464	21256
858.597	21123
858.731	21184
858.864	21161
858.997	21127
859.13	21230
859.263	21188
859.396	21313
859.529	21203
859.662	21222
859.795	21252
859.928	21344
860.061	21382
860.194	21473
860.327	21245
860.46	21355
860.592	21348
860.725	21412
860.858	21378
860.99	21237
861.123	21233
861.256	21169
861.388	21214
861.521	21899
861.653	21192
861.786	20933
861.918	21077
862.05	21089
862.183	21222
862.315	21138
862.447	21313
862.58	21142
862.712	21020
862.844	20914
862.976	21070
863.108	20994
863.24	21344
863.372	20914
863.504	20937
863.636	20990
863.768	21001
863.9	20902
864.032	20758
864.164	20895
864.296	20998
864.428	21093
864.559	20967
864.691	21043
864.823	20937
864.954	21001
865.086	20937
865.217	20861
865.349	20906
865.48	20872
865.612	20800
865.743	21013
865.875	20891
866.006	20830
866.137	20880
866.269	20762
866.4	20788
866.531	20845
866.662	20857
866.793	20731
866.924	20758
867.055	20720
867.186	20731
867.317	20724
867.448	20708
867.579	20765
867.71	20705
867.841	20746
867.972	20781
868.103	20621
868.233	20823
868.364	20773
868.495	20880
868.625	21028
868.756	21058
868.886	20986
869.017	21009
869.147	21116
869.278	21089
869.408	21096
869.539	20960
869.669	21173
869.799	21062
869.929	21211
870.06	21161
870.19	21310
870.32	21370
870.45	21272
870.58	21504
870.71	21435
870.84	21523
870.97	21405
871.1	21313
871.23	21538
871.36	21538
871.489	21523
871.619	21622
871.749	21709
871.879	21686
872.008	21751
872.138	21622
872.267	21660
872.397	21637
872.526	21367
872.656	21523
872.785	21473
872.915	21698
873.044	21671
873.173	21622
873.303	21694
873.432	21709
873.561	21755
873.69	21762
873.819	21675
873.948	21660
874.077	21679
874.206	21644
874.335	21519
874.464	21903
874.593	21884
874.722	21819
874.851	21937
874.979	21903
875.108	21728
875.237	21907
875.365	21766
875.494	21838
875.623	21842
875.751	21895
875.88	21876
876.008	22055
876.136	22078
876.265	22306
876.393	22341
876.521	22360
876.65	22303
876.778	22196
876.906	22265
877.034	22162
877.162	22287
877.29	22234
877.418	22284
877.546	22303
877.674	22291
877.802	22299
877.93	22177
878.058	22280
878.185	22090
878.313	22196
878.441	22276
878.568	22074
878.696	22162
878.824	22242
878.951	22280
879.079	22356
879.206	22653
879.333	22481
879.461	22204
879.588	22272
879.715	22367
879.842	22607
879.97	22291
880.097	22116
880.224	22063
880.351	22162
880.478	21987
880.605	21968
880.732	21994
880.859	22234
880.986	22070
881.112	22021
881.239	21903
881.366	21873
881.493	21759
881.619	21739
881.746	21720
881.872	21671
881.999	21504
882.125	21603
882.252	21652
882.378	21629
882.505	21705
882.631	21511
882.757	21378
882.883	21256
883.01	21443
883.136	21279
883.262	21192
883.388	21203
883.514	21374
883.64	21344
883.766	21222
883.892	21085
884.018	21119
884.143	21279
884.269	21325
884.395	21051
884.52	20914
884.646	20929
884.772	20982
884.897	20842
885.023	20960
885.148	21070
885.274	21131
885.399	20925
885.524	20998
885.65	20971
885.775	20918
885.9	20914
886.025	21077
886.15	21039
886.275	20956
886.4	20902
886.525	20994
886.65	20891
886.775	20842
886.9	21020
887.025	21230
887.149	20883
887.274	20807
887.399	20689
887.523	20769
887.648	20720
887.773	20674
887.897	20777
888.021	20769
888.146	20705
888.27	20891
888.395	20739
888.519	20849
888.643	20765
888.767	20819
888.891	20705
889.015	20389
889.139	20663
889.263	20450
889.387	20724
889.511	20705
889.635	20617
889.759	20480
889.883	20507
890.006	20511
890.13	20617
890.254	20488
890.377	20469
890.501	20313
890.624	20233
890.748	20377
890.871	20119
890.995	20058
891.118	20081
891.241	20088
891.364	20153
891.488	20259
891.611	20126
891.734	20138
891.857	20100
891.98	20153
892.103	20233
892.226	20206
892.349	20107
892.471	19986
892.594	20107
892.717	20161
892.839	19993
892.962	20088
893.085	20153
893.207	20016
893.33	19860
893.452	19970
893.575	20107
893.697	19868
893.819	20046
893.941	20180
894.064	20024
894.186	19951
894.308	19947
894.43	20210
894.552	20111
894.674	20039
894.796	19799
894.918	19982
895.04	19833
895.161	20134
895.283	19993
895.405	20012
895.526	20062
895.648	19970
895.769	20073
895.891	20008
896.012	20092
896.134	20111
896.255	19936
896.376	19909
896.498	20111
896.619	20062
896.74	19989
896.861	20149
896.982	20377
897.103	20621
897.224	20267
897.345	20164
897.466	20267
897.587	20180
897.708	20320
897.828	20294
897.949	20233
898.07	20157
898.19	20187
898.311	20404
898.431	20157
898.552	20259
898.672	20400
898.792	20305
898.913	20153
899.033	20103
899.153	20031
899.273	19978
899.393	20001
899.513	19974
899.633	20039
899.753	20020
899.873	19940
899.993	20005
900.113	19860
900.232	19970
900.352	19883
900.472	19871
900.591	19769
900.711	19818
900.83	19696
900.95	19803
901.069	19879
901.189	19613
901.308	19533
901.427	19460
901.546	19312
901.665	19430
901.784	19339
901.904	19209
902.023	19152
902.141	18856
902.26	18932
902.379	18989
902.498	18890
902.617	18745
902.735	18924
902.854	18871
902.973	18734
903.091	18597
903.21	18563
903.328	18506
903.446	18445
903.565	18357
903.683	18407
903.801	18194
903.919	18315
904.038	18262
904.156	18121
904.274	18186
904.392	18087
904.51	18129
904.627	18057
904.745	18167
904.863	18152
904.981	17809
905.098	17745
905.216	17779
905.334	17794
905.451	17813
905.569	17710
905.686	17737
905.803	17699
905.921	17695
906.038	17680
906.155	17741
906.272	17478
906.389	17486
906.506	17402
906.623	17452
906.74	17288
906.857	17174
906.974	17311
907.091	17353
907.208	17490
907.324	17364
907.441	17292
907.557	17105
907.674	17128
907.79	16987
907.907	17083
908.023	17033
908.139	17071
908.256	16961
908.372	16987
908.488	16904
908.604	16797
908.72	16698
908.836	16740
908.952	16790
909.068	16675
909.184	16839
909.3	16687
909.415	16706
909.531	16694
909.647	16493
909.762	16538
909.878	16447
909.993	16489
910.108	16459
910.224	16394
910.339	16447
910.454	16280
910.57	16230
910.685	16287
910.8	16565
910.915	16356
911.03	16276
911.145	16090
911.259	16063
911.374	15998
911.489	16010
911.604	15903
911.718	15751
911.833	15850
911.947	15751
912.062	15694
912.176	15823
912.291	15869
912.405	15892
912.519	16040
912.633	16048
912.748	15941
912.862	15781
912.976	15648
913.09	15629
913.204	15595
913.318	15648
913.431	15743
913.545	15724
913.659	15724
913.772	15538
913.886	15572
914	15367
914.113	15500
914.226	15538
914.34	15473
914.453	15389
914.566	15420
914.68	15325
914.793	15378
914.906	15150
915.019	14960
915.132	15001
915.245	15039
915.358	15119
915.47	15085
915.583	15062
915.696	14990
915.809	15180
915.921	15169
916.034	14994
916.146	14967
916.259	14933
916.371	14998
916.483	15036
916.595	14929
916.708	14872
916.82	14876
916.932	14765
917.044	14838
917.156	14857
917.268	14686
917.38	14693
917.491	14587
917.603	14689
917.715	14868
917.826	14701
917.938	14602
918.049	14530
918.161	14678
918.272	14891
918.384	14655
918.495	14636
918.606	14465
918.717	14320
918.828	14404
918.939	14465
919.05	14332
919.161	14412
919.272	14275
919.383	14393
919.494	14473
919.604	14708
919.715	14385
919.826	14393
919.936	14423
920.047	14560
920.157	14442
920.267	14590
920.378	14446
920.488	14389
920.598	14549
920.708	14731
920.818	14617
920.928	14537
921.038	14602
921.148	14693
921.258	14434
921.368	14377
921.477	14134
921.587	14096
921.697	14126
921.806	14123
921.916	14039
922.025	13849
922.134	13776
922.244	13746
922.353	13860
922.462	13776
922.571	13540
922.68	13521
922.789	13445
922.898	13510
923.007	13449
923.116	13518
923.224	13453
923.333	13365
923.442	13247
923.55	13316
923.659	13293
923.767	13358
923.876	13236
923.984	13308
924.092	13263
924.201	13240
924.309	13194
924.417	13221
924.525	13126
924.633	13221
924.741	14077
924.849	12943
924.956	13160
925.064	12905
925.172	12852
925.279	12829
925.387	12909
925.494	12707
925.602	12989
925.709	12977
925.816	12764
925.924	12772
926.031	12916
926.138	12840
926.245	12821
926.352	12696
926.459	12844
926.566	12802
926.673	12700
926.779	12608
926.886	12719
926.993	12506
927.099	12540
927.206	12304
927.312	12418
927.419	12494
927.525	12502
927.631	12429
927.737	12296
927.843	12270
927.95	12201
928.056	12353
928.162	12315
928.267	12289
928.373	12901
928.479	12319
928.585	12148
928.69	12281
928.796	12213
928.901	12079
929.007	12030
929.112	12133
929.218	12038
929.323	12083
929.428	11996
929.533	12140
929.638	12011
929.743	11954
929.848	11939
929.953	12019
930.058	11901
930.163	11741
930.267	11745
930.372	11817
930.477	11592
930.581	11870
930.685	11783
930.79	11600
930.894	11551
930.998	11520
931.103	11718
931.207	11414
931.311	11208
931.415	11140
931.519	10991
931.623	10999
