Data from test_V78500241_845.txt Node
Date: Fri Mar 25 15:47:39 CST 2022
User: usil
Spectrometer: V785-0024
Trigger mode: 0
Integration Time (sec): 4.000000E-1
Scans to average: 1
Nonlinearity correction enabled: false
Boxcar width: 0
Storing dark spectrum: false
XAxis mode: Wavelengths
Number of Pixels in Spectrum: 1024
>>>>>Begin Spectral Data<<<<<
801.071	27717
801.214	27686
801.356	27492
801.499	27321
801.641	27192
801.783	27226
801.926	27332
802.068	27272
802.211	27047
802.353	27135
802.496	26902
802.638	26857
802.78	26967
802.923	26754
803.065	26823
803.208	26880
803.35	26891
803.492	27036
803.635	26925
803.777	27047
803.919	27169
804.061	27363
804.204	27131
804.346	27070
804.488	26990
804.63	27001
804.773	26910
804.915	27058
805.057	27062
805.199	27032
805.341	27112
805.483	27135
805.626	27165
805.768	27317
805.91	27150
806.052	27161
806.194	27093
806.336	27195
806.478	27241
806.62	27264
806.762	27313
806.904	27530
807.046	27720
807.188	27648
807.33	27713
807.472	27705
807.614	27511
807.756	27595
807.898	27477
808.04	27538
808.182	27515
808.324	27557
808.465	27530
808.607	27736
808.749	27819
808.891	27770
809.033	28078
809.174	27823
809.316	27922
809.458	27747
809.6	27873
809.741	28093
809.883	28070
810.025	28124
810.166	28188
810.308	28131
810.45	28150
810.591	27945
810.733	27918
810.875	27816
811.016	27728
811.158	27720
811.299	27873
811.441	27968
811.582	28116
811.724	27926
811.865	27972
812.007	27922
812.148	27960
812.29	27922
812.431	27964
812.573	27991
812.714	28344
812.855	28417
812.997	28573
813.138	28611
813.279	28538
813.421	28462
813.562	28375
813.703	28188
813.845	28166
813.986	27800
814.127	27671
814.268	27408
814.41	27469
814.551	27450
814.692	27682
814.833	27507
814.974	27447
815.115	27534
815.256	27378
815.397	27298
815.539	27401
815.68	27302
815.821	27416
815.962	27367
816.103	27370
816.244	27138
816.385	27146
816.526	27085
816.666	26990
816.807	26804
816.948	26899
817.089	27074
817.23	26872
817.371	26769
817.512	26796
817.653	26982
817.793	26765
817.934	26735
818.075	26940
818.216	26739
818.356	26773
818.497	26826
818.638	26476
818.778	26552
818.919	26541
819.06	26526
819.2	26788
819.341	26887
819.481	26804
819.622	26979
819.762	27100
819.903	26982
820.043	27074
820.184	26937
820.324	26842
820.465	26849
820.605	26929
820.746	26986
820.886	26815
821.026	26940
821.167	26823
821.307	26975
821.447	26967
821.588	26731
821.728	26686
821.868	26412
822.008	26233
822.149	26362
822.289	26328
822.429	25993
822.569	25909
822.709	25955
822.849	25704
822.99	25875
823.13	25769
823.27	25826
823.41	25651
823.55	25499
823.69	25655
823.83	25616
823.97	25567
824.11	25381
824.25	25403
824.389	25346
824.529	25559
824.669	25506
824.809	25441
824.949	25457
825.089	25540
825.228	25548
825.368	25236
825.508	25228
825.648	25411
825.787	25350
825.927	25415
826.067	25343
826.206	25263
826.346	25358
826.485	25358
826.625	25251
826.765	25369
826.904	25202
827.044	25095
827.183	25088
827.323	24935
827.462	25053
827.601	25076
827.741	24989
827.88	25065
828.02	24920
828.159	24973
828.298	24989
828.437	25034
828.577	24875
828.716	25072
828.855	24966
828.994	24787
829.134	24684
829.273	24688
829.412	24639
829.551	24646
829.69	24696
829.829	24650
829.968	24791
830.107	24825
830.246	24707
830.385	24616
830.524	24593
830.663	24532
830.802	24456
830.941	24308
831.08	24292
831.219	24467
831.357	24475
831.496	24642
831.635	24224
831.774	24266
831.913	24209
832.051	24159
832.19	24060
832.329	24140
832.467	24034
832.606	23904
832.744	23870
832.883	24060
833.022	23988
833.16	23950
833.299	24174
833.437	24018
833.576	24060
833.714	23923
833.852	24011
833.991	24045
834.129	24159
834.267	24041
834.406	24194
834.544	24129
834.682	24106
834.821	23973
834.959	24136
835.097	23969
835.235	24106
835.373	24018
835.511	24057
835.65	23904
835.788	23851
835.926	23779
836.064	23691
836.202	23680
836.34	23920
836.478	23965
836.615	23760
836.753	23897
836.891	23916
837.029	23836
837.167	23927
837.305	23889
837.443	23771
837.58	23619
837.718	23885
837.856	23783
837.993	23566
838.131	23745
838.269	23611
838.406	23596
838.544	23440
838.681	23417
838.819	23334
838.956	23227
839.094	23189
839.231	23326
839.369	23406
839.506	23505
839.643	23345
839.781	23090
839.918	23227
840.055	23261
840.193	23189
840.33	23071
840.467	22984
840.604	23212
840.742	23471
840.879	22904
841.016	23083
841.153	22949
841.29	23185
841.427	23064
841.564	23071
841.701	23071
841.838	23033
841.975	22991
842.112	22885
842.249	22915
842.385	22778
842.522	23151
842.659	22968
842.796	22873
842.933	22927
843.069	22881
843.206	22763
843.343	22881
843.479	22797
843.616	22900
843.752	22656
843.889	22611
844.025	22752
844.162	22584
844.298	22767
844.435	22615
844.571	22649
844.708	22729
844.844	22733
844.98	22850
845.117	22706
845.253	22596
845.389	22497
845.525	22561
845.661	22440
845.798	22352
845.934	22485
846.07	22379
846.206	22466
846.342	22542
846.478	22451
846.614	22177
846.75	22051
846.886	22070
847.022	22166
847.158	22112
847.294	22226
847.429	22154
847.565	22135
847.701	22299
847.837	21892
847.972	21793
848.108	22013
848.244	21918
848.379	21793
848.515	21644
848.65	21690
848.786	21720
848.921	21648
849.057	21762
849.192	21785
849.328	21850
849.463	21698
849.598	21622
849.734	21507
849.869	21523
850.004	21359
850.14	21412
850.275	21416
850.41	21397
850.545	21344
850.68	21435
850.815	21504
850.95	21492
851.085	21583
851.22	21644
851.355	21408
851.49	21382
851.625	21523
851.76	21454
851.895	21458
852.03	21386
852.165	21416
852.299	21614
852.434	21401
852.569	21454
852.703	21424
852.838	21443
852.973	21542
853.107	21572
853.242	21386
853.376	21283
853.511	21074
853.645	21252
853.78	21393
853.914	21310
854.048	21192
854.183	21321
854.317	21283
854.451	21466
854.585	21237
854.72	21313
854.854	21275
854.988	21249
855.122	21176
855.256	21237
855.39	21237
855.524	21408
855.658	21367
855.792	21199
855.926	21329
856.06	21291
856.194	21298
856.327	21192
856.461	21161
856.595	21275
856.729	21199
856.862	21469
856.996	21264
857.13	21329
857.263	21473
857.397	21363
857.53	21294
857.664	21340
857.797	21279
857.931	21332
858.064	21249
858.197	21405
858.331	21260
858.464	21264
858.597	21192
858.731	21108
858.864	21199
858.997	21226
859.13	21184
859.263	21249
859.396	21397
859.529	21317
859.662	21226
859.795	21222
859.928	21306
860.061	21447
860.194	21488
860.327	21272
860.46	21298
860.592	21412
860.725	21424
860.858	21367
860.99	21256
861.123	21249
861.256	21260
861.388	21157
861.521	21876
861.653	21260
861.786	21146
861.918	21169
862.05	21176
862.183	21226
862.315	21245
862.447	21233
862.58	21085
862.712	21100
862.844	20925
862.976	20975
863.108	21104
863.24	21462
863.372	20971
863.504	20979
863.636	20933
863.768	21020
863.9	21119
864.032	20979
864.164	20925
864.296	21032
864.428	21074
864.559	21043
864.691	21089
864.823	21005
864.954	20994
865.086	20982
865.217	20971
865.349	20864
865.48	20834
865.612	20937
865.743	21108
865.875	20979
866.006	20906
866.137	20960
866.269	20918
866.4	20906
866.531	20815
866.662	20845
866.793	20819
866.924	20861
867.055	20807
867.186	20883
867.317	20769
867.448	20792
867.579	20758
867.71	20815
867.841	20708
867.972	20849
868.103	20838
868.233	20754
868.364	20864
868.495	20952
868.625	20933
868.756	21131
868.886	20937
869.017	21104
869.147	21176
869.278	21127
869.408	21138
869.539	21165
869.669	21150
869.799	21093
869.929	21161
870.06	21077
870.19	21424
870.32	21363
870.45	21382
870.58	21359
870.71	21629
870.84	21488
870.97	21496
871.1	21386
871.23	21545
871.36	21762
871.489	21580
871.619	21637
871.749	21709
871.879	21781
872.008	21686
872.138	21671
872.267	21679
872.397	21519
872.526	21492
872.656	21538
872.785	21363
872.915	21701
873.044	21804
873.173	21785
873.303	21789
873.432	21637
873.561	21854
873.69	21747
873.819	21755
873.948	21835
874.077	21739
874.206	21610
874.335	21580
874.464	21888
874.593	22044
874.722	21934
874.851	21869
874.979	21983
875.108	21964
875.237	21964
875.365	21789
875.494	21793
875.623	21956
875.751	21869
875.88	21949
876.008	22078
876.136	22147
876.265	22249
876.393	22428
876.521	22318
876.65	22386
876.778	22261
876.906	22128
877.034	22154
877.162	22067
877.29	22219
877.418	22306
877.546	22322
877.674	22177
877.802	22265
877.93	22112
878.058	22200
878.185	22185
878.313	22253
878.441	22192
878.568	22074
878.696	22234
878.824	22200
878.951	22367
879.079	22379
879.206	22489
879.333	22462
879.461	22211
879.588	22295
879.715	22470
879.842	22489
879.97	22409
880.097	22150
880.224	22257
880.351	22063
880.478	22120
880.605	22006
880.732	22048
880.859	22356
880.986	22200
881.112	22078
881.239	21956
881.366	21831
881.493	21728
881.619	21690
881.746	21641
881.872	21717
881.999	21660
882.125	21561
882.252	21732
882.378	21576
882.505	21797
882.631	21568
882.757	21359
882.883	21488
883.01	21306
883.136	21313
883.262	21226
883.388	21207
883.514	21272
883.64	21363
883.766	21214
883.892	21180
884.018	21173
884.143	21332
884.269	21530
884.395	21116
884.52	20902
884.646	21066
884.772	20857
884.897	20895
885.023	21093
885.148	21127
885.274	21233
885.399	21036
885.524	21070
885.65	21108
885.775	20975
885.9	20956
886.025	21123
886.15	21100
886.275	21032
886.4	20960
886.525	20937
886.65	20933
886.775	21020
886.9	21043
887.025	21245
887.149	20979
887.274	20777
887.399	20838
887.523	20735
887.648	20705
887.773	20693
887.897	20864
888.021	20857
888.146	20712
888.27	20811
888.395	20895
888.519	20872
888.643	20769
888.767	20906
888.891	20735
889.015	20697
889.139	20693
889.263	20693
889.387	20731
889.511	20788
889.635	20708
889.759	20701
889.883	20594
890.006	20571
890.13	20667
890.254	20450
890.377	20549
890.501	20343
890.624	20362
890.748	20328
890.871	20240
890.995	20058
891.118	20172
891.241	20294
891.364	20172
891.488	20328
891.611	20195
891.734	20233
891.857	20168
891.98	20172
892.103	20225
892.226	20111
892.349	20168
892.471	20046
892.594	19955
892.717	20065
892.839	20103
892.962	20122
893.085	20153
893.207	20058
893.33	19928
893.452	20122
893.575	20134
893.697	20035
893.819	20313
893.941	20244
894.064	20199
894.186	19921
894.308	19986
894.43	20134
894.552	20149
894.674	20069
894.796	19868
894.918	20035
895.04	20103
895.161	20240
895.283	20142
895.405	19944
895.526	20092
895.648	20027
895.769	20191
895.891	20122
896.012	20233
896.134	20100
896.255	20092
896.376	19970
896.498	20111
896.619	20081
896.74	20092
896.861	20153
896.982	20332
897.103	20568
897.224	20454
897.345	20343
897.466	20244
897.587	20263
897.708	20343
897.828	20377
897.949	20286
898.07	20145
898.19	20229
898.311	20351
898.431	20084
898.552	20248
898.672	20442
898.792	20393
898.913	20271
899.033	20301
899.153	20039
899.273	20043
899.393	20016
899.513	20153
899.633	20073
899.753	20065
899.873	20031
899.993	20180
900.113	20084
900.232	19951
900.352	20050
900.472	19913
900.591	19784
900.711	19917
900.83	19712
900.95	19925
901.069	20016
901.189	19658
901.308	19491
901.427	19464
901.546	19392
901.665	19297
901.784	19396
901.904	19316
902.023	19217
902.141	18977
902.26	18973
902.379	19019
902.498	18894
902.617	18966
902.735	19080
902.854	18894
902.973	18814
903.091	18608
903.21	18601
903.328	18642
903.446	18521
903.565	18464
903.683	18319
903.801	18308
903.919	18441
904.038	18247
904.156	18205
904.274	18281
904.392	18152
904.51	17992
904.627	18167
904.745	18270
904.863	18186
904.981	18034
905.098	17859
905.216	17859
905.334	17935
905.451	17935
905.569	17745
905.686	17939
905.803	17927
905.921	17577
906.038	17695
906.155	17554
906.272	17459
906.389	17581
906.506	17391
906.623	17337
906.74	17391
906.857	17280
906.974	17315
907.091	17459
907.208	17497
907.324	17455
907.441	17250
907.557	17159
907.674	17033
907.79	17151
907.907	17045
908.023	17151
908.139	17056
908.256	16984
908.372	16919
908.488	16995
908.604	16881
908.72	16790
908.836	16790
908.952	16869
909.068	16778
909.184	16968
909.3	16824
909.415	16877
909.531	16713
909.647	16649
909.762	16546
909.878	16443
909.993	16497
910.108	16500
910.224	16405
910.339	16527
910.454	16421
910.57	16314
910.685	16314
910.8	16466
910.915	16451
911.03	16272
911.145	16124
911.259	16124
911.374	16169
911.489	16059
911.604	15926
911.718	15846
911.833	15861
911.947	15800
912.062	15743
912.176	15778
912.291	15983
912.405	15854
912.519	16074
912.633	16166
912.748	15857
912.862	15842
912.976	15720
913.09	15515
913.204	15618
913.318	15679
913.431	15842
913.545	15720
913.659	15720
913.772	15652
913.886	15595
914	15496
914.113	15561
914.226	15641
914.34	15523
914.453	15386
914.566	15553
914.68	15431
914.793	15302
914.906	15230
915.019	15074
915.132	15085
915.245	15112
915.358	15062
915.47	15161
915.583	15119
915.696	15062
915.809	15211
915.921	15081
916.034	14975
916.146	15017
916.259	14952
916.371	15077
916.483	15020
916.595	14849
916.708	14963
916.82	14895
916.932	14861
917.044	14811
917.156	14773
917.268	14762
917.38	14800
917.491	14663
917.603	14750
917.715	14887
917.826	14746
917.938	14735
918.049	14739
918.161	14716
918.272	14830
918.384	14823
918.495	14617
918.606	14571
918.717	14412
918.828	14476
918.939	14503
919.05	14332
919.161	14492
919.272	14298
919.383	14282
919.494	14560
919.604	14667
919.715	14457
919.826	14351
919.936	14419
920.047	14530
920.157	14473
920.267	14636
920.378	14423
920.488	14454
920.598	14579
920.708	14689
920.818	14590
920.928	14617
921.038	14750
921.148	14705
921.258	14431
921.368	14282
921.477	14252
921.587	14142
921.697	14123
921.806	14237
921.916	14012
922.025	13951
922.134	13723
922.244	13795
922.353	13902
922.462	13761
922.571	13613
922.68	13613
922.789	13457
922.898	13373
923.007	13457
923.116	13567
923.224	13544
923.333	13419
923.442	13301
923.55	13381
923.659	13331
923.767	13384
923.876	13263
923.984	13339
924.092	13179
924.201	13324
924.309	13255
924.417	13225
924.525	13099
924.633	13137
924.741	14062
924.849	12973
924.956	13103
925.064	12905
925.172	12928
925.279	12890
925.387	12916
925.494	12962
925.602	13038
925.709	12935
925.816	12920
925.924	12894
926.031	12852
926.138	12829
926.245	12795
926.352	12696
926.459	12871
926.566	12954
926.673	12821
926.779	12639
926.886	12726
926.993	12604
927.099	12460
927.206	12475
927.312	12448
927.419	12426
927.525	12479
927.631	12536
927.737	12369
927.843	12365
927.95	12220
928.056	12289
928.162	12346
928.267	12330
928.373	12970
928.479	12350
928.585	12155
928.69	12182
928.796	12213
928.901	12171
929.007	11996
929.112	12201
929.218	12076
929.323	12095
929.428	12121
929.533	12121
929.638	11904
929.743	11984
929.848	12095
929.953	11999
930.058	11813
930.163	11710
930.267	11752
930.372	11786
930.477	11661
930.581	11946
930.685	11710
930.79	11615
930.894	11581
930.998	11581
931.103	11726
931.207	11372
931.311	11288
931.415	11147
931.519	11018
931.623	11029
