Data from test_V78500241_1735.txt Node
Date: Fri Mar 25 15:53:49 CST 2022
User: usil
Spectrometer: V785-0024
Trigger mode: 0
Integration Time (sec): 4.000000E-1
Scans to average: 1
Nonlinearity correction enabled: false
Boxcar width: 0
Storing dark spectrum: false
XAxis mode: Wavelengths
Number of Pixels in Spectrum: 1024
>>>>>Begin Spectral Data<<<<<
801.071	28405
801.214	28348
801.356	28093
801.499	27945
801.641	28036
801.783	27781
801.926	27979
802.068	27991
802.211	27717
802.353	27713
802.496	27610
802.638	27530
802.78	27511
802.923	27504
803.065	27488
803.208	27351
803.35	27618
803.492	27686
803.635	27736
803.777	27648
803.919	27895
804.061	28013
804.204	27934
804.346	27690
804.488	27747
804.63	27789
804.773	27736
804.915	27797
805.057	27827
805.199	27884
805.341	27876
805.483	28055
805.626	27854
805.768	27804
805.91	28025
806.052	27937
806.194	27892
806.336	28158
806.478	27869
806.62	28013
806.762	28185
806.904	28177
807.046	28504
807.188	28352
807.33	28375
807.472	28443
807.614	28447
807.756	28265
807.898	28284
808.04	28230
808.182	28101
808.324	28322
808.465	28234
808.607	28417
808.749	28580
808.891	28672
809.033	28782
809.174	28755
809.316	28478
809.458	28672
809.6	28615
809.741	28771
809.883	28759
810.025	28900
810.166	28828
810.308	28972
810.45	28930
810.591	28828
810.733	28588
810.875	28489
811.016	28455
811.158	28352
811.299	28782
811.441	28748
811.582	28771
811.724	28611
811.865	28634
812.007	28360
812.148	28691
812.29	28607
812.431	28778
812.573	28995
812.714	29006
812.855	29109
812.997	29185
813.138	29490
813.279	29375
813.421	29143
813.562	29090
813.703	28987
813.845	28885
813.986	28592
814.127	28542
814.268	28329
814.41	28474
814.551	28181
814.692	28481
814.833	28303
814.974	28299
815.115	28401
815.256	28051
815.397	28337
815.539	28154
815.68	28078
815.821	28013
815.962	28188
816.103	28101
816.244	27941
816.385	27960
816.526	27972
816.666	27682
816.807	27641
816.948	27739
817.089	27774
817.23	27663
817.371	27500
817.512	27542
817.653	27519
817.793	27511
817.934	27603
818.075	27561
818.216	27682
818.356	27709
818.497	27485
818.638	27306
818.778	27447
818.919	27370
819.06	27393
819.2	27591
819.341	27606
819.481	27694
819.622	27755
819.762	27945
819.903	27941
820.043	27816
820.184	27686
820.324	27701
820.465	27766
820.605	27739
820.746	27766
820.886	27534
821.026	27759
821.167	27660
821.307	27720
821.447	27717
821.588	27564
821.728	27427
821.868	27275
822.008	27169
822.149	27127
822.289	27089
822.429	26823
822.569	26849
822.709	26769
822.849	26511
822.99	26682
823.13	26530
823.27	26556
823.41	26317
823.55	26339
823.69	26537
823.83	26400
823.97	26240
824.11	26263
824.25	26069
824.389	26248
824.529	26374
824.669	26267
824.809	26282
824.949	26415
825.089	26282
825.228	26153
825.368	26100
825.508	26050
825.648	26153
825.787	26092
825.927	26149
826.067	26180
826.206	26046
826.346	26233
826.485	26164
826.625	26046
826.765	26237
826.904	26218
827.044	25917
827.183	25712
827.323	25670
827.462	25826
827.601	25982
827.741	25723
827.88	25799
828.02	25761
828.159	25830
828.298	25734
828.437	25902
828.577	25719
828.716	25974
828.855	25742
828.994	25426
829.134	25563
829.273	25674
829.412	25479
829.551	25529
829.69	25464
829.829	25575
829.968	25613
830.107	25544
830.246	25457
830.385	25453
830.524	25430
830.663	25339
830.802	25228
830.941	25171
831.08	25152
831.219	25190
831.357	25209
831.496	25202
831.635	25129
831.774	25122
831.913	25061
832.051	24970
832.19	24916
832.329	24924
832.467	24779
832.606	24749
832.744	24665
832.883	24745
833.022	24844
833.16	24867
833.299	24859
833.437	24757
833.576	24840
833.714	24817
833.852	24871
833.991	24848
834.129	24852
834.267	24939
834.406	24757
834.544	25019
834.682	24886
834.821	24745
834.959	24989
835.097	24810
835.235	24913
835.373	24776
835.511	24806
835.65	24559
835.788	24753
835.926	24612
836.064	24532
836.202	24433
836.34	24642
836.478	24703
836.615	24692
836.753	24646
836.891	24722
837.029	24589
837.167	24597
837.305	24677
837.443	24593
837.58	24429
837.718	24540
837.856	24517
837.993	24521
838.131	24437
838.269	24350
838.406	24505
838.544	24277
838.681	24098
838.819	24011
838.956	24038
839.094	24018
839.231	24011
839.369	24049
839.506	24330
839.643	24205
839.781	23992
839.918	23847
840.055	23992
840.193	23912
840.33	23961
840.467	23939
840.604	23935
840.742	24201
840.879	23748
841.016	23851
841.153	23840
841.29	23847
841.427	23904
841.564	23912
841.701	23824
841.838	23726
841.975	23756
842.112	23661
842.249	23592
842.385	23707
842.522	23863
842.659	23718
842.796	23703
842.933	23589
843.069	23539
843.206	23554
843.343	23566
843.479	23756
843.616	23562
843.752	23524
843.889	23299
844.025	23554
844.162	23398
844.298	23436
844.435	23246
844.571	23433
844.708	23429
844.844	23657
844.98	23531
845.117	23425
845.253	23406
845.389	23455
845.525	23330
845.661	23261
845.798	23083
845.934	23170
846.07	23079
846.206	23136
846.342	23360
846.478	23075
846.614	22873
846.75	22683
846.886	22957
847.022	22949
847.158	22793
847.294	23014
847.429	22831
847.565	22889
847.701	23117
847.837	22592
847.972	22755
848.108	22733
848.244	22672
848.379	22504
848.515	22409
848.65	22459
848.786	22382
848.921	22371
849.057	22656
849.192	22462
849.328	22394
849.463	22398
849.598	22291
849.734	22459
849.869	22207
850.004	22166
850.14	22063
850.275	22051
850.41	22097
850.545	22139
850.68	22097
850.815	22162
850.95	22192
851.085	22375
851.22	22200
851.355	22150
851.49	22207
851.625	22131
851.76	22082
851.895	22196
852.03	22097
852.165	22196
852.299	22276
852.434	22287
852.569	22280
852.703	22223
852.838	22204
852.973	22303
853.107	22272
853.242	22192
853.376	22086
853.511	21854
853.645	22002
853.78	22112
853.914	21953
854.048	21934
854.183	22048
854.317	22055
854.451	22105
854.585	21941
854.72	22025
854.854	22086
854.988	21930
855.122	21918
855.256	21827
855.39	22013
855.524	22051
855.658	22029
855.792	22029
855.926	21979
856.06	21922
856.194	22105
856.327	21994
856.461	22002
856.595	21949
856.729	22006
856.862	22120
856.996	22055
857.13	21994
857.263	22219
857.397	22086
857.53	21998
857.664	22078
857.797	22093
857.931	22120
858.064	22017
858.197	22143
858.331	22074
858.464	21930
858.597	21918
858.731	22006
858.864	21964
858.997	22051
859.13	21983
859.263	21975
859.396	22116
859.529	22044
859.662	21972
859.795	21895
859.928	21991
860.061	22265
860.194	22181
860.327	22074
860.46	22032
860.592	22002
860.725	22185
860.858	22219
860.99	21994
861.123	22097
861.256	21972
861.388	21964
861.521	22831
861.653	21941
861.786	21812
861.918	21778
862.05	21831
862.183	22036
862.315	21983
862.447	22025
862.58	21888
862.712	21827
862.844	21808
862.976	21781
863.108	21637
863.24	22078
863.372	21595
863.504	21720
863.636	21679
863.768	21762
863.9	21755
864.032	21686
864.164	21736
864.296	21789
864.428	21747
864.559	21762
864.691	21785
864.823	21709
864.954	21724
865.086	21675
865.217	21625
865.349	21542
865.48	21576
865.612	21618
865.743	21785
865.875	21485
866.006	21542
866.137	21587
866.269	21572
866.4	21553
866.531	21568
866.662	21496
866.793	21587
866.924	21492
867.055	21561
867.186	21523
867.317	21382
867.448	21500
867.579	21351
867.71	21462
867.841	21530
867.972	21618
868.103	21526
868.233	21564
868.364	21530
868.495	21603
868.625	21755
868.756	21827
868.886	21633
869.017	21591
869.147	21816
869.278	21869
869.408	21823
869.539	21755
869.669	21903
869.799	21797
869.929	21808
870.06	21873
870.19	22120
870.32	21975
870.45	22112
870.58	22185
870.71	22192
870.84	22318
870.97	22211
871.1	22162
871.23	22424
871.36	22409
871.489	22322
871.619	22295
871.749	22379
871.879	22462
872.008	22405
872.138	22341
872.267	22424
872.397	22265
872.526	22242
872.656	22287
872.785	22261
872.915	22508
873.044	22402
873.173	22379
873.303	22447
873.432	22390
873.561	22519
873.69	22459
873.819	22455
873.948	22580
874.077	22394
874.206	22390
874.335	22371
874.464	22542
874.593	22550
874.722	22649
874.851	22679
874.979	22740
875.108	22710
875.237	22493
875.365	22459
875.494	22542
875.623	22603
875.751	22615
875.88	22561
876.008	22702
876.136	22797
876.265	22965
876.393	23231
876.521	23155
876.65	23075
876.778	22949
876.906	22873
877.034	22980
877.162	23025
877.29	22938
877.418	23033
877.546	22930
877.674	22946
877.802	22965
877.93	23052
878.058	22923
878.185	22839
878.313	22839
878.441	22957
878.568	22809
878.696	22877
878.824	23056
878.951	23079
879.079	23010
879.206	23155
879.333	23159
879.461	23079
879.588	23147
879.715	23231
879.842	23151
879.97	23075
880.097	22843
880.224	22713
880.351	22850
880.478	22805
880.605	22691
880.732	22812
880.859	22942
880.986	22694
881.112	22828
881.239	22607
881.366	22489
881.493	22432
881.619	22432
881.746	22284
881.872	22291
881.999	22405
882.125	22280
882.252	22363
882.378	22287
882.505	22417
882.631	22101
882.757	21945
882.883	22101
883.01	21861
883.136	21953
883.262	21941
883.388	21972
883.514	22040
883.64	22074
883.766	21903
883.892	21648
884.018	21850
884.143	22029
884.269	21956
884.395	21793
884.52	21591
884.646	21766
884.772	21553
884.897	21618
885.023	21736
885.148	21675
885.274	21793
885.399	21812
885.524	21606
885.65	21690
885.775	21717
885.9	21618
886.025	21804
886.15	21580
886.275	21686
886.4	21576
886.525	21679
886.65	21629
886.775	21500
886.9	21728
887.025	21915
887.149	21469
887.274	21504
887.399	21420
887.523	21367
887.648	21325
887.773	21355
887.897	21454
888.021	21393
888.146	21412
888.27	21393
888.395	21583
888.519	21606
888.643	21332
888.767	21450
888.891	21382
889.015	21100
889.139	21279
889.263	21317
889.387	21302
889.511	21416
889.635	21275
889.759	21127
889.883	21214
890.006	21268
890.13	21184
890.254	21211
890.377	20994
890.501	20929
890.624	20952
890.748	21104
890.871	20895
890.995	20788
891.118	20689
891.241	20800
891.364	20914
891.488	20807
891.611	20804
891.734	20845
891.857	20880
891.98	20777
892.103	20724
892.226	20758
892.349	20640
892.471	20564
892.594	20708
892.717	20750
892.839	20746
892.962	20743
893.085	20758
893.207	20724
893.33	20522
893.452	20530
893.575	20811
893.697	20670
893.819	20864
893.941	20792
894.064	20705
894.186	20746
894.308	20583
894.43	20708
894.552	20727
894.674	20781
894.796	20587
894.918	20629
895.04	20651
895.161	20636
895.283	20651
895.405	20545
895.526	20705
895.648	20621
895.769	20640
895.891	20750
896.012	20769
896.134	20655
896.255	20545
896.376	20552
896.498	20781
896.619	20720
896.74	20598
896.861	20750
896.982	20963
897.103	21192
897.224	20956
897.345	20849
897.466	20872
897.587	20982
897.708	20960
897.828	20914
897.949	20826
898.07	20697
898.19	20792
898.311	20941
898.431	20788
898.552	20750
898.672	20960
898.792	20986
898.913	20906
899.033	20861
899.153	20674
899.273	20457
899.393	20609
899.513	20724
899.633	20545
899.753	20651
899.873	20530
899.993	20655
900.113	20480
900.232	20598
900.352	20518
900.472	20396
900.591	20294
900.711	20404
900.83	20393
900.95	20415
901.069	20454
901.189	20206
901.308	20103
901.427	19959
901.546	19963
901.665	20031
901.784	19944
901.904	19890
902.023	19746
902.141	19529
902.26	19460
902.379	19613
902.498	19468
902.617	19514
902.735	19514
902.854	19445
902.973	19464
903.091	19065
903.21	19103
903.328	19175
903.446	18970
903.565	19031
903.683	18924
903.801	18825
903.919	18856
904.038	18856
904.156	18779
904.274	18817
904.392	18783
904.51	18696
904.627	18688
904.745	18646
904.863	18688
904.981	18456
905.098	18384
905.216	18372
905.334	18437
905.451	18346
905.569	18308
905.686	18395
905.803	18311
905.921	18163
906.038	18319
906.155	18216
906.272	18068
906.389	18041
906.506	17927
906.623	17878
906.74	17859
906.857	17813
906.974	17802
907.091	17889
907.208	18038
907.324	17882
907.441	17783
907.557	17661
907.674	17684
907.79	17547
907.907	17562
908.023	17619
908.139	17554
908.256	17528
908.372	17330
908.488	17482
908.604	17334
908.72	17231
908.836	17345
908.952	17189
909.068	17303
909.184	17376
909.3	17254
909.415	17383
909.531	17235
909.647	17006
909.762	17048
909.878	16923
909.993	17124
910.108	16942
910.224	16991
910.339	17025
910.454	16828
910.57	16782
910.685	16736
910.8	16953
910.915	16953
911.03	16843
911.145	16554
911.259	16451
911.374	16588
911.489	16462
911.604	16474
911.718	16322
911.833	16440
911.947	16215
912.062	16112
912.176	16443
912.291	16348
912.405	16287
912.519	16558
912.633	16561
912.748	16455
912.862	16261
912.976	16051
913.09	15983
913.204	16128
913.318	16211
913.431	16280
913.545	16234
913.659	16162
913.772	16029
913.886	15956
914	15926
914.113	16040
914.226	16048
914.34	16059
914.453	15857
914.566	15949
914.68	15838
914.793	15812
914.906	15728
915.019	15481
915.132	15595
915.245	15526
915.358	15564
915.47	15534
915.583	15507
915.696	15648
915.809	15663
915.921	15625
916.034	15526
916.146	15401
916.259	15397
916.371	15485
916.483	15462
916.595	15378
916.708	15389
916.82	15344
916.932	15298
917.044	15355
917.156	15332
917.268	15233
917.38	15211
917.491	15207
917.603	15138
917.715	15317
917.826	15332
917.938	15100
918.049	15051
918.161	15070
918.272	15184
918.384	15233
918.495	15116
918.606	15039
918.717	14849
918.828	15013
918.939	14941
919.05	14876
919.161	14899
919.272	14689
919.383	14750
919.494	14849
919.604	15070
919.715	14857
919.826	14781
919.936	14849
920.047	14899
920.157	14815
920.267	15100
920.378	14857
920.488	14883
920.598	15009
920.708	15055
920.818	14929
920.928	14933
921.038	15150
921.148	15119
921.258	14796
921.368	14686
921.477	14659
921.587	14549
921.697	14480
921.806	14640
921.916	14446
922.025	14377
922.134	14298
922.244	14199
922.353	14229
922.462	14100
922.571	14077
922.68	13940
922.789	13841
922.898	13841
923.007	13909
923.116	13879
923.224	13803
923.333	13822
923.442	13715
923.55	13670
923.659	13708
923.767	13704
923.876	13647
923.984	13742
924.092	13491
924.201	13643
924.309	13575
924.417	13636
924.525	13556
924.633	13476
924.741	14237
924.849	13369
924.956	13449
925.064	13244
925.172	13274
925.279	13206
925.387	13278
925.494	13198
925.602	13403
925.709	13320
925.816	13209
925.924	13240
926.031	13293
926.138	13225
926.245	13251
926.352	13091
926.459	13308
926.566	13324
926.673	13156
926.779	13053
926.886	12913
926.993	12897
927.099	12852
927.206	12798
927.312	12795
927.419	12814
927.525	12817
927.631	12821
927.737	12734
927.843	12620
927.95	12627
928.056	12578
928.162	12642
928.267	12802
928.373	13274
928.479	12734
928.585	12544
928.69	12631
928.796	12696
928.901	12502
929.007	12300
929.112	12483
929.218	12445
929.323	12414
929.428	12380
929.533	12452
929.638	12338
929.743	12277
929.848	12243
929.953	12311
930.058	12289
930.163	12064
930.267	12068
930.372	12197
930.477	11973
930.581	12277
930.685	12060
930.79	11920
930.894	11980
930.998	11836
931.103	11965
931.207	11691
931.311	11589
931.415	11490
931.519	11330
931.623	11307
