Data from test_V78500241_1.txt Node
Date: Fri Mar 25 15:41:48 CST 2022
User: usil
Spectrometer: V785-0024
Trigger mode: 0
Integration Time (sec): 4.000000E-1
Scans to average: 1
Nonlinearity correction enabled: false
Boxcar width: 0
Storing dark spectrum: false
XAxis mode: Wavelengths
Number of Pixels in Spectrum: 1024
>>>>>Begin Spectral Data<<<<<
801.071	27165
801.214	27161
801.356	26960
801.499	26796
801.641	26613
801.783	26663
801.926	26629
802.068	26533
802.211	26370
802.353	26377
802.496	26290
802.638	26301
802.78	26100
802.923	26088
803.065	26157
803.208	26157
803.35	26069
803.492	26149
803.635	26237
803.777	26122
803.919	26020
804.061	26412
804.204	26180
804.346	25989
804.488	25974
804.63	25951
804.773	25986
804.915	25936
805.057	26062
805.199	25940
805.341	26142
805.483	26145
805.626	26062
805.768	25951
805.91	26008
806.052	26206
806.194	25997
806.336	26244
806.478	26145
806.62	26031
806.762	26111
806.904	26210
807.046	26488
807.188	26225
807.33	26278
807.472	26526
807.614	26324
807.756	26271
807.898	26187
808.04	26168
808.182	26168
808.324	26324
808.465	26195
808.607	26301
808.749	26400
808.891	26621
809.033	26609
809.174	26552
809.316	26370
809.458	26488
809.6	26541
809.741	26522
809.883	26598
810.025	26640
810.166	26682
810.308	26758
810.45	26609
810.591	26537
810.733	26408
810.875	26393
811.016	26336
811.158	26267
811.299	26492
811.441	26469
811.582	26609
811.724	26446
811.865	26400
812.007	26267
812.148	26305
812.29	26313
812.431	26507
812.573	26678
812.714	26823
812.855	26682
812.997	26914
813.138	27024
813.279	26990
813.421	26785
813.562	26864
813.703	26530
813.845	26332
813.986	26103
814.127	26122
814.268	25894
814.41	25830
814.551	25818
814.692	25947
814.833	25826
814.974	25807
815.115	25936
815.256	25689
815.397	25590
815.539	25601
815.68	25578
815.821	25529
815.962	25521
816.103	25567
816.244	25472
816.385	25293
816.526	25209
816.666	25156
816.807	24992
816.948	24970
817.089	25080
817.23	24905
817.371	24856
817.512	25023
817.653	24825
817.793	24920
817.934	24833
818.075	24951
818.216	24901
818.356	24749
818.497	24604
818.638	24521
818.778	24582
818.919	24525
819.06	24669
819.2	24696
819.341	24722
819.481	24734
819.622	24909
819.762	25133
819.903	24996
820.043	24924
820.184	25004
820.324	24833
820.465	24958
820.605	24829
820.746	24924
820.886	24646
821.026	24901
821.167	24757
821.307	24863
821.447	24684
821.588	24738
821.728	24517
821.868	24372
822.008	24209
822.149	24266
822.289	24178
822.429	24018
822.569	23935
822.709	23893
822.849	23585
822.99	23649
823.13	23646
823.27	23627
823.41	23406
823.55	23258
823.69	23334
823.83	23452
823.97	23334
824.11	23117
824.25	23079
824.389	23284
824.529	23269
824.669	23204
824.809	23326
824.949	23277
825.089	23299
825.228	23143
825.368	22987
825.508	23075
825.648	23041
825.787	22984
825.927	22927
826.067	22984
826.206	22942
826.346	22892
826.485	22930
826.625	22980
826.765	22984
826.904	22961
827.044	22691
827.183	22584
827.323	22508
827.462	22702
827.601	22569
827.741	22561
827.88	22607
828.02	22569
828.159	22577
828.298	22634
828.437	22596
828.577	22478
828.716	22641
828.855	22470
828.994	22284
829.134	22318
829.273	22337
829.412	22169
829.551	22215
829.69	22265
829.829	22207
829.968	22363
830.107	22246
830.246	22200
830.385	22177
830.524	22185
830.663	21994
830.802	21930
830.941	21743
831.08	21930
831.219	21899
831.357	21698
831.496	21926
831.635	21736
831.774	21686
831.913	21618
832.051	21561
832.19	21568
832.329	21576
832.467	21553
832.606	21443
832.744	21363
832.883	21268
833.022	21408
833.16	21412
833.299	21591
833.437	21492
833.576	21473
833.714	21340
833.852	21428
833.991	21443
834.129	21485
834.267	21447
834.406	21401
834.544	21412
834.682	21466
834.821	21378
834.959	21500
835.097	21291
835.235	21389
835.373	21386
835.511	21523
835.65	21203
835.788	21245
835.926	21131
836.064	21062
836.202	21116
836.34	21462
836.478	21367
836.615	21256
836.753	21230
836.891	21382
837.029	21336
837.167	21192
837.305	21184
837.443	21195
837.58	21146
837.718	21226
837.856	21127
837.993	21055
838.131	21093
838.269	21001
838.406	20982
838.544	20971
838.681	20750
838.819	20777
838.956	20526
839.094	20537
839.231	20644
839.369	20697
839.506	20838
839.643	20819
839.781	20476
839.918	20530
840.055	20465
840.193	20530
840.33	20381
840.467	20400
840.604	20560
840.742	20804
840.879	20343
841.016	20408
841.153	20446
841.29	20571
841.427	20404
841.564	20446
841.701	20461
841.838	20438
841.975	20343
842.112	20294
842.249	20218
842.385	20157
842.522	20404
842.659	20275
842.796	20050
842.933	20218
843.069	20016
843.206	20016
843.343	20180
843.479	20157
843.616	20065
843.752	19993
843.889	19902
844.025	20012
844.162	19837
844.298	19864
844.435	19887
844.571	19605
844.708	19959
844.844	19909
844.98	19871
845.117	19879
845.253	19887
845.389	19753
845.525	19738
845.661	19757
845.798	19556
845.934	19689
846.07	19556
846.206	19670
846.342	19750
846.478	19544
846.614	19403
846.75	19358
846.886	19308
847.022	19441
847.158	19445
847.294	19346
847.429	19362
847.565	19274
847.701	19552
847.837	19072
847.972	18989
848.108	19164
848.244	19129
848.379	18901
848.515	18886
848.65	18814
848.786	18875
848.921	18859
849.057	19008
849.192	19072
849.328	18856
849.463	18821
849.598	18787
849.734	18810
849.869	18688
850.004	18623
850.14	18673
850.275	18654
850.41	18456
850.545	18506
850.68	18525
850.815	18566
850.95	18521
851.085	18749
851.22	18681
851.355	18555
851.49	18681
851.625	18597
851.76	18563
851.895	18589
852.03	18410
852.165	18673
852.299	18665
852.434	18582
852.569	18604
852.703	18464
852.838	18578
852.973	18665
853.107	18711
853.242	18494
853.376	18460
853.511	18266
853.645	18304
853.78	18559
853.914	18521
854.048	18486
854.183	18418
854.317	18388
854.451	18528
854.585	18433
854.72	18445
854.854	18551
854.988	18251
855.122	18346
855.256	18277
855.39	18369
855.524	18414
855.658	18471
855.792	18407
855.926	18445
856.06	18372
856.194	18513
856.327	18426
856.461	18300
856.595	18391
856.729	18330
856.862	18513
856.996	18448
857.13	18414
857.263	18479
857.397	18532
857.53	18399
857.664	18452
857.797	18429
857.931	18456
858.064	18319
858.197	18517
858.331	18418
858.464	18270
858.597	18338
858.731	18429
858.864	18338
858.997	18159
859.13	18361
859.263	18323
859.396	18372
859.529	18323
859.662	18330
859.795	18155
859.928	18247
860.061	18342
860.194	18365
860.327	18475
860.46	18437
860.592	18399
860.725	18433
860.858	18445
860.99	18388
861.123	18346
861.256	18315
861.388	18285
861.521	18844
861.653	18281
861.786	18110
861.918	18186
862.05	18224
862.183	18357
862.315	18334
862.447	18410
862.58	18372
862.712	18155
862.844	18079
862.976	18140
863.108	18068
863.24	18391
863.372	18064
863.504	17980
863.636	18091
863.768	18155
863.9	17958
864.032	18019
864.164	17901
864.296	17965
864.428	18152
864.559	18034
864.691	18121
864.823	18144
864.954	18064
865.086	18121
865.217	17942
865.349	17863
865.48	17946
865.612	17961
865.743	18015
865.875	18003
866.006	17927
866.137	18034
866.269	18022
866.4	18022
866.531	17950
866.662	17961
866.793	17874
866.924	17878
867.055	18057
867.186	17961
867.317	17950
867.448	17813
867.579	17882
867.71	17916
867.841	17874
867.972	17954
868.103	17882
868.233	17996
868.364	17969
868.495	18038
868.625	18045
868.756	18095
868.886	18060
869.017	18140
869.147	18285
869.278	18323
869.408	18205
869.539	18182
869.669	18228
869.799	18300
869.929	18194
870.06	18205
870.19	18399
870.32	18448
870.45	18429
870.58	18582
870.71	18646
870.84	18589
870.97	18563
871.1	18536
871.23	18673
871.36	18798
871.489	18623
871.619	18661
871.749	18749
871.879	18768
872.008	18886
872.138	18715
872.267	18787
872.397	18768
872.526	18608
872.656	18582
872.785	18688
872.915	18783
873.044	18840
873.173	18878
873.303	18783
873.432	18840
873.561	18897
873.69	18825
873.819	18806
873.948	18852
874.077	18867
874.206	18692
874.335	18776
874.464	19065
874.593	19027
874.722	19076
874.851	19168
874.979	19114
875.108	19152
875.237	19050
875.365	19023
875.494	19069
875.623	19183
875.751	19076
875.88	19164
876.008	19213
876.136	19232
876.265	19480
876.393	19620
876.521	19525
876.65	19582
876.778	19514
876.906	19487
877.034	19422
877.162	19422
877.29	19460
877.418	19487
877.546	19464
877.674	19438
877.802	19476
877.93	19449
878.058	19415
878.185	19346
878.313	19358
878.441	19567
878.568	19324
878.696	19438
878.824	19559
878.951	19499
879.079	19715
879.206	19784
879.333	19628
879.461	19441
879.588	19639
879.715	19651
879.842	19761
879.97	19510
880.097	19358
880.224	19255
880.351	19346
880.478	19304
880.605	19171
880.732	19304
880.859	19590
880.986	19327
881.112	19316
881.239	19289
881.366	19156
881.493	19042
881.619	18916
881.746	18939
881.872	18886
881.999	18920
882.125	18897
882.252	18989
882.378	19023
882.505	19050
882.631	18867
882.757	18738
882.883	18745
883.01	18722
883.136	18658
883.262	18502
883.388	18532
883.514	18715
883.64	18825
883.766	18715
883.892	18506
884.018	18589
884.143	18601
884.269	18787
884.395	18490
884.52	18391
884.646	18395
884.772	18429
884.897	18235
885.023	18342
885.148	18399
885.274	18623
885.399	18445
885.524	18414
885.65	18258
885.775	18380
885.9	18384
886.025	18403
886.15	18448
886.275	18327
886.4	18254
886.525	18429
886.65	18209
886.775	18342
886.9	18479
887.025	18650
887.149	18410
887.274	18228
887.399	18140
887.523	18079
887.648	18102
887.773	18106
887.897	18159
888.021	18190
888.146	17992
888.27	18201
888.395	18243
888.519	18079
888.643	18171
888.767	18129
888.891	18019
889.015	17942
889.139	18015
889.263	17973
889.387	18011
889.511	18117
889.635	18057
889.759	17920
889.883	17950
890.006	17874
890.13	18022
890.254	17893
890.377	17897
890.501	17729
890.624	17691
890.748	17802
890.871	17691
890.995	17474
891.118	17429
891.241	17573
891.364	17535
891.488	17699
891.611	17482
891.734	17676
891.857	17611
891.98	17509
892.103	17570
892.226	17562
892.349	17577
892.471	17391
892.594	17562
892.717	17474
892.839	17391
892.962	17528
893.085	17691
893.207	17433
893.33	17337
893.452	17459
893.575	17509
893.697	17467
893.819	17756
893.941	17707
894.064	17680
894.186	17353
894.308	17387
894.43	17547
894.552	17794
894.674	17756
894.796	17391
894.918	17577
895.04	17573
895.161	17604
895.283	17615
895.405	17497
895.526	17520
895.648	17638
895.769	17577
895.891	17554
896.012	17710
896.134	17615
896.255	17592
896.376	17722
896.498	17566
896.619	17657
896.74	17581
896.861	17729
896.982	17920
897.103	18144
897.224	17958
897.345	17809
897.466	17805
897.587	17798
897.708	18079
897.828	17783
897.949	17874
898.07	17726
898.19	17874
898.311	18072
898.431	17882
898.552	17897
898.672	17840
898.792	17954
898.913	17889
899.033	17798
899.153	17775
899.273	17630
899.393	17566
899.513	17672
899.633	17604
899.753	17573
899.873	17509
899.993	17577
900.113	17573
900.232	17630
900.352	17619
900.472	17490
900.591	17425
900.711	17509
900.83	17368
900.95	17452
901.069	17642
901.189	17490
901.308	17159
901.427	17159
901.546	17200
901.665	17212
901.784	17041
901.904	17041
902.023	16805
902.141	16645
902.26	16592
902.379	16580
902.498	16432
902.617	16550
902.735	16679
902.854	16584
902.973	16531
903.091	16276
903.21	16242
903.328	16303
903.446	16173
903.565	16120
903.683	16211
903.801	16067
903.919	16044
904.038	16116
904.156	15846
904.274	15994
904.392	15812
904.51	15895
904.627	15823
904.745	15964
904.863	15937
904.981	15755
905.098	15504
905.216	15591
905.334	15618
905.451	15580
905.569	15492
905.686	15599
905.803	15507
905.921	15313
906.038	15397
906.155	15359
906.272	15188
906.389	15237
906.506	15123
906.623	15142
906.74	15112
906.857	14826
906.974	14986
907.091	15112
907.208	15165
907.324	15131
907.441	14910
907.557	14777
907.674	14739
907.79	14670
907.907	14716
908.023	14823
908.139	14724
908.256	14632
908.372	14663
908.488	14648
908.604	14446
908.72	14400
908.836	14537
908.952	14396
909.068	14484
909.184	14549
909.3	14518
909.415	14537
909.531	14415
909.647	14202
909.762	14210
909.878	14138
909.993	14183
910.108	14187
910.224	14252
910.339	14161
910.454	14054
910.57	14024
910.685	13955
910.8	14168
910.915	14172
911.03	13989
911.145	13890
911.259	13769
911.374	13845
911.489	13719
911.604	13712
911.718	13510
911.833	13670
911.947	13594
912.062	13392
912.176	13601
912.291	13605
912.405	13681
912.519	13765
912.633	13757
912.748	13628
912.862	13514
912.976	13324
913.09	13312
913.204	13365
913.318	13415
913.431	13422
913.545	13445
913.659	13578
913.772	13362
913.886	13263
914	13274
914.113	13403
914.226	13449
914.34	13369
914.453	13198
914.566	13236
914.68	13152
914.793	13175
914.906	13004
915.019	12833
915.132	12810
915.245	12909
915.358	12935
915.47	12962
915.583	12913
915.696	12996
915.809	13069
915.921	13110
916.034	12958
916.146	12886
916.259	12798
916.371	12882
916.483	12935
916.595	12810
916.708	12730
916.82	12867
916.932	12810
917.044	12810
917.156	12840
917.268	12673
917.38	12734
917.491	12635
917.603	12696
917.715	12662
917.826	12753
917.938	12631
918.049	12467
918.161	12642
918.272	12738
918.384	12722
918.495	12589
918.606	12437
918.717	12403
918.828	12475
918.939	12467
919.05	12467
919.161	12350
919.272	12266
919.383	12334
919.494	12418
919.604	12650
919.715	12479
919.826	12311
919.936	12266
920.047	12433
920.157	12407
920.267	12559
920.378	12414
920.488	12414
920.598	12547
920.708	12753
920.818	12582
920.928	12521
921.038	12650
921.148	12669
921.258	12410
921.368	12334
921.477	12190
921.587	12133
921.697	11992
921.806	12247
921.916	12026
922.025	11851
922.134	11859
922.244	11771
922.353	11920
922.462	11657
922.571	11756
922.68	11516
922.789	11551
922.898	11642
923.007	11395
923.116	11551
923.224	11516
923.333	11467
923.442	11337
923.55	11303
923.659	11296
923.767	11444
923.876	11326
923.984	11353
924.092	11250
924.201	11318
924.309	11353
924.417	11402
924.525	11284
924.633	11280
924.741	12216
924.849	11056
924.956	11220
925.064	11083
925.172	10900
925.279	11014
925.387	11056
925.494	11048
925.602	11113
925.709	11136
925.816	10927
925.924	11083
926.031	11045
926.138	11067
926.245	11064
926.352	10949
926.459	11117
926.566	11075
926.673	10953
926.779	10774
926.886	10866
926.993	10645
927.099	10721
927.206	10668
927.312	10607
927.419	10740
927.525	10668
927.631	10782
927.737	10660
927.843	10561
927.95	10519
928.056	10538
928.162	10497
928.267	10565
928.373	11178
928.479	10630
928.585	10367
928.69	10500
928.796	10535
928.901	10508
929.007	10295
929.112	10322
929.218	10344
929.323	10348
929.428	10219
929.533	10405
929.638	10272
929.743	10306
929.848	10280
929.953	10185
930.058	10177
930.163	10055
930.267	10040
930.372	10188
930.477	10025
930.581	10188
930.685	10048
930.79	9892
930.894	9937
930.998	9876
931.103	10048
931.207	9667
931.311	9603
931.415	9481
931.519	9370
931.623	9272
