Data from test_V78500241_1424.txt Node
Date: Fri Mar 25 15:51:39 CST 2022
User: usil
Spectrometer: V785-0024
Trigger mode: 0
Integration Time (sec): 4.000000E-1
Scans to average: 1
Nonlinearity correction enabled: false
Boxcar width: 0
Storing dark spectrum: false
XAxis mode: Wavelengths
Number of Pixels in Spectrum: 1024
>>>>>Begin Spectral Data<<<<<
801.071	28394
801.214	28329
801.356	28086
801.499	27975
801.641	27964
801.783	28017
801.926	27945
802.068	27960
802.211	27831
802.353	27823
802.496	27766
802.638	27507
802.78	27511
802.923	27568
803.065	27469
803.208	27420
803.35	27656
803.492	27675
803.635	27747
803.777	27717
803.919	27914
804.061	28177
804.204	27949
804.346	27903
804.488	27770
804.63	27835
804.773	27732
804.915	27895
805.057	28101
805.199	27934
805.341	27956
805.483	28040
805.626	28093
805.768	27964
805.91	28112
806.052	28029
806.194	27922
806.336	28177
806.478	27998
806.62	27960
806.762	28070
806.904	28280
807.046	28451
807.188	28481
807.33	28344
807.472	28592
807.614	28299
807.756	28466
807.898	28394
808.04	28226
808.182	28238
808.324	28287
808.465	28500
808.607	28527
808.749	28615
808.891	28656
809.033	28888
809.174	28782
809.316	28535
809.458	28672
809.6	28816
809.741	28763
809.883	28691
810.025	29025
810.166	28908
810.308	28984
810.45	28942
810.591	28896
810.733	28622
810.875	28637
811.016	28618
811.158	28516
811.299	28759
811.441	28911
811.582	28797
811.724	28588
811.865	28744
812.007	28561
812.148	28660
812.29	28687
812.431	28854
812.573	29025
812.714	29178
812.855	29303
812.997	29208
813.138	29383
813.279	29311
813.421	29269
813.562	29083
813.703	28965
813.845	28888
813.986	28694
814.127	28341
814.268	28443
814.41	28447
814.551	28447
814.692	28493
814.833	28386
814.974	28337
815.115	28493
815.256	28272
815.397	28226
815.539	28246
815.68	28067
815.821	28090
815.962	28284
816.103	28200
816.244	27941
816.385	27983
816.526	28055
816.666	27698
816.807	27622
816.948	27675
817.089	27827
817.23	27667
817.371	27686
817.512	27743
817.653	27641
817.793	27728
817.934	27698
818.075	27728
818.216	27671
818.356	27648
818.497	27439
818.638	27386
818.778	27325
818.919	27553
819.06	27549
819.2	27538
819.341	27751
819.481	27759
819.622	27865
819.762	28002
819.903	27941
820.043	27838
820.184	27770
820.324	27774
820.465	27880
820.605	27850
820.746	27895
820.886	27732
821.026	27713
821.167	27724
821.307	27812
821.447	27713
821.588	27564
821.728	27530
821.868	27431
822.008	27313
822.149	27211
822.289	27116
822.429	26960
822.569	26910
822.709	26864
822.849	26682
822.99	26716
823.13	26701
823.27	26590
823.41	26427
823.55	26453
823.69	26412
823.83	26419
823.97	26511
824.11	26278
824.25	26275
824.389	26473
824.529	26385
824.669	26305
824.809	26537
824.949	26438
825.089	26488
825.228	26305
825.368	26339
825.508	26107
825.648	26134
825.787	26145
825.927	26263
826.067	26343
826.206	26218
826.346	26229
826.485	26240
826.625	26103
826.765	26248
826.904	26191
827.044	25921
827.183	26065
827.323	25928
827.462	26046
827.601	25963
827.741	25780
827.88	25883
828.02	25734
828.159	25856
828.298	25814
828.437	25982
828.577	25830
828.716	26103
828.855	25780
828.994	25685
829.134	25533
829.273	25628
829.412	25655
829.551	25594
829.69	25563
829.829	25548
829.968	25674
830.107	25632
830.246	25753
830.385	25468
830.524	25438
830.663	25476
830.802	25377
830.941	25156
831.08	25091
831.219	25259
831.357	25419
831.496	25274
831.635	25244
831.774	25084
831.913	25061
832.051	25069
832.19	24939
832.329	24943
832.467	24875
832.606	24787
832.744	24840
832.883	25023
833.022	24867
833.16	24916
833.299	24863
833.437	24878
833.576	24966
833.714	24886
833.852	24867
833.991	24996
834.129	25053
834.267	25034
834.406	24932
834.544	25069
834.682	25069
834.821	24840
834.959	24962
835.097	24882
835.235	25027
835.373	24871
835.511	24878
835.65	24840
835.788	24844
835.926	24776
836.064	24642
836.202	24593
836.34	24776
836.478	24859
836.615	24802
836.753	24810
836.891	24901
837.029	24829
837.167	24692
837.305	24669
837.443	24604
837.58	24551
837.718	24654
837.856	24582
837.993	24494
838.131	24673
838.269	24422
838.406	24490
838.544	24505
838.681	24327
838.819	24350
838.956	23992
839.094	24018
839.231	24087
839.369	24270
839.506	24422
839.643	24262
839.781	24041
839.918	23973
840.055	24216
840.193	24011
840.33	24022
840.467	23935
840.604	24053
840.742	24224
840.879	23885
841.016	23889
841.153	23798
841.29	24076
841.427	23920
841.564	23882
841.701	23988
841.838	23863
841.975	23893
842.112	23950
842.249	23889
842.385	23847
842.522	23931
842.659	23893
842.796	23737
842.933	23722
843.069	23885
843.206	23695
843.343	23786
843.479	23691
843.616	23714
843.752	23528
843.889	23482
844.025	23672
844.162	23551
844.298	23562
844.435	23486
844.571	23421
844.708	23653
844.844	23638
844.98	23638
845.117	23615
845.253	23528
845.389	23330
845.525	23364
845.661	23429
845.798	23159
845.934	23220
846.07	23288
846.206	23246
846.342	23395
846.478	23258
846.614	23067
846.75	22869
846.886	22991
847.022	23022
847.158	23117
847.294	22934
847.429	22923
847.565	23022
847.701	23265
847.837	22584
847.972	22698
848.108	22801
848.244	22843
848.379	22577
848.515	22405
848.65	22379
848.786	22451
848.921	22565
849.057	22626
849.192	22683
849.328	22497
849.463	22561
849.598	22660
849.734	22421
849.869	22322
850.004	22303
850.14	22352
850.275	22356
850.41	22173
850.545	22299
850.68	22272
850.815	22253
850.95	22333
851.085	22436
851.22	22333
851.355	22280
851.49	22226
851.625	22253
851.76	22287
851.895	22253
852.03	22215
852.165	22341
852.299	22363
852.434	22329
852.569	22299
852.703	22261
852.838	22230
852.973	22367
853.107	22386
853.242	22230
853.376	22185
853.511	22032
853.645	22097
853.78	22230
853.914	22192
854.048	22116
854.183	22166
854.317	22295
854.451	22200
854.585	22131
854.72	22173
854.854	22261
854.988	22086
855.122	22086
855.256	21956
855.39	22044
855.524	22063
855.658	22154
855.792	22063
855.926	22158
856.06	22154
856.194	22162
856.327	22090
856.461	22059
856.595	22082
856.729	22169
856.862	22261
856.996	22162
857.13	22192
857.263	22341
857.397	22112
857.53	22070
857.664	22192
857.797	22162
857.931	22242
858.064	22177
858.197	22166
858.331	22082
858.464	22025
858.597	21930
858.731	21987
858.864	22120
858.997	22158
859.13	22002
859.263	22029
859.396	22284
859.529	21937
859.662	22143
859.795	22124
859.928	22097
860.061	22310
860.194	22356
860.327	22158
860.46	22196
860.592	22200
860.725	22280
860.858	22314
860.99	22044
861.123	21987
861.256	22109
861.388	22055
861.521	22752
861.653	22097
861.786	21911
861.918	21930
862.05	21922
862.183	21956
862.315	22036
862.447	21979
862.58	22059
862.712	21934
862.844	21717
862.976	21800
863.108	21934
863.24	22390
863.372	21690
863.504	21846
863.636	21823
863.768	21937
863.9	21899
864.032	21732
864.164	21835
864.296	21873
864.428	21865
864.559	21895
864.691	21808
864.823	21884
864.954	21884
865.086	21778
865.217	21675
865.349	21591
865.48	21606
865.612	21732
865.743	21812
865.875	21667
866.006	21713
866.137	21709
866.269	21732
866.4	21679
866.531	21660
866.662	21698
866.793	21530
866.924	21637
867.055	21572
867.186	21637
867.317	21644
867.448	21481
867.579	21705
867.71	21511
867.841	21663
867.972	21701
868.103	21625
868.233	21660
868.364	21610
868.495	21778
868.625	21774
868.756	21968
868.886	21926
869.017	22040
869.147	22006
869.278	21979
869.408	21922
869.539	21911
869.669	21888
869.799	22055
869.929	21998
870.06	21949
870.19	22200
870.32	22067
870.45	22371
870.58	22257
870.71	22386
870.84	22348
870.97	22280
871.1	22265
871.23	22455
871.36	22443
871.489	22379
871.619	22500
871.749	22375
871.879	22561
872.008	22596
872.138	22470
872.267	22626
872.397	22402
872.526	22386
872.656	22272
872.785	22379
872.915	22596
873.044	22630
873.173	22535
873.303	22504
873.432	22599
873.561	22485
873.69	22519
873.819	22489
873.948	22683
874.077	22481
874.206	22519
874.335	22481
874.464	22672
874.593	22778
874.722	22710
874.851	22755
874.979	22626
875.108	22911
875.237	22717
875.365	22615
875.494	22778
875.623	22748
875.751	22622
875.88	22729
876.008	22843
876.136	23044
876.265	23235
876.393	23235
876.521	23273
876.65	23098
876.778	23166
876.906	23086
877.034	23189
877.162	23029
877.29	23022
877.418	23037
877.546	23064
877.674	22995
877.802	23075
877.93	23208
878.058	23041
878.185	22961
878.313	22965
878.441	23162
878.568	22824
878.696	22949
878.824	23132
878.951	23216
879.079	23143
879.206	23417
879.333	23284
879.461	23064
879.588	23239
879.715	23269
879.842	23303
879.97	23121
880.097	22949
880.224	22869
880.351	22866
880.478	22896
880.605	22965
880.732	22930
880.859	23132
880.986	22980
881.112	22881
881.239	22805
881.366	22637
881.493	22489
881.619	22470
881.746	22379
881.872	22481
881.999	22474
882.125	22352
882.252	22478
882.378	22382
882.505	22489
882.631	22367
882.757	22196
882.883	22207
883.01	22173
883.136	22200
883.262	22044
883.388	22017
883.514	22226
883.64	22169
883.766	22082
883.892	21968
884.018	21983
884.143	22128
884.269	22150
884.395	21941
884.52	21865
884.646	21728
884.772	21652
884.897	21720
885.023	21827
885.148	21816
885.274	21800
885.399	21873
885.524	21770
885.65	21888
885.775	21827
885.9	21690
886.025	21918
886.15	21800
886.275	21873
886.4	21648
886.525	21831
886.65	21747
886.775	21671
886.9	21873
887.025	21926
887.149	21660
887.274	21538
887.399	21625
887.523	21519
887.648	21587
887.773	21462
887.897	21587
888.021	21572
888.146	21336
888.27	21496
888.395	21720
888.519	21603
888.643	21507
888.767	21561
888.891	21507
889.015	21313
889.139	21424
889.263	21294
889.387	21412
889.511	21526
889.635	21485
889.759	21359
889.883	21363
890.006	21450
890.13	21374
890.254	21283
890.377	21192
890.501	21161
890.624	20975
890.748	21096
890.871	20975
890.995	20899
891.118	20872
891.241	20971
891.364	20796
891.488	20998
891.611	20823
891.734	20899
891.857	20990
891.98	20921
892.103	21055
892.226	20861
892.349	20845
892.471	20716
892.594	20819
892.717	20861
892.839	20674
892.962	20705
893.085	20887
893.207	20823
893.33	20739
893.452	20716
893.575	20845
893.697	20739
893.819	20971
893.941	20948
894.064	21036
894.186	20648
894.308	20739
894.43	20838
894.552	20883
894.674	20823
894.796	20636
894.918	20712
895.04	20712
895.161	20830
895.283	20731
895.405	20804
895.526	20792
895.648	20769
895.769	20842
895.891	20697
896.012	20944
896.134	20838
896.255	20724
896.376	20807
896.498	20788
896.619	20868
896.74	20731
896.861	20765
896.982	21024
897.103	21260
897.224	21043
897.345	20944
897.466	20963
897.587	21047
897.708	21074
897.828	21081
897.949	20868
898.07	20853
898.19	20960
898.311	20986
898.431	20948
898.552	20982
898.672	21138
898.792	21192
898.913	20979
899.033	20876
899.153	20701
899.273	20617
899.393	20705
899.513	20788
899.633	20735
899.753	20765
899.873	20651
899.993	20765
900.113	20651
900.232	20644
900.352	20598
900.472	20625
900.591	20484
900.711	20492
900.83	20347
900.95	20511
901.069	20697
901.189	20332
901.308	20130
901.427	20126
901.546	20050
901.665	20081
901.784	20119
901.904	19887
902.023	19788
902.141	19590
902.26	19666
902.379	19655
902.498	19594
902.617	19590
902.735	19590
902.854	19521
902.973	19373
903.091	19171
903.21	19236
903.328	19213
903.446	19194
903.565	18939
903.683	19000
903.801	18966
903.919	18916
904.038	18871
904.156	18848
904.274	18833
904.392	18738
904.51	18795
904.627	18639
904.745	18859
904.863	18719
904.981	18532
905.098	18460
905.216	18426
905.334	18486
905.451	18395
905.569	18330
905.686	18456
905.803	18327
905.921	18292
906.038	18350
906.155	18254
906.272	18251
906.389	18087
906.506	18022
906.623	18030
906.74	17984
906.857	17798
906.974	17927
907.091	18049
907.208	18015
907.324	17992
907.441	17813
907.557	17722
907.674	17714
907.79	17589
907.907	17672
908.023	17722
908.139	17661
908.256	17764
908.372	17581
908.488	17573
908.604	17379
908.72	17444
908.836	17334
908.952	17303
909.068	17402
909.184	17471
909.3	17391
909.415	17497
909.531	17376
909.647	17212
909.762	17174
909.878	17086
909.993	17090
910.108	17060
910.224	17067
910.339	17174
910.454	16984
910.57	16866
910.685	16896
910.8	17117
910.915	17052
911.03	16923
911.145	16725
911.259	16706
911.374	16736
911.489	16645
911.604	16622
911.718	16478
911.833	16508
911.947	16466
912.062	16249
912.176	16466
912.291	16596
912.405	16481
912.519	16622
912.633	16653
912.748	16428
912.862	16474
912.976	16211
913.09	16188
913.204	16310
913.318	16249
913.431	16272
913.545	16352
913.659	16352
913.772	16234
913.886	16086
914	16029
914.113	16143
914.226	16207
914.34	16166
914.453	16074
914.566	16135
914.68	15934
914.793	15869
914.906	15717
915.019	15622
915.132	15519
915.245	15637
915.358	15667
915.47	15644
915.583	15736
915.696	15610
915.809	15705
915.921	15781
916.034	15580
916.146	15530
916.259	15526
916.371	15633
916.483	15564
916.595	15458
916.708	15405
916.82	15519
916.932	15557
917.044	15397
917.156	15420
917.268	15237
917.38	15321
917.491	15283
917.603	15294
917.715	15363
917.826	15420
917.938	15260
918.049	15116
918.161	15161
918.272	15363
918.384	15386
918.495	15169
918.606	15192
918.717	14944
918.828	15081
918.939	15043
919.05	14914
919.161	14990
919.272	14754
919.383	14910
919.494	15001
919.604	15237
919.715	15013
919.826	14941
919.936	14925
920.047	15100
920.157	15055
920.267	15150
920.378	14918
920.488	15032
920.598	15081
920.708	15291
920.818	15138
920.928	15146
921.038	15283
921.148	15226
921.258	14925
921.368	14754
921.477	14777
921.587	14731
921.697	14594
921.806	14648
921.916	14610
922.025	14522
922.134	14408
922.244	14328
922.353	14355
922.462	14142
922.571	14145
922.68	14046
922.789	13947
922.898	13940
923.007	13970
923.116	14065
923.224	13898
923.333	13947
923.442	13742
923.55	13750
923.659	13780
923.767	13852
923.876	13731
923.984	13951
924.092	13780
924.201	13666
924.309	13677
924.417	13780
924.525	13506
924.633	13689
924.741	14457
924.849	13460
924.956	13556
925.064	13384
925.172	13343
925.279	13282
925.387	13449
925.494	13464
925.602	13468
925.709	13354
925.816	13225
925.924	13373
926.031	13476
926.138	13327
926.245	13483
926.352	13270
926.459	13312
926.566	13312
926.673	13255
926.779	13122
926.886	13156
926.993	13061
927.099	12993
927.206	12943
927.312	12981
927.419	12977
927.525	12859
927.631	12920
927.737	12852
927.843	12821
927.95	12684
928.056	12798
928.162	12715
928.267	12798
928.373	13377
928.479	12753
928.585	12551
928.69	12692
928.796	12669
928.901	12616
929.007	12460
929.112	12566
929.218	12597
929.323	12517
929.428	12490
929.533	12422
929.638	12403
929.743	12418
929.848	12388
929.953	12399
930.058	12315
930.163	12148
930.267	12186
930.372	12239
930.477	12110
930.581	12285
930.685	12159
930.79	12049
930.894	12007
930.998	11988
931.103	12159
931.207	11703
931.311	11665
931.415	11657
931.519	11326
931.623	11303
