Data from test_V78500241_3026.txt Node
Date: Fri Mar 25 16:02:45 CST 2022
User: usil
Spectrometer: V785-0024
Trigger mode: 0
Integration Time (sec): 4.000000E-1
Scans to average: 1
Nonlinearity correction enabled: false
Boxcar width: 0
Storing dark spectrum: false
XAxis mode: Wavelengths
Number of Pixels in Spectrum: 1024
>>>>>Begin Spectral Data<<<<<
801.071	28478
801.214	28386
801.356	28230
801.499	28329
801.641	28128
801.783	28093
801.926	28188
802.068	28143
802.211	28006
802.353	28185
802.496	27819
802.638	27861
802.78	27808
802.923	27717
803.065	27713
803.208	27751
803.35	27838
803.492	27918
803.635	28017
803.777	28010
803.919	28078
804.061	28367
804.204	28109
804.346	27968
804.488	27968
804.63	28093
804.773	27987
804.915	27987
805.057	28211
805.199	28097
805.341	28173
805.483	28207
805.626	28234
805.768	28025
805.91	28234
806.052	28295
806.194	28135
806.336	28405
806.478	28181
806.62	28219
806.762	28360
806.904	28535
807.046	28748
807.188	28702
807.33	28786
807.472	28888
807.614	28645
807.756	28641
807.898	28481
808.04	28489
808.182	28512
808.324	28504
808.465	28630
808.607	28725
808.749	28991
808.891	28949
809.033	29075
809.174	29033
809.316	28900
809.458	28881
809.6	28679
809.741	28953
809.883	28942
810.025	29204
810.166	29181
810.308	29079
810.45	29166
810.591	28999
810.733	28885
810.875	28968
811.016	28763
811.158	28820
811.299	28965
811.441	29102
811.582	28991
811.724	28877
811.865	28778
812.007	28991
812.148	28911
812.29	28847
812.431	29090
812.573	29193
812.714	29364
812.855	29501
812.997	29524
813.138	29722
813.279	29528
813.421	29585
813.562	29429
813.703	29258
813.845	29265
813.986	28938
814.127	28618
814.268	28516
814.41	28729
814.551	28653
814.692	28626
814.833	28630
814.974	28481
815.115	28668
815.256	28603
815.397	28500
815.539	28489
815.68	28523
815.821	28382
815.962	28489
816.103	28470
816.244	28268
816.385	28367
816.526	28265
816.666	27975
816.807	27747
816.948	28006
817.089	27945
817.23	27994
817.371	27861
817.512	27827
817.653	27857
817.793	27873
817.934	27899
818.075	27991
818.216	27888
818.356	27827
818.497	27755
818.638	27603
818.778	27641
818.919	27713
819.06	27831
819.2	27804
819.341	27823
819.481	28017
819.622	28090
819.762	28413
819.903	28249
820.043	28188
820.184	28048
820.324	28032
820.465	28078
820.605	28135
820.746	27991
820.886	27838
821.026	28002
821.167	27972
821.307	28135
821.447	27960
821.588	27720
821.728	27717
821.868	27515
822.008	27519
822.149	27439
822.289	27389
822.429	27176
822.569	27062
822.709	27146
822.849	26845
822.99	26979
823.13	26876
823.27	26834
823.41	26746
823.55	26575
823.69	26769
823.83	26781
823.97	26693
824.11	26560
824.25	26533
824.389	26541
824.529	26613
824.669	26670
824.809	26712
824.949	26571
825.089	26522
825.228	26503
825.368	26347
825.508	26442
825.648	26484
825.787	26298
825.927	26434
826.067	26431
826.206	26499
826.346	26393
826.485	26556
826.625	26442
826.765	26609
826.904	26556
827.044	26252
827.183	26206
827.323	26248
827.462	26275
827.601	26218
827.741	26084
827.88	26138
828.02	26081
828.159	26263
828.298	26244
828.437	26385
828.577	26020
828.716	26313
828.855	26065
828.994	25864
829.134	25788
829.273	25788
829.412	25799
829.551	25841
829.69	25811
829.829	25818
829.968	25925
830.107	25860
830.246	25841
830.385	25750
830.524	25765
830.663	25670
830.802	25525
830.941	25411
831.08	25540
831.219	25491
831.357	25552
831.496	25719
831.635	25491
831.774	25552
831.913	25430
832.051	25354
832.19	25285
832.329	25304
832.467	25213
832.606	25168
832.744	24989
832.883	25213
833.022	25118
833.16	25084
833.299	25183
833.437	25145
833.576	25240
833.714	25297
833.852	25225
833.991	25285
834.129	25312
834.267	25259
834.406	25198
834.544	25362
834.682	25244
834.821	25145
834.959	25457
835.097	25152
835.235	25232
835.373	25335
835.511	25183
835.65	25171
835.788	25107
835.926	24966
836.064	24772
836.202	24852
836.34	24977
836.478	25206
836.615	24996
836.753	25145
836.891	25114
837.029	25053
837.167	25069
837.305	24882
837.443	24852
837.58	24875
837.718	24973
837.856	24913
837.993	24817
838.131	24932
838.269	24817
838.406	24825
838.544	24745
838.681	24578
838.819	24570
838.956	24277
839.094	24380
839.231	24414
839.369	24490
839.506	24741
839.643	24563
839.781	24289
839.918	24277
840.055	24323
840.193	24391
840.33	24289
840.467	24338
840.604	24155
840.742	24445
840.879	24117
841.016	24125
841.153	24152
841.29	24300
841.427	24228
841.564	24300
841.701	24315
841.838	24148
841.975	24174
842.112	24015
842.249	24148
842.385	23977
842.522	24327
842.659	24079
842.796	24091
842.933	23954
843.069	23946
843.206	23931
843.343	24015
843.479	24018
843.616	23939
843.752	23843
843.889	23874
844.025	23904
844.162	23737
844.298	23916
844.435	23805
844.571	23828
844.708	23817
844.844	23870
844.98	23950
845.117	23786
845.253	23646
845.389	23676
845.525	23630
845.661	23615
845.798	23509
845.934	23570
846.07	23425
846.206	23547
846.342	23562
846.478	23501
846.614	23326
846.75	23250
846.886	23181
847.022	23193
847.158	23315
847.294	23277
847.429	23208
847.565	23303
847.701	23391
847.837	22968
847.972	22824
848.108	23189
848.244	22968
848.379	22828
848.515	22839
848.65	22691
848.786	22919
848.921	22915
849.057	23048
849.192	22908
849.328	22721
849.463	22847
849.598	22797
849.734	22805
849.869	22668
850.004	22702
850.14	22516
850.275	22698
850.41	22634
850.545	22592
850.68	22607
850.815	22649
850.95	22611
851.085	22717
851.22	22660
851.355	22675
851.49	22459
851.625	22481
851.76	22531
851.895	22485
852.03	22603
852.165	22710
852.299	22569
852.434	22611
852.569	22668
852.703	22611
852.838	22748
852.973	22736
853.107	22809
853.242	22584
853.376	22462
853.511	22272
853.645	22405
853.78	22417
853.914	22413
854.048	22344
854.183	22516
854.317	22493
854.451	22546
854.585	22451
854.72	22402
854.854	22504
854.988	22379
855.122	22489
855.256	22295
855.39	22417
855.524	22428
855.658	22508
855.792	22500
855.926	22478
856.06	22440
856.194	22512
856.327	22398
856.461	22280
856.595	22352
856.729	22474
856.862	22554
856.996	22504
857.13	22382
857.263	22592
857.397	22523
857.53	22363
857.664	22489
857.797	22516
857.931	22573
858.064	22402
858.197	22527
858.331	22329
858.464	22440
858.597	22318
858.731	22466
858.864	22352
858.997	22363
859.13	22478
859.263	22382
859.396	22443
859.529	22390
859.662	22424
859.795	22303
859.928	22417
860.061	22584
860.194	22508
860.327	22462
860.46	22390
860.592	22634
860.725	22546
860.858	22565
860.99	22504
861.123	22306
861.256	22390
861.388	22386
861.521	23330
861.653	22249
861.786	22215
861.918	22295
862.05	22333
862.183	22413
862.315	22474
862.447	22451
862.58	22455
862.712	22135
862.844	22070
862.976	22196
863.108	22272
863.24	22550
863.372	22017
863.504	22185
863.636	22128
863.768	22166
863.9	22101
864.032	22128
864.164	22063
864.296	22101
864.428	22181
864.559	22090
864.691	22211
864.823	22147
864.954	22082
865.086	22006
865.217	22147
865.349	21994
865.48	22082
865.612	21987
865.743	22135
865.875	22032
866.006	22010
866.137	21907
866.269	21998
866.4	22143
866.531	22036
866.662	21998
866.793	21972
866.924	21873
867.055	22006
867.186	21953
867.317	21797
867.448	21880
867.579	21903
867.71	21766
867.841	21793
867.972	22002
868.103	21956
868.233	22029
868.364	21934
868.495	21972
868.625	22101
868.756	22268
868.886	22036
869.017	22181
869.147	22261
869.278	22356
869.408	22169
869.539	22230
869.669	22219
869.799	22166
869.929	22219
870.06	22322
870.19	22428
870.32	22421
870.45	22527
870.58	22634
870.71	22546
870.84	22607
870.97	22618
871.1	22645
871.23	22778
871.36	22744
871.489	22729
871.619	22774
871.749	22733
871.879	22824
872.008	22930
872.138	22930
872.267	22698
872.397	22877
872.526	22630
872.656	22679
872.785	22733
872.915	22774
873.044	22786
873.173	22763
873.303	22877
873.432	22797
873.561	22953
873.69	22854
873.819	22790
873.948	22877
874.077	22847
874.206	22755
874.335	22793
874.464	22778
874.593	22991
874.722	22968
874.851	23033
874.979	22930
875.108	23018
875.237	22987
875.365	22904
875.494	22995
875.623	23079
875.751	22790
875.88	22984
876.008	23200
876.136	23212
876.265	23376
876.393	23585
876.521	23600
876.65	23448
876.778	23299
876.906	23303
877.034	23254
877.162	23383
877.29	23292
877.418	23288
877.546	23436
877.674	23349
877.802	23277
877.93	23273
878.058	23288
878.185	23181
878.313	23318
878.441	23353
878.568	23170
878.696	23235
878.824	23318
878.951	23478
879.079	23528
879.206	23657
879.333	23520
879.461	23337
879.588	23436
879.715	23516
879.842	23596
879.97	23360
880.097	23181
880.224	23189
880.351	23216
880.478	23132
880.605	23124
880.732	23235
880.859	23383
880.986	23121
881.112	23258
881.239	23098
881.366	22892
881.493	22816
881.619	22854
881.746	22786
881.872	22748
881.999	22611
882.125	22637
882.252	22831
882.378	22660
882.505	22755
882.631	22588
882.757	22402
882.883	22538
883.01	22443
883.136	22329
883.262	22341
883.388	22295
883.514	22424
883.64	22348
883.766	22337
883.892	22207
884.018	22169
884.143	22367
884.269	22382
884.395	22124
884.52	22059
884.646	22006
884.772	21964
884.897	21956
885.023	22090
885.148	22112
885.274	22284
885.399	22139
885.524	21960
885.65	22059
885.775	22150
885.9	22055
886.025	22101
886.15	22032
886.275	21998
886.4	21968
886.525	22082
886.65	21964
886.775	21979
886.9	22059
887.025	22272
887.149	21945
887.274	21819
887.399	21648
887.523	21857
887.648	21720
887.773	21682
887.897	21797
888.021	21800
888.146	21720
888.27	21838
888.395	21831
888.519	21747
888.643	21808
888.767	21930
888.891	21622
889.015	21542
889.139	21667
889.263	21637
889.387	21679
889.511	21835
889.635	21861
889.759	21572
889.883	21568
890.006	21694
890.13	21660
890.254	21473
890.377	21545
890.501	21348
890.624	21351
890.748	21348
890.871	21192
890.995	21176
891.118	21070
891.241	21214
891.364	21154
891.488	21302
891.611	21142
891.734	21123
891.857	21135
891.98	21169
892.103	21169
892.226	21195
892.349	21062
892.471	20967
892.594	21032
892.717	21116
892.839	21146
892.962	20971
893.085	21138
893.207	21108
893.33	20853
893.452	20960
893.575	21024
893.697	20891
893.819	21161
893.941	21214
894.064	21135
894.186	21013
894.308	20925
894.43	21165
894.552	21066
894.674	21058
894.796	20941
894.918	21051
895.04	20910
895.161	21176
895.283	21085
895.405	20998
895.526	20998
895.648	21036
895.769	21013
895.891	21062
896.012	21085
896.134	21001
896.255	21081
896.376	21066
896.498	21055
896.619	20979
896.74	20998
896.861	21108
896.982	21348
897.103	21477
897.224	21306
897.345	21203
897.466	21214
897.587	21138
897.708	21408
897.828	21249
897.949	21207
898.07	21123
898.19	21138
898.311	21325
898.431	21192
898.552	21100
898.672	21389
898.792	21161
898.913	21336
899.033	21104
899.153	21077
899.273	20925
899.393	20914
899.513	21043
899.633	20929
899.753	20941
899.873	20834
899.993	21055
900.113	20887
900.232	21024
900.352	20777
900.472	20807
900.591	20629
900.711	20727
900.83	20636
900.95	20750
901.069	20811
901.189	20598
901.308	20400
901.427	20221
901.546	20240
901.665	20355
901.784	20290
901.904	20115
902.023	20046
902.141	19868
902.26	19902
902.379	19852
902.498	19814
902.617	19693
902.735	19799
902.854	19814
902.973	19723
903.091	19449
903.21	19419
903.328	19453
903.446	19411
903.565	19289
903.683	19141
903.801	19141
903.919	19148
904.038	19259
904.156	19027
904.274	18993
904.392	19050
904.51	19053
904.627	18928
904.745	19000
904.863	19080
904.981	18734
905.098	18661
905.216	18551
905.334	18646
905.451	18734
905.569	18506
905.686	18715
905.803	18601
905.921	18456
906.038	18544
906.155	18433
906.272	18414
906.389	18464
906.506	18315
906.623	18201
906.74	18292
906.857	18121
906.974	18136
907.091	18167
907.208	18323
907.324	18224
907.441	17980
907.557	17954
907.674	18038
907.79	17832
907.907	17851
908.023	17916
908.139	17908
908.256	17904
908.372	17615
908.488	17783
908.604	17760
908.72	17570
908.836	17577
908.952	17627
909.068	17581
909.184	17665
909.3	17623
909.415	17611
909.531	17649
909.647	17482
909.762	17311
909.878	17292
909.993	17360
910.108	17242
910.224	17296
910.339	17337
910.454	17265
910.57	17052
910.685	17064
910.8	17383
910.915	17235
911.03	17079
911.145	16987
911.259	16923
911.374	16915
911.489	16877
911.604	16675
911.718	16596
911.833	16588
911.947	16565
912.062	16497
912.176	16664
912.291	16675
912.405	16618
912.519	16797
912.633	16683
912.748	16649
912.862	16481
912.976	16466
913.09	16337
913.204	16322
913.318	16497
913.431	16493
913.545	16470
913.659	16558
913.772	16371
913.886	16325
914	16272
914.113	16318
914.226	16360
914.34	16196
914.453	16147
914.566	16306
914.68	16074
914.793	16055
914.906	15922
915.019	15755
915.132	15728
915.245	15793
915.358	15762
915.47	15766
915.583	15762
915.696	15770
915.809	15869
915.921	15907
916.034	15736
916.146	15789
916.259	15660
916.371	15755
916.483	15774
916.595	15675
916.708	15622
916.82	15637
916.932	15576
917.044	15660
917.156	15526
917.268	15481
917.38	15488
917.491	15435
917.603	15462
917.715	15564
917.826	15492
917.938	15367
918.049	15313
918.161	15435
918.272	15416
918.384	15488
918.495	15340
918.606	15222
918.717	15222
918.828	15157
918.939	15340
919.05	15085
919.161	15131
919.272	14975
919.383	15024
919.494	15089
919.604	15329
919.715	15142
919.826	15214
919.936	15169
920.047	15256
920.157	15150
920.267	15279
920.378	15184
920.488	15214
920.598	15329
920.708	15386
920.818	15249
920.928	15218
921.038	15355
921.148	15344
921.258	15150
921.368	14834
921.477	14902
921.587	14906
921.697	14670
921.806	14842
921.916	14712
922.025	14678
922.134	14484
922.244	14381
922.353	14511
922.462	14324
922.571	14339
922.68	14172
922.789	14035
922.898	14111
923.007	14039
923.116	14149
923.224	14164
923.333	14138
923.442	14046
923.55	13909
923.659	13898
923.767	14035
923.876	13887
923.984	13974
924.092	13788
924.201	13909
924.309	13772
924.417	13868
924.525	13788
924.633	13830
924.741	14545
924.849	13594
924.956	13666
925.064	13632
925.172	13457
925.279	13491
925.387	13556
925.494	13495
925.602	13677
925.709	13578
925.816	13426
925.924	13430
926.031	13495
926.138	13445
926.245	13464
926.352	13472
926.459	13491
926.566	13540
926.673	13396
926.779	13228
926.886	13240
926.993	13213
927.099	13133
927.206	13084
927.312	13076
927.419	13129
927.525	12993
927.631	13099
927.737	12989
927.843	12890
927.95	12726
928.056	12863
928.162	12894
928.267	12970
928.373	13518
928.479	12977
928.585	12639
928.69	12821
928.796	12856
928.901	12692
929.007	12582
929.112	12654
929.218	12719
929.323	12631
929.428	12635
929.533	12715
929.638	12578
929.743	12448
929.848	12536
929.953	12513
930.058	12467
930.163	12213
930.267	12277
930.372	12357
930.477	12220
930.581	12464
930.685	12380
930.79	12163
930.894	12167
930.998	12182
931.103	12277
931.207	11908
931.311	11863
931.415	11729
931.519	11501
931.623	11501
