Data from test_V78500241_1371.txt Node
Date: Fri Mar 25 15:51:17 CST 2022
User: usil
Spectrometer: V785-0024
Trigger mode: 0
Integration Time (sec): 4.000000E-1
Scans to average: 1
Nonlinearity correction enabled: false
Boxcar width: 0
Storing dark spectrum: false
XAxis mode: Wavelengths
Number of Pixels in Spectrum: 1024
>>>>>Begin Spectral Data<<<<<
801.071	28284
801.214	28158
801.356	28055
801.499	27876
801.641	27789
801.783	27709
801.926	27831
802.068	27812
802.211	27785
802.353	27614
802.496	27511
802.638	27447
802.78	27458
802.923	27504
803.065	27233
803.208	27275
803.35	27443
803.492	27667
803.635	27819
803.777	27488
803.919	27610
804.061	27968
804.204	27625
804.346	27530
804.488	27542
804.63	27580
804.773	27507
804.915	27797
805.057	27656
805.199	27610
805.341	27827
805.483	27812
805.626	27861
805.768	27652
805.91	27713
806.052	27873
806.194	27701
806.336	27914
806.478	27880
806.62	27865
806.762	27922
806.904	28112
807.046	28344
807.188	28390
807.33	28265
807.472	28314
807.614	28139
807.756	28211
807.898	28112
808.04	27953
808.182	28078
808.324	28139
808.465	28120
808.607	28280
808.749	28527
808.891	28603
809.033	28596
809.174	28497
809.316	28405
809.458	28535
809.6	28367
809.741	28504
809.883	28508
810.025	28854
810.166	28828
810.308	28866
810.45	28702
810.591	28538
810.733	28424
810.875	28554
811.016	28295
811.158	28398
811.299	28493
811.441	28592
811.582	28713
811.724	28466
811.865	28314
812.007	28466
812.148	28466
812.29	28493
812.431	28634
812.573	28858
812.714	28934
812.855	28908
812.997	29052
813.138	29185
813.279	29098
813.421	28972
813.562	28987
813.703	28858
813.845	28653
813.986	28440
814.127	28211
814.268	28150
814.41	28158
814.551	28230
814.692	28147
814.833	28120
814.974	28082
815.115	28238
815.256	27975
815.397	28169
815.539	28074
815.68	27987
815.821	28002
815.962	27895
816.103	27895
816.244	27979
816.385	27705
816.526	27656
816.666	27420
816.807	27485
816.948	27637
817.089	27408
817.23	27450
817.371	27424
817.512	27507
817.653	27351
817.793	27408
817.934	27458
818.075	27553
818.216	27393
818.356	27526
818.497	27325
818.638	27173
818.778	27230
818.919	27275
819.06	27256
819.2	27462
819.341	27424
819.481	27614
819.622	27595
819.762	27762
819.903	27762
820.043	27739
820.184	27439
820.324	27644
820.465	27766
820.605	27633
820.746	27542
820.886	27370
821.026	27420
821.167	27580
821.307	27720
821.447	27405
821.588	27519
821.728	27283
821.868	26967
822.008	27138
822.149	26876
822.289	26937
822.429	26507
822.569	26621
822.709	26579
822.849	26530
822.99	26415
823.13	26362
823.27	26415
823.41	26256
823.55	26244
823.69	26267
823.83	26240
823.97	26149
824.11	26050
824.25	26161
824.389	25970
824.529	26130
824.669	26244
824.809	26202
824.949	26225
825.089	26073
825.228	26153
825.368	26062
825.508	26081
825.648	25986
825.787	26035
825.927	25997
826.067	25921
826.206	25928
826.346	26024
826.485	25982
826.625	26366
826.765	26058
826.904	26130
827.044	25761
827.183	25662
827.323	25643
827.462	25757
827.601	25727
827.741	25609
827.88	25719
828.02	25582
828.159	25704
828.298	25689
828.437	25746
828.577	25571
828.716	25742
828.855	25487
828.994	25384
829.134	25339
829.273	25415
829.412	25415
829.551	25266
829.69	25407
829.829	25354
829.968	25518
830.107	25430
830.246	25384
830.385	25308
830.524	25324
830.663	25118
830.802	25042
830.941	24844
831.08	24970
831.219	25076
831.357	25019
831.496	25228
831.635	24901
831.774	24707
831.913	24935
832.051	24768
832.19	24795
832.329	24806
832.467	24608
832.606	24521
832.744	24601
832.883	24601
833.022	24593
833.16	24764
833.299	24593
833.437	24669
833.576	24711
833.714	24757
833.852	24719
833.991	24795
834.129	24772
834.267	24749
834.406	24791
834.544	24783
834.682	24741
834.821	24673
834.959	24844
835.097	24608
835.235	24764
835.373	24726
835.511	24654
835.65	24498
835.788	24467
835.926	24391
836.064	24308
836.202	24391
836.34	24418
836.478	24650
836.615	24532
836.753	24498
836.891	24620
837.029	24490
837.167	24338
837.305	24296
837.443	24418
837.58	24319
837.718	24521
837.856	24323
837.993	24308
838.131	24369
838.269	24292
838.406	24304
838.544	24117
838.681	23992
838.819	23843
838.956	23847
839.094	23840
839.231	23878
839.369	23840
839.506	24205
839.643	24167
839.781	23824
839.918	23885
840.055	23832
840.193	23809
840.33	23840
840.467	23695
840.604	23752
840.742	23999
840.879	23699
841.016	23718
841.153	23551
841.29	23836
841.427	23665
841.564	23840
841.701	23752
841.838	23710
841.975	23771
842.112	23657
842.249	23547
842.385	23402
842.522	23752
842.659	23726
842.796	23604
842.933	23493
843.069	23436
843.206	23581
843.343	23611
843.479	23551
843.616	23524
843.752	23197
843.889	23376
844.025	23337
844.162	23292
844.298	23315
844.435	23162
844.571	23098
844.708	23330
844.844	23402
844.98	23482
845.117	23391
845.253	23117
845.389	23105
845.525	23311
845.661	22991
845.798	22850
845.934	22976
846.07	23025
846.206	22919
846.342	23105
846.478	23018
846.614	22854
846.75	22641
846.886	22580
847.022	22850
847.158	22786
847.294	22763
847.429	22782
847.565	22653
847.701	22942
847.837	22432
847.972	22375
848.108	22535
848.244	22557
848.379	22432
848.515	22344
848.65	22291
848.786	22447
848.921	22318
849.057	22462
849.192	22554
849.328	22386
849.463	22257
849.598	22230
849.734	22238
849.869	22158
850.004	22074
850.14	22158
850.275	22017
850.41	22097
850.545	22097
850.68	21983
850.815	22078
850.95	22082
851.085	22375
851.22	22158
851.355	22166
851.49	22082
851.625	22055
851.76	22055
851.895	22051
852.03	21987
852.165	22078
852.299	22128
852.434	22112
852.569	22105
852.703	22093
852.838	22185
852.973	22204
853.107	22230
853.242	21991
853.376	21949
853.511	21808
853.645	21903
853.78	21960
853.914	21873
854.048	21873
854.183	21861
854.317	21911
854.451	22135
854.585	21895
854.72	21804
854.854	21972
854.988	21835
855.122	21941
855.256	21850
855.39	21869
855.524	22044
855.658	21854
855.792	21972
855.926	22002
856.06	22055
856.194	21930
856.327	21888
856.461	21812
856.595	21941
856.729	21892
856.862	22036
856.996	21869
857.13	21983
857.263	21987
857.397	21949
857.53	21968
857.664	21915
857.797	22105
857.931	21991
858.064	21994
858.197	21873
858.331	21953
858.464	21842
858.597	21717
858.731	21831
858.864	21850
858.997	21778
859.13	21903
859.263	21922
859.396	21956
859.529	21846
859.662	21838
859.795	21884
859.928	21918
860.061	22112
860.194	22105
860.327	21964
860.46	21743
860.592	22128
860.725	22086
860.858	21918
860.99	21911
861.123	21869
861.256	21899
861.388	21926
861.521	22512
861.653	21793
861.786	21739
861.918	21800
862.05	21774
862.183	21728
862.315	21736
862.447	21869
862.58	21808
862.712	21694
862.844	21405
862.976	21629
863.108	21774
863.24	22147
863.372	21469
863.504	21599
863.636	21671
863.768	21610
863.9	21553
864.032	21606
864.164	21682
864.296	21675
864.428	21766
864.559	21610
864.691	21770
864.823	21610
864.954	21633
865.086	21534
865.217	21450
865.349	21447
865.48	21416
865.612	21473
865.743	21686
865.875	21534
866.006	21466
866.137	21481
866.269	21576
866.4	21424
866.531	21488
866.662	21439
866.793	21530
866.924	21386
867.055	21492
867.186	21530
867.317	21378
867.448	21340
867.579	21287
867.71	21351
867.841	21252
867.972	21500
868.103	21405
868.233	21405
868.364	21329
868.495	21492
868.625	21698
868.756	21743
868.886	21614
869.017	21732
869.147	21770
869.278	21823
869.408	21690
869.539	21728
869.669	21690
869.799	21717
869.929	21892
870.06	21926
870.19	21964
870.32	21911
870.45	22029
870.58	22082
870.71	22181
870.84	22207
870.97	22112
871.1	22074
871.23	22230
871.36	22166
871.489	22154
871.619	22200
871.749	22234
871.879	22207
872.008	22310
872.138	22166
872.267	22291
872.397	22147
872.526	22063
872.656	22059
872.785	22158
872.915	22291
873.044	22470
873.173	22257
873.303	22386
873.432	22333
873.561	22451
873.69	22295
873.819	22314
873.948	22557
874.077	22322
874.206	22272
874.335	22299
874.464	22306
874.593	22527
874.722	22459
874.851	22656
874.979	22535
875.108	22641
875.237	22379
875.365	22405
875.494	22485
875.623	22626
875.751	22550
875.88	22470
876.008	22588
876.136	22725
876.265	22946
876.393	23090
876.521	22980
876.65	22999
876.778	22911
876.906	22793
877.034	22805
877.162	22828
877.29	22725
877.418	22900
877.546	22972
877.674	22980
877.802	22816
877.93	22843
878.058	22725
878.185	22755
878.313	22820
878.441	22778
878.568	22641
878.696	22782
878.824	22915
878.951	23075
879.079	23029
879.206	23181
879.333	23006
879.461	22869
879.588	23025
879.715	22892
879.842	23018
879.97	22995
880.097	22793
880.224	22626
880.351	22698
880.478	22584
880.605	22653
880.732	22774
880.859	22850
880.986	22649
881.112	22786
881.239	22618
881.366	22436
881.493	22253
881.619	22246
881.746	22158
881.872	22295
881.999	22196
882.125	22162
882.252	22249
882.378	22204
882.505	22371
882.631	22055
882.757	21937
882.883	22017
883.01	22002
883.136	22002
883.262	21857
883.388	21778
883.514	21979
883.64	21915
883.766	21835
883.892	21625
884.018	21778
884.143	21953
884.269	21907
884.395	21717
884.52	21587
884.646	21663
884.772	21576
884.897	21424
885.023	21603
885.148	21637
885.274	21633
885.399	21656
885.524	21500
885.65	21553
885.775	21534
885.9	21534
886.025	21778
886.15	21709
886.275	21447
886.4	21515
886.525	21534
886.65	21412
886.775	21431
886.9	21595
887.025	21762
887.149	21572
887.274	21348
887.399	21298
887.523	21355
887.648	21291
887.773	21264
887.897	21359
888.021	21336
888.146	21241
888.27	21477
888.395	21428
888.519	21355
888.643	21359
888.767	21370
888.891	21207
889.015	21131
889.139	21260
889.263	21157
889.387	21135
889.511	21336
889.635	21272
889.759	21199
889.883	21058
890.006	21157
890.13	21264
890.254	21066
890.377	21066
890.501	20796
890.624	20823
890.748	20933
890.871	20686
890.995	20678
891.118	20590
891.241	20788
891.364	20727
891.488	20743
891.611	20735
891.734	20598
891.857	20697
891.98	20762
892.103	20724
892.226	20686
892.349	20625
892.471	20511
892.594	20568
892.717	20575
892.839	20598
892.962	20609
893.085	20560
893.207	20644
893.33	20545
893.452	20473
893.575	20674
893.697	20511
893.819	20750
893.941	20804
894.064	20724
894.186	20488
894.308	20518
894.43	20674
894.552	20705
894.674	20659
894.796	20537
894.918	20594
895.04	20579
895.161	20613
895.283	20636
895.405	20423
895.526	20640
895.648	20507
895.769	20590
895.891	20613
896.012	20674
896.134	20488
896.255	20511
896.376	20537
896.498	20606
896.619	20530
896.74	20526
896.861	20678
896.982	20830
897.103	21036
897.224	20830
897.345	20712
897.466	20796
897.587	20758
897.708	20838
897.828	20887
897.949	20701
898.07	20697
898.19	20739
898.311	20811
898.431	20750
898.552	20845
898.672	20739
898.792	20773
898.913	20777
899.033	20617
899.153	20621
899.273	20450
899.393	20442
899.513	20480
899.633	20450
899.753	20537
899.873	20332
899.993	20651
900.113	20461
900.232	20423
900.352	20393
900.472	20404
900.591	20206
900.711	20210
900.83	20286
900.95	20381
901.069	20248
901.189	20168
901.308	19978
901.427	19833
901.546	19898
901.665	19890
901.784	19909
901.904	19624
902.023	19628
902.141	19419
902.26	19506
902.379	19628
902.498	19430
902.617	19320
902.735	19426
902.854	19358
902.973	19274
903.091	19099
903.21	19000
903.328	19091
903.446	18924
903.565	18707
903.683	18863
903.801	18802
903.919	18810
904.038	18798
904.156	18620
904.274	18711
904.392	18555
904.51	18623
904.627	18559
904.745	18635
904.863	18544
904.981	18429
905.098	18296
905.216	18323
905.334	18262
905.451	18327
905.569	18262
905.686	18319
905.803	18330
905.921	18003
906.038	18224
906.155	18041
906.272	18045
906.389	17969
906.506	17897
906.623	17851
906.74	17726
906.857	17733
906.974	17786
907.091	17832
907.208	17843
907.324	17767
907.441	17703
907.557	17551
907.674	17501
907.79	17398
907.907	17512
908.023	17600
908.139	17543
908.256	17402
908.372	17368
908.488	17417
908.604	17280
908.72	17136
908.836	17220
908.952	17197
909.068	17246
909.184	17341
909.3	17288
909.415	17269
909.531	17402
909.647	16976
909.762	17022
909.878	16850
909.993	16942
910.108	16942
910.224	16839
910.339	16957
910.454	16839
910.57	16740
910.685	16615
910.8	16881
910.915	16869
911.03	16713
911.145	16599
911.259	16497
911.374	16622
911.489	16493
911.604	16440
911.718	16219
911.833	16268
911.947	16219
912.062	16154
912.176	16371
912.291	16367
912.405	16299
912.519	16451
912.633	16459
912.748	16287
912.862	16306
912.976	16196
913.09	15991
913.204	15945
913.318	16036
913.431	16131
913.545	16109
913.659	16135
913.772	16025
913.886	15956
914	15724
914.113	16002
914.226	16036
914.34	15869
914.453	15797
914.566	15869
914.68	15781
914.793	15690
914.906	15614
915.019	15454
915.132	15454
915.245	15420
915.358	15447
915.47	15428
915.583	15477
915.696	15488
915.809	15526
915.921	15625
916.034	15397
916.146	15450
916.259	15367
916.371	15340
916.483	15367
916.595	15374
916.708	15264
916.82	15283
916.932	15226
917.044	15222
917.156	15192
917.268	15062
917.38	15154
917.491	15146
917.603	15135
917.715	15184
917.826	15176
917.938	15127
918.049	14902
918.161	14982
918.272	15157
918.384	15188
918.495	15020
918.606	14883
918.717	14815
918.828	14929
918.939	14880
919.05	14739
919.161	14845
919.272	14663
919.383	14724
919.494	14895
919.604	15214
919.715	14788
919.826	14746
919.936	14819
920.047	14960
920.157	14815
920.267	15020
920.378	14845
920.488	14815
920.598	14872
920.708	15135
920.818	14929
920.928	14990
921.038	15077
921.148	15203
921.258	14800
921.368	14655
921.477	14590
921.587	14545
921.697	14347
921.806	14526
921.916	14275
922.025	14271
922.134	14149
922.244	14100
922.353	14183
922.462	14054
922.571	13925
922.68	13875
922.789	13761
922.898	13818
923.007	13803
923.116	13849
923.224	13871
923.333	13753
923.442	13616
923.55	13597
923.659	13647
923.767	13738
923.876	13556
923.984	13666
924.092	13483
924.201	13658
924.309	13525
924.417	13518
924.525	13384
924.633	13480
924.741	14404
924.849	13324
924.956	13476
925.064	13293
925.172	13255
925.279	13278
925.387	13285
925.494	13217
925.602	13316
925.709	13285
925.816	13118
925.924	13244
926.031	13251
926.138	13228
926.245	13145
926.352	13095
926.459	13141
926.566	13217
926.673	13084
926.779	12970
926.886	12970
926.993	12726
927.099	12829
927.206	12715
927.312	12764
927.419	12791
927.525	12745
927.631	12821
927.737	12738
927.843	12669
927.95	12494
928.056	12521
928.162	12635
928.267	12612
928.373	13274
928.479	12707
928.585	12456
928.69	12547
928.796	12521
928.901	12422
929.007	12315
929.112	12555
929.218	12433
929.323	12380
929.428	12338
929.533	12361
929.638	12273
929.743	12273
929.848	12247
929.953	12247
930.058	12117
930.163	12015
930.267	11965
930.372	12117
930.477	11882
930.581	12178
930.685	12079
930.79	11920
930.894	11927
930.998	11874
931.103	12026
931.207	11672
931.311	11554
931.415	11452
931.519	11280
931.623	11296
