Data from test_V78500241_98.txt Node
Date: Fri Mar 25 15:42:28 CST 2022
User: usil
Spectrometer: V785-0024
Trigger mode: 0
Integration Time (sec): 4.000000E-1
Scans to average: 1
Nonlinearity correction enabled: false
Boxcar width: 0
Storing dark spectrum: false
XAxis mode: Wavelengths
Number of Pixels in Spectrum: 1024
>>>>>Begin Spectral Data<<<<<
801.071	29786
801.214	29779
801.356	29288
801.499	29395
801.641	29288
801.783	29136
801.926	29109
802.068	29265
802.211	29151
802.353	29200
802.496	29010
802.638	28839
802.78	28919
802.923	28771
803.065	28599
803.208	28755
803.35	28923
803.492	29022
803.635	29083
803.777	28839
803.919	29018
804.061	29090
804.204	29113
804.346	28900
804.488	28923
804.63	28854
804.773	28774
804.915	28927
805.057	29022
805.199	29014
805.341	28984
805.483	29235
805.626	29090
805.768	28965
805.91	28927
806.052	29094
806.194	28995
806.336	29250
806.478	29235
806.62	29025
806.762	29136
806.904	29277
807.046	29459
807.188	29425
807.33	29539
807.472	29604
807.614	29315
807.756	29318
807.898	29292
808.04	29288
808.182	29143
808.324	29227
808.465	29318
808.607	29459
808.749	29577
808.891	29737
809.033	29729
809.174	29745
809.316	29646
809.458	29627
809.6	29554
809.741	29684
809.883	29657
810.025	29908
810.166	29862
810.308	29870
810.45	29783
810.591	29691
810.733	29570
810.875	29528
811.016	29543
811.158	29490
811.299	29809
811.441	29783
811.582	29570
811.724	29554
811.865	29474
812.007	29524
812.148	29478
812.29	29596
812.431	29764
812.573	29870
812.714	29996
812.855	30110
812.997	30178
813.138	30235
813.279	30068
813.421	30060
813.562	29988
813.703	29912
813.845	29741
813.986	29395
814.127	29330
814.268	29212
814.41	29128
814.551	29151
814.692	29269
814.833	29181
814.974	29086
815.115	29132
815.256	29014
815.397	28816
815.539	28968
815.68	28835
815.821	28725
815.962	28942
816.103	28919
816.244	28786
816.385	28580
816.526	28634
816.666	28421
816.807	28333
816.948	28318
817.089	28493
817.23	28234
817.371	28268
817.512	28318
817.653	28162
817.793	28211
817.934	28215
818.075	28139
818.216	28341
818.356	28188
818.497	28143
818.638	27983
818.778	28105
818.919	28074
819.06	28048
819.2	28177
819.341	28143
819.481	28128
819.622	28348
819.762	28508
819.903	28538
820.043	28253
820.184	28379
820.324	28173
820.465	28322
820.605	28280
820.746	28162
820.886	28207
821.026	28238
821.167	28169
821.307	28280
821.447	28246
821.588	27945
821.728	27937
821.868	27800
822.008	27648
822.149	27614
822.289	27545
822.429	27458
822.569	27374
822.709	27275
822.849	27055
822.99	27096
823.13	26967
823.27	26925
823.41	26872
823.55	26861
823.69	26899
823.83	26895
823.97	26887
824.11	26682
824.25	26693
824.389	26724
824.529	26750
824.669	26720
824.809	26765
824.949	26678
825.089	26762
825.228	26712
825.368	26442
825.508	26434
825.648	26431
825.787	26571
825.927	26575
826.067	26343
826.206	26415
826.346	26412
826.485	26511
826.625	26389
826.765	26492
826.904	26438
827.044	26126
827.183	26309
827.323	26065
827.462	26111
827.601	26115
827.741	25997
827.88	26122
828.02	25986
828.159	25978
828.298	26145
828.437	26073
828.577	26092
828.716	26058
828.855	25925
828.994	25795
829.134	25925
829.273	25818
829.412	25746
829.551	25655
829.69	25757
829.829	25822
829.968	25845
830.107	25826
830.246	25738
830.385	25689
830.524	25624
830.663	25495
830.802	25441
830.941	25289
831.08	25232
831.219	25388
831.357	25365
831.496	25358
831.635	25350
831.774	25103
831.913	25225
832.051	25050
832.19	25137
832.329	24981
832.467	24958
832.606	25019
832.744	24859
832.883	24863
833.022	24779
833.16	24962
833.299	24871
833.437	24962
833.576	24890
833.714	24970
833.852	25133
833.991	25019
834.129	25053
834.267	24947
834.406	24970
834.544	24905
834.682	24795
834.821	24825
834.959	25137
835.097	24741
835.235	24943
835.373	24905
835.511	24802
835.65	24741
835.788	24696
835.926	24650
836.064	24540
836.202	24589
836.34	24631
836.478	24779
836.615	24608
836.753	24677
836.891	24760
837.029	24730
837.167	24673
837.305	24593
837.443	24696
837.58	24521
837.718	24608
837.856	24517
837.993	24532
838.131	24540
838.269	24464
838.406	24388
838.544	24365
838.681	24117
838.819	24262
838.956	24034
839.094	23958
839.231	24003
839.369	24117
839.506	24190
839.643	24133
839.781	23843
839.918	23901
840.055	23828
840.193	23851
840.33	23779
840.467	23840
840.604	23756
840.742	24083
840.879	23718
841.016	23748
841.153	23627
841.29	23904
841.427	23790
841.564	23798
841.701	23760
841.838	23805
841.975	23627
842.112	23771
842.249	23657
842.385	23554
842.522	23855
842.659	23547
842.796	23459
842.933	23467
843.069	23554
843.206	23360
843.343	23539
843.479	23493
843.616	23547
843.752	23292
843.889	23220
844.025	23471
844.162	23235
844.298	23337
844.435	23159
844.571	23178
844.708	23227
844.844	23520
844.98	23330
845.117	23174
845.253	23208
845.389	23155
845.525	23071
845.661	23056
845.798	22927
845.934	23018
846.07	22877
846.206	22980
846.342	22953
846.478	22942
846.614	22710
846.75	22637
846.886	22596
847.022	22740
847.158	22683
847.294	22698
847.429	22577
847.565	22660
847.701	22782
847.837	22436
847.972	22318
848.108	22402
848.244	22440
848.379	22185
848.515	22219
848.65	22192
848.786	22177
848.921	22105
849.057	22204
849.192	22421
849.328	22394
849.463	22192
849.598	22131
849.734	22006
849.869	21983
850.004	21930
850.14	21972
850.275	21945
850.41	21930
850.545	21869
850.68	21911
850.815	21861
850.95	21934
851.085	22120
851.22	21987
851.355	21873
851.49	21857
851.625	21816
851.76	21953
851.895	21827
852.03	21739
852.165	21880
852.299	21892
852.434	21884
852.569	21857
852.703	21876
852.838	21869
852.973	21964
853.107	21987
853.242	21759
853.376	21637
853.511	21523
853.645	21641
853.78	21873
853.914	21713
854.048	21804
854.183	21618
854.317	21755
854.451	21888
854.585	21675
854.72	21781
854.854	21884
854.988	21629
855.122	21671
855.256	21530
855.39	21694
855.524	21705
855.658	21625
855.792	21770
855.926	21743
856.06	21705
856.194	21709
856.327	21751
856.461	21732
856.595	21599
856.729	21610
856.862	21705
856.996	21720
857.13	21724
857.263	21720
857.397	21770
857.53	21652
857.664	21629
857.797	21724
857.931	21663
858.064	21663
858.197	21842
858.331	21603
858.464	21481
858.597	21435
858.731	21591
858.864	21633
858.997	21656
859.13	21614
859.263	21663
859.396	21679
859.529	21515
859.662	21622
859.795	21671
859.928	21637
860.061	21698
860.194	21823
860.327	21641
860.46	21545
860.592	21663
860.725	21899
860.858	21739
860.99	21686
861.123	21473
861.256	21561
861.388	21622
861.521	22139
861.653	21405
861.786	21332
861.918	21412
862.05	21549
862.183	21553
862.315	21728
862.447	21793
862.58	21564
862.712	21386
862.844	21306
862.976	21389
863.108	21329
863.24	21717
863.372	21294
863.504	21176
863.636	21127
863.768	21260
863.9	21370
864.032	21157
864.164	21184
864.296	21363
864.428	21367
864.559	21249
864.691	21313
864.823	21405
864.954	21272
865.086	21199
865.217	21116
865.349	21104
865.48	21131
865.612	21230
865.743	21306
865.875	21184
866.006	21150
866.137	21230
866.269	21176
866.4	21230
866.531	21100
866.662	21104
866.793	21154
866.924	21173
867.055	21268
867.186	21039
867.317	21009
867.448	21089
867.579	21112
867.71	20986
867.841	21028
867.972	21131
868.103	21020
868.233	21074
868.364	21024
868.495	21173
868.625	21241
868.756	21416
868.886	21062
869.017	21317
869.147	21325
869.278	21317
869.408	21450
869.539	21355
869.669	21355
869.799	21450
869.929	21412
870.06	21485
870.19	21557
870.32	21538
870.45	21629
870.58	21648
870.71	21903
870.84	21759
870.97	21728
871.1	21713
871.23	21827
871.36	21972
871.489	21743
871.619	21907
871.749	21838
871.879	21846
872.008	21953
872.138	22029
872.267	21713
872.397	21819
872.526	21770
872.656	21701
872.785	21819
872.915	21827
873.044	22074
873.173	21937
873.303	21930
873.432	21975
873.561	22025
873.69	21915
873.819	21926
873.948	22040
874.077	21926
874.206	21861
874.335	21903
874.464	22013
874.593	22295
874.722	22135
874.851	22192
874.979	22154
875.108	22253
875.237	22192
875.365	22059
875.494	22105
875.623	22287
875.751	22124
875.88	22150
876.008	22265
876.136	22478
876.265	22592
876.393	22736
876.521	22599
876.65	22687
876.778	22634
876.906	22550
877.034	22504
877.162	22569
877.29	22322
877.418	22634
877.546	22561
877.674	22497
877.802	22542
877.93	22546
878.058	22432
878.185	22276
878.313	22394
878.441	22546
878.568	22166
878.696	22375
878.824	22474
878.951	22637
879.079	22755
879.206	22824
879.333	22649
879.461	22447
879.588	22710
879.715	22645
879.842	22786
879.97	22672
880.097	22310
880.224	22306
880.351	22310
880.478	22295
880.605	22268
880.732	22413
880.859	22527
880.986	22253
881.112	22318
881.239	22253
881.366	22051
881.493	22013
881.619	21915
881.746	22032
881.872	21846
881.999	21888
882.125	21975
882.252	21949
882.378	21823
882.505	22078
882.631	21774
882.757	21694
882.883	21724
883.01	21622
883.136	21614
883.262	21477
883.388	21466
883.514	21603
883.64	21701
883.766	21526
883.892	21329
884.018	21389
884.143	21568
884.269	21679
884.395	21344
884.52	21256
884.646	21214
884.772	21112
884.897	21211
885.023	21275
885.148	21336
885.274	21530
885.399	21313
885.524	21249
885.65	21260
885.775	21264
885.9	21272
886.025	21256
886.15	21241
886.275	21135
886.4	21055
886.525	21211
886.65	21157
886.775	21112
886.9	21370
887.025	21443
887.149	21264
887.274	21146
887.399	21020
887.523	21024
887.648	21043
887.773	20944
887.897	21032
888.021	20921
888.146	21020
888.27	21032
888.395	21055
888.519	20998
888.643	20960
888.767	20941
888.891	20853
889.015	20765
889.139	20716
889.263	20796
889.387	20929
889.511	21055
889.635	20872
889.759	20708
889.883	20788
890.006	20754
890.13	20792
890.254	20754
890.377	20670
890.501	20442
890.624	20408
890.748	20511
890.871	20454
890.995	20351
891.118	20290
891.241	20377
891.364	20358
891.488	20484
891.611	20339
891.734	20370
891.857	20457
891.98	20404
892.103	20442
892.226	20294
892.349	20336
892.471	20164
892.594	20351
892.717	20298
892.839	20267
892.962	20119
893.085	20332
893.207	20183
893.33	20100
893.452	20134
893.575	20278
893.697	20107
893.819	20362
893.941	20423
894.064	20339
894.186	20244
894.308	20218
894.43	20328
894.552	20332
894.674	20332
894.796	20225
894.918	20229
895.04	20157
895.161	20157
895.283	20252
895.405	20229
895.526	20278
895.648	20122
895.769	20362
895.891	20282
896.012	20324
896.134	20309
896.255	20320
896.376	20248
896.498	20199
896.619	20305
896.74	20240
896.861	20381
896.982	20754
897.103	20754
897.224	20720
897.345	20442
897.466	20389
897.587	20629
897.708	20613
897.828	20469
897.949	20427
898.07	20332
898.19	20328
898.311	20587
898.431	20358
898.552	20442
898.672	20454
898.792	20556
898.913	20404
899.033	20298
899.153	20187
899.273	20073
899.393	20225
899.513	20134
899.633	20043
899.753	20122
899.873	20016
899.993	20221
900.113	20050
900.232	20138
900.352	20100
900.472	19921
900.591	19917
900.711	19955
900.83	19951
900.95	20016
901.069	20050
901.189	19826
901.308	19677
901.427	19628
901.546	19578
901.665	19419
901.784	19472
901.904	19411
902.023	19225
902.141	19114
902.26	19099
902.379	19194
902.498	18958
902.617	18962
902.735	18958
902.854	19027
902.973	18962
903.091	18612
903.21	18582
903.328	18604
903.446	18521
903.565	18464
903.683	18437
903.801	18414
903.919	18456
904.038	18483
904.156	18292
904.274	18350
904.392	18239
904.51	18289
904.627	18235
904.745	18281
904.863	18258
904.981	18087
905.098	17855
905.216	17882
905.334	17958
905.451	18049
905.569	17821
905.686	17703
905.803	17843
905.921	17600
906.038	17855
906.155	17729
906.272	17630
906.389	17554
906.506	17417
906.623	17425
906.74	17280
906.857	17326
906.974	17315
907.091	17471
907.208	17611
907.324	17459
907.441	17349
907.557	17200
907.674	17102
907.79	17022
907.907	17060
908.023	17105
908.139	17109
908.256	17003
908.372	17105
908.488	16911
908.604	16854
908.72	16744
908.836	16774
908.952	16736
909.068	16839
909.184	16820
909.3	16771
909.415	16771
909.531	16820
909.647	16622
909.762	16512
909.878	16405
909.993	16554
910.108	16580
910.224	16481
910.339	16546
910.454	16329
910.57	16310
910.685	16226
910.8	16440
910.915	16455
911.03	16265
911.145	16173
911.259	16063
911.374	16131
911.489	16074
911.604	15949
911.718	15831
911.833	15884
911.947	15789
912.062	15751
912.176	15831
912.291	15884
912.405	15922
912.519	15972
912.633	15968
912.748	15846
912.862	15819
912.976	15591
913.09	15511
913.204	15603
913.318	15614
913.431	15686
913.545	15724
913.659	15762
913.772	15572
913.886	15545
914	15443
914.113	15504
914.226	15576
914.34	15488
914.453	15344
914.566	15443
914.68	15310
914.793	15252
914.906	15093
915.019	15024
915.132	15043
915.245	15077
915.358	15100
915.47	15066
915.583	15020
915.696	15131
915.809	15176
915.921	15176
916.034	14948
916.146	14963
916.259	14925
916.371	14967
916.483	15032
916.595	14887
916.708	14849
916.82	14815
916.932	14845
917.044	14792
917.156	14819
917.268	14785
917.38	14682
917.491	14644
917.603	14708
917.715	14758
917.826	14712
917.938	14663
918.049	14560
918.161	14655
918.272	14739
918.384	14705
918.495	14537
918.606	14457
918.717	14442
918.828	14465
918.939	14396
919.05	14362
919.161	14332
919.272	14195
919.383	14374
919.494	14507
919.604	14701
919.715	14434
919.826	14275
919.936	14347
920.047	14374
920.157	14412
920.267	14446
920.378	14393
920.488	14328
920.598	14556
920.708	14701
920.818	14644
920.928	14499
921.038	14655
921.148	14552
921.258	14301
921.368	14214
921.477	14065
921.587	14115
921.697	13970
921.806	14149
921.916	14005
922.025	13871
922.134	13807
922.244	13693
922.353	13750
922.462	13594
922.571	13510
922.68	13377
922.789	13377
922.898	13362
923.007	13289
923.116	13365
923.224	13354
923.333	13259
923.442	13308
923.55	13187
923.659	13232
923.767	13160
923.876	13095
923.984	13194
924.092	13072
924.201	13110
924.309	13053
924.417	13126
924.525	13012
924.633	13004
924.741	13670
924.849	12829
924.956	12932
925.064	12814
925.172	12772
925.279	12791
925.387	12901
925.494	12760
925.602	12878
925.709	12932
925.816	12738
925.924	12726
926.031	12779
926.138	12814
926.245	12814
926.352	12719
926.459	12810
926.566	12829
926.673	12627
926.779	12570
926.886	12559
926.993	12399
927.099	12346
927.206	12292
927.312	12254
927.419	12422
927.525	12399
927.631	12445
927.737	12296
927.843	12239
927.95	12140
928.056	12163
928.162	12175
928.267	12270
928.373	12802
928.479	12178
928.585	11969
928.69	12213
928.796	12106
928.901	11973
929.007	11931
929.112	12045
929.218	12011
929.323	11973
929.428	11863
929.533	11977
929.638	11931
929.743	11802
929.848	11889
929.953	11920
930.058	11733
930.163	11596
930.267	11566
930.372	11775
930.477	11577
930.581	11794
930.685	11570
930.79	11493
930.894	11478
930.998	11425
931.103	11581
931.207	11174
931.311	11121
931.415	11033
931.519	10850
931.623	10812
