Data from test_V78500241_2803.txt Node
Date: Fri Mar 25 16:01:13 CST 2022
User: usil
Spectrometer: V785-0024
Trigger mode: 0
Integration Time (sec): 4.000000E-1
Scans to average: 1
Nonlinearity correction enabled: false
Boxcar width: 0
Storing dark spectrum: false
XAxis mode: Wavelengths
Number of Pixels in Spectrum: 1024
>>>>>Begin Spectral Data<<<<<
801.071	28858
801.214	28965
801.356	28584
801.499	28508
801.641	28432
801.783	28535
801.926	28580
802.068	28451
802.211	28386
802.353	28413
802.496	28367
802.638	28147
802.78	28177
802.923	27968
803.065	28139
803.208	28131
803.35	28238
803.492	28306
803.635	28470
803.777	28428
803.919	28390
804.061	28843
804.204	28531
804.346	28310
804.488	28223
804.63	28341
804.773	28390
804.915	28436
805.057	28713
805.199	28550
805.341	28459
805.483	28656
805.626	28573
805.768	28459
805.91	28592
806.052	28542
806.194	28462
806.336	28858
806.478	28675
806.62	28535
806.762	28748
806.904	28847
807.046	29064
807.188	29235
807.33	28965
807.472	29174
807.614	29041
807.756	29041
807.898	28839
808.04	28862
808.182	28911
808.324	28885
808.465	29060
808.607	29227
808.749	29349
808.891	29379
809.033	29417
809.174	29360
809.316	29231
809.458	29296
809.6	29174
809.741	29326
809.883	29436
810.025	29474
810.166	29665
810.308	29554
810.45	29585
810.591	29440
810.733	29288
810.875	29231
811.016	29231
811.158	29216
811.299	29372
811.441	29429
811.582	29554
811.724	29299
811.865	29292
812.007	29273
812.148	29315
812.29	29360
812.431	29562
812.573	29577
812.714	29813
812.855	29847
812.997	29908
813.138	30262
813.279	29988
813.421	29927
813.562	29684
813.703	29737
813.845	29490
813.986	29261
814.127	29086
814.268	29060
814.41	29109
814.551	29075
814.692	29003
814.833	28820
814.974	28953
815.115	29147
815.256	28908
815.397	28961
815.539	28820
815.68	28831
815.821	28656
815.962	28835
816.103	28900
816.244	28649
816.385	28672
816.526	28626
816.666	28432
816.807	28295
816.948	28470
817.089	28398
817.23	28367
817.371	28386
817.512	28268
817.653	28367
817.793	28249
817.934	28443
818.075	28352
818.216	28337
818.356	28295
818.497	28204
818.638	28078
818.778	28017
818.919	28029
819.06	28154
819.2	28181
819.341	28363
819.481	28242
819.622	28573
819.762	28850
819.903	28649
820.043	28375
820.184	28580
820.324	28508
820.465	28645
820.605	28607
820.746	28398
820.886	28310
821.026	28504
821.167	28512
821.307	28630
821.447	28478
821.588	28223
821.728	28078
821.868	27907
822.008	27953
822.149	27857
822.289	27705
822.429	27507
822.569	27561
822.709	27595
822.849	27473
822.99	27363
823.13	27302
823.27	27389
823.41	27188
823.55	26891
823.69	27195
823.83	27131
823.97	27119
824.11	26971
824.25	26952
824.389	27036
824.529	27131
824.669	27036
824.809	27154
824.949	27176
825.089	26998
825.228	27081
825.368	26982
825.508	26880
825.648	26887
825.787	26883
825.927	26910
826.067	27001
826.206	26891
826.346	26929
826.485	27036
826.625	26887
826.765	27157
826.904	26940
827.044	26606
827.183	26674
827.323	26667
827.462	26716
827.601	26571
827.741	26678
827.88	26716
828.02	26556
828.159	26617
828.298	26648
828.437	26788
828.577	26507
828.716	26621
828.855	26511
828.994	26282
829.134	26275
829.273	26431
829.412	26221
829.551	26218
829.69	26336
829.829	26248
829.968	26362
830.107	26339
830.246	26294
830.385	26282
830.524	26240
830.663	26187
830.802	26024
830.941	25875
831.08	26024
831.219	26024
831.357	25963
831.496	26191
831.635	25894
831.774	25917
831.913	25647
832.051	25738
832.19	25525
832.329	25624
832.467	25761
832.606	25510
832.744	25578
832.883	25723
833.022	25548
833.16	25544
833.299	25647
833.437	25582
833.576	25578
833.714	25655
833.852	25677
833.991	25780
834.129	25639
834.267	25620
834.406	25635
834.544	25529
834.682	25578
834.821	25540
834.959	25776
835.097	25658
835.235	25575
835.373	25540
835.511	25677
835.65	25575
835.788	25563
835.926	25388
836.064	25274
836.202	25206
836.34	25514
836.478	25419
836.615	25544
836.753	25491
836.891	25468
837.029	25495
837.167	25411
837.305	25426
837.443	25247
837.58	25301
837.718	25487
837.856	25236
837.993	25168
838.131	25335
838.269	25213
838.406	25156
838.544	25042
838.681	24943
838.819	24966
838.956	24741
839.094	24791
839.231	24863
839.369	24913
839.506	25168
839.643	24966
839.781	24878
839.918	24658
840.055	24688
840.193	24692
840.33	24681
840.467	24817
840.604	24707
840.742	24871
840.879	24452
841.016	24658
841.153	24536
841.29	24696
841.427	24669
841.564	24722
841.701	24719
841.838	24616
841.975	24471
842.112	24612
842.249	24509
842.385	24369
842.522	24578
842.659	24334
842.796	24323
842.933	24486
843.069	24380
843.206	24346
843.343	24429
843.479	24410
843.616	24289
843.752	24327
843.889	24171
844.025	24418
844.162	24102
844.298	24205
844.435	24311
844.571	24125
844.708	24186
844.844	24190
844.98	24346
845.117	24277
845.253	24129
845.389	24041
845.525	24148
845.661	24072
845.798	23931
845.934	23996
846.07	23855
846.206	23912
846.342	24034
846.478	23874
846.614	23657
846.75	23661
846.886	23509
847.022	23665
847.158	23611
847.294	23611
847.429	23623
847.565	23627
847.701	23950
847.837	23280
847.972	23265
848.108	23425
848.244	23402
848.379	23208
848.515	23235
848.65	23200
848.786	23124
848.921	23356
849.057	23395
849.192	23448
849.328	23239
849.463	23162
849.598	23090
849.734	23090
849.869	23060
850.004	23022
850.14	23086
850.275	23014
850.41	23014
850.545	22900
850.68	22919
850.815	23044
850.95	23018
851.085	23258
851.22	23086
851.355	22976
851.49	23006
851.625	22881
851.76	22995
851.895	22934
852.03	22850
852.165	23143
852.299	22984
852.434	23033
852.569	23041
852.703	22873
852.838	23014
852.973	23121
853.107	23121
853.242	22885
853.376	22790
853.511	22866
853.645	22763
853.78	22824
853.914	22793
854.048	22755
854.183	22759
854.317	22900
854.451	23044
854.585	22698
854.72	22854
854.854	22824
854.988	22771
855.122	22828
855.256	22687
855.39	22835
855.524	22828
855.658	22889
855.792	22828
855.926	22896
856.06	22793
856.194	22965
856.327	22778
856.461	22744
856.595	22824
856.729	22786
856.862	22755
856.996	22812
857.13	22835
857.263	22740
857.397	23029
857.53	22774
857.664	22831
857.797	22820
857.931	22866
858.064	22984
858.197	22957
858.331	22706
858.464	22664
858.597	22622
858.731	22809
858.864	22843
858.997	22733
859.13	22744
859.263	22725
859.396	22968
859.529	22748
859.662	22828
859.795	22656
859.928	22805
860.061	22946
860.194	22961
860.327	22850
860.46	22748
860.592	22885
860.725	22987
860.858	22942
860.99	22927
861.123	22691
861.256	22797
861.388	22824
861.521	23668
861.653	22656
861.786	22580
861.918	22615
862.05	22641
862.183	22630
862.315	22755
862.447	22847
862.58	22622
862.712	22481
862.844	22451
862.976	22626
863.108	22565
863.24	22919
863.372	22497
863.504	22580
863.636	22466
863.768	22538
863.9	22577
864.032	22379
864.164	22462
864.296	22584
864.428	22641
864.559	22527
864.691	22584
864.823	22481
864.954	22432
865.086	22432
865.217	22451
865.349	22352
865.48	22455
865.612	22394
865.743	22466
865.875	22375
866.006	22333
866.137	22417
866.269	22398
866.4	22363
866.531	22394
866.662	22398
866.793	22265
866.924	22226
867.055	22424
867.186	22219
867.317	22238
867.448	22112
867.579	22284
867.71	22154
867.841	22226
867.972	22363
868.103	22234
868.233	22287
868.364	22341
868.495	22318
868.625	22584
868.756	22729
868.886	22455
869.017	22531
869.147	22679
869.278	22653
869.408	22489
869.539	22470
869.669	22664
869.799	22485
869.929	22557
870.06	22622
870.19	22923
870.32	22869
870.45	22904
870.58	22858
870.71	23086
870.84	23067
870.97	23033
871.1	22965
871.23	22968
871.36	23052
871.489	23113
871.619	23155
871.749	23025
871.879	23280
872.008	23170
872.138	23128
872.267	23052
872.397	23003
872.526	22987
872.656	23060
872.785	22896
872.915	23200
873.044	23204
873.173	23140
873.303	23159
873.432	23296
873.561	23242
873.69	23136
873.819	23075
873.948	23311
874.077	23242
874.206	23098
874.335	23220
874.464	23284
874.593	23315
874.722	23299
874.851	23535
874.979	23296
875.108	23376
875.237	23246
875.365	23223
875.494	23429
875.623	23398
875.751	23387
875.88	23368
876.008	23478
876.136	23459
876.265	23760
876.393	23802
876.521	23741
876.65	23798
876.778	23840
876.906	23687
877.034	23687
877.162	23756
877.29	23710
877.418	23710
877.546	23684
877.674	23813
877.802	23908
877.93	23805
878.058	23630
878.185	23627
878.313	23627
878.441	23665
878.568	23493
878.696	23596
878.824	23802
878.951	23935
879.079	23855
879.206	23977
879.333	23840
879.461	23920
879.588	23817
879.715	23908
879.842	23996
879.97	23668
880.097	23520
880.224	23486
880.351	23604
880.478	23528
880.605	23360
880.732	23585
880.859	23729
880.986	23657
881.112	23478
881.239	23463
881.366	23208
881.493	23166
881.619	23022
881.746	23098
881.872	23197
881.999	23014
882.125	22965
882.252	23105
882.378	22934
882.505	23147
882.631	22942
882.757	22889
882.883	22866
883.01	22710
883.136	22759
883.262	22596
883.388	22599
883.514	22797
883.64	22793
883.766	22626
883.892	22588
884.018	22641
884.143	22850
884.269	22812
884.395	22459
884.52	22398
884.646	22417
884.772	22280
884.897	22272
885.023	22474
885.148	22451
885.274	22497
885.399	22462
885.524	22424
885.65	22455
885.775	22291
885.9	22417
886.025	22508
886.15	22402
886.275	22367
886.4	22238
886.525	22341
886.65	22173
886.775	22333
886.9	22451
887.025	22497
887.149	22432
887.274	22097
887.399	22131
887.523	22211
887.648	22051
887.773	21987
887.897	22143
888.021	22204
888.146	22036
888.27	22261
888.395	22177
888.519	22230
888.643	22287
888.767	22128
888.891	22158
889.015	21953
889.139	22021
889.263	21960
889.387	22059
889.511	22166
889.635	22093
889.759	21739
889.883	21827
890.006	21991
890.13	21956
890.254	21934
890.377	21793
890.501	21679
890.624	21663
890.748	21682
890.871	21496
890.995	21408
891.118	21416
891.241	21534
891.364	21564
891.488	21473
891.611	21454
891.734	21450
891.857	21519
891.98	21469
892.103	21500
892.226	21488
892.349	21336
892.471	21188
892.594	21336
892.717	21454
892.839	21363
892.962	21302
893.085	21454
893.207	21401
893.33	21245
893.452	21298
893.575	21397
893.697	21317
893.819	21534
893.941	21614
894.064	21511
894.186	21233
894.308	21291
894.43	21587
894.552	21557
894.674	21340
894.796	21157
894.918	21237
895.04	21321
895.161	21340
895.283	21367
895.405	21298
895.526	21321
895.648	21348
895.769	21374
895.891	21310
896.012	21363
896.134	21382
896.255	21302
896.376	21298
896.498	21275
896.619	21401
896.74	21355
896.861	21386
896.982	21447
897.103	21698
897.224	21485
897.345	21572
897.466	21549
897.587	21481
897.708	21644
897.828	21583
897.949	21344
898.07	21370
898.19	21511
898.311	21504
898.431	21454
898.552	21492
898.672	21530
898.792	21599
898.913	21523
899.033	21458
899.153	21363
899.273	21291
899.393	21302
899.513	21283
899.633	21245
899.753	21355
899.873	21100
899.993	21161
900.113	21157
900.232	21256
900.352	21032
900.472	21066
900.591	20876
900.711	21116
900.83	21047
900.95	21077
901.069	21085
901.189	20864
901.308	20739
901.427	20476
901.546	20590
901.665	20545
901.784	20568
901.904	20495
902.023	20320
902.141	20191
902.26	20153
902.379	20187
902.498	20050
902.617	20012
902.735	20126
902.854	20130
902.973	19989
903.091	19822
903.21	19746
903.328	19772
903.446	19674
903.565	19635
903.683	19632
903.801	19320
903.919	19438
904.038	19419
904.156	19392
904.274	19297
904.392	19263
904.51	19179
904.627	19202
904.745	19343
904.863	19320
904.981	19145
905.098	18932
905.216	18958
905.334	19012
905.451	18935
905.569	18996
905.686	19008
905.803	18859
905.921	18635
906.038	18837
906.155	18787
906.272	18646
906.389	18772
906.506	18429
906.623	18536
906.74	18540
906.857	18433
906.974	18437
907.091	18513
907.208	18688
907.324	18376
907.441	18296
907.557	18228
907.674	18083
907.79	18117
907.907	18197
908.023	18121
908.139	18155
908.256	18114
908.372	18186
908.488	18095
908.604	17980
908.72	17805
908.836	17764
908.952	17824
909.068	17889
909.184	18003
909.3	17878
909.415	17889
909.531	17950
909.647	17729
909.762	17596
909.878	17570
909.993	17623
910.108	17570
910.224	17448
910.339	17623
910.454	17417
910.57	17364
910.685	17341
910.8	17577
910.915	17463
911.03	17436
911.145	17147
911.259	17216
911.374	17151
911.489	16995
911.604	17033
911.718	16889
911.833	16869
911.947	16824
912.062	16805
912.176	16877
912.291	16930
912.405	16869
912.519	17086
912.633	17086
912.748	16953
912.862	16938
912.976	16717
913.09	16683
913.204	16748
913.318	16748
913.431	16691
913.545	16733
913.659	16691
913.772	16599
913.886	16607
914	16428
914.113	16500
914.226	16512
914.34	16554
914.453	16333
914.566	16607
914.68	16306
914.793	16280
914.906	16162
915.019	15987
915.132	16029
915.245	16154
915.358	16120
915.47	15979
915.583	16116
915.696	16086
915.809	16196
915.921	16109
916.034	16010
916.146	16090
916.259	15880
916.371	16055
916.483	15941
916.595	15911
916.708	15930
916.82	15827
916.932	15876
917.044	15884
917.156	15766
917.268	15637
917.38	15614
917.491	15724
917.603	15622
917.715	15778
917.826	15717
917.938	15603
918.049	15584
918.161	15648
918.272	15857
918.384	15804
918.495	15492
918.606	15492
918.717	15386
918.828	15443
918.939	15428
919.05	15393
919.161	15450
919.272	15142
919.383	15294
919.494	15545
919.604	15553
919.715	15355
919.826	15294
919.936	15283
920.047	15344
920.157	15542
920.267	15557
920.378	15359
920.488	15351
920.598	15599
920.708	15675
920.818	15462
920.928	15454
921.038	15675
921.148	15606
921.258	15195
921.368	15214
921.477	15207
921.587	15165
921.697	15009
921.806	15123
921.916	14967
922.025	14750
922.134	14651
922.244	14705
922.353	14765
922.462	14590
922.571	14484
922.68	14370
922.789	14370
922.898	14370
923.007	14339
923.116	14427
923.224	14336
923.333	14404
923.442	14298
923.55	14123
923.659	14176
923.767	14233
923.876	13997
923.984	14103
924.092	14107
924.201	14126
924.309	14024
924.417	14081
924.525	13974
924.633	13955
924.741	14971
924.849	13719
924.956	13947
925.064	13746
925.172	13696
925.279	13674
925.387	13765
925.494	13738
925.602	13841
925.709	13860
925.816	13609
925.924	13609
926.031	13784
926.138	13723
926.245	13765
926.352	13575
926.459	13689
926.566	13731
926.673	13578
926.779	13430
926.886	13381
926.993	13282
927.099	13202
927.206	13274
927.312	13244
927.419	13282
927.525	13263
927.631	13289
927.737	13019
927.843	13042
927.95	13019
928.056	13046
928.162	13012
928.267	13164
928.373	13590
928.479	13236
928.585	12863
928.69	13031
928.796	12985
928.901	12840
929.007	12787
929.112	12783
929.218	12935
929.323	12798
929.428	12783
929.533	12878
929.638	12734
929.743	12738
929.848	12734
929.953	12593
930.058	12608
930.163	12418
930.267	12490
930.372	12483
930.477	12399
930.581	12623
930.685	12578
930.79	12448
930.894	12304
930.998	12262
931.103	12399
931.207	11996
931.311	11916
931.415	11977
931.519	11630
931.623	11710
