Data from test_V78500241_652.txt Node
Date: Fri Mar 25 15:46:19 CST 2022
User: usil
Spectrometer: V785-0024
Trigger mode: 0
Integration Time (sec): 4.000000E-1
Scans to average: 1
Nonlinearity correction enabled: false
Boxcar width: 0
Storing dark spectrum: false
XAxis mode: Wavelengths
Number of Pixels in Spectrum: 1024
>>>>>Begin Spectral Data<<<<<
801.071	27675
801.214	27656
801.356	27382
801.499	27203
801.641	27135
801.783	27222
801.926	27283
802.068	27188
802.211	27005
802.353	26982
802.496	26800
802.638	26872
802.78	26773
802.923	26883
803.065	26659
803.208	26823
803.35	26796
803.492	26921
803.635	26883
803.777	26960
803.919	26956
804.061	27329
804.204	26967
804.346	26853
804.488	26899
804.63	26940
804.773	26902
804.915	26971
805.057	27089
805.199	27116
805.341	27108
805.483	27036
805.626	27009
805.768	26944
805.91	27001
806.052	26956
806.194	27039
806.336	27272
806.478	27146
806.62	27199
806.762	27192
806.904	27344
807.046	27667
807.188	27629
807.33	27606
807.472	27580
807.614	27408
807.756	27507
807.898	27378
808.04	27359
808.182	27218
808.324	27325
808.465	27351
808.607	27583
808.749	27747
808.891	27717
809.033	27850
809.174	27884
809.316	27724
809.458	27770
809.6	27694
809.741	27800
809.883	27880
810.025	27888
810.166	28105
810.308	27968
810.45	27907
810.591	27914
810.733	27728
810.875	27751
811.016	27648
811.158	27625
811.299	27888
811.441	27998
811.582	27838
811.724	27774
811.865	27557
812.007	27660
812.148	27698
812.29	27679
812.431	28010
812.573	28017
812.714	28025
812.855	28131
812.997	28303
813.138	28481
813.279	28409
813.421	28253
813.562	28139
813.703	28185
813.845	27804
813.986	27819
814.127	27408
814.268	27310
814.41	27454
814.551	27325
814.692	27568
814.833	27405
814.974	27313
815.115	27477
815.256	27222
815.397	27199
815.539	27131
815.68	27275
815.821	27211
815.962	27222
816.103	27157
816.244	26998
816.385	27066
816.526	26998
816.666	26762
816.807	26648
816.948	26769
817.089	26857
817.23	26765
817.371	26674
817.512	26773
817.653	26625
817.793	26674
817.934	26720
818.075	26720
818.216	26636
818.356	26674
818.497	26560
818.638	26446
818.778	26579
818.919	26431
819.06	26571
819.2	26537
819.341	26670
819.481	26705
819.622	26777
819.762	27024
819.903	26826
820.043	26800
820.184	26796
820.324	26857
820.465	26918
820.605	26686
820.746	26811
820.886	26651
821.026	26746
821.167	26838
821.307	26849
821.447	26758
821.588	26442
821.728	26423
821.868	26259
822.008	26153
822.149	26161
822.289	26157
822.429	26012
822.569	25765
822.709	25845
822.849	25704
822.99	25731
823.13	25643
823.27	25658
823.41	25525
823.55	25358
823.69	25327
823.83	25540
823.97	25426
824.11	25285
824.25	25232
824.389	25282
824.529	25331
824.669	25339
824.809	25381
824.949	25407
825.089	25346
825.228	25251
825.368	25175
825.508	25202
825.648	25069
825.787	25175
825.927	25297
826.067	25019
826.206	25179
826.346	25251
826.485	25247
826.625	25129
826.765	25282
826.904	25297
827.044	24878
827.183	24920
827.323	24760
827.462	24886
827.601	24787
827.741	24886
827.88	24920
828.02	24810
828.159	24852
828.298	24920
828.437	24996
828.577	24802
828.716	24856
828.855	24825
828.994	24658
829.134	24692
829.273	24566
829.412	24384
829.551	24369
829.69	24566
829.829	24681
829.968	24726
830.107	24486
830.246	24608
830.385	24486
830.524	24540
830.663	24342
830.802	24281
830.941	24277
831.08	24057
831.219	24247
831.357	24277
831.496	24338
831.635	24186
831.774	24072
831.913	24068
832.051	24064
832.19	24159
832.329	24057
832.467	23950
832.606	23710
832.744	23767
832.883	23927
833.022	23828
833.16	23866
833.299	23931
833.437	23980
833.576	23935
833.714	23821
833.852	23920
833.991	23897
834.129	23954
834.267	24026
834.406	23977
834.544	23916
834.682	23965
834.821	23965
834.959	23999
835.097	23733
835.235	24015
835.373	23961
835.511	23885
835.65	23764
835.788	23767
835.926	23676
836.064	23497
836.202	23615
836.34	23775
836.478	23809
836.615	23604
836.753	23752
836.891	23893
837.029	23893
837.167	23691
837.305	23718
837.443	23638
837.58	23589
837.718	23676
837.856	23737
837.993	23695
838.131	23490
838.269	23490
838.406	23444
838.544	23376
838.681	23288
838.819	23227
838.956	23105
839.094	23044
839.231	23079
839.369	23296
839.506	23512
839.643	23273
839.781	23090
839.918	23166
840.055	23067
840.193	23033
840.33	22965
840.467	23044
840.604	23044
840.742	23288
840.879	22968
841.016	22927
841.153	22904
841.29	22972
841.427	22987
841.564	22923
841.701	23025
841.838	22858
841.975	22820
842.112	22934
842.249	22767
842.385	22778
842.522	22934
842.659	22881
842.796	22828
842.933	22752
843.069	22725
843.206	22694
843.343	22752
843.479	22733
843.616	22748
843.752	22588
843.889	22470
844.025	22637
844.162	22577
844.298	22653
844.435	22466
844.571	22367
844.708	22424
844.844	22736
844.98	22615
845.117	22622
845.253	22371
845.389	22363
845.525	22375
845.661	22306
845.798	22268
845.934	22325
846.07	22116
846.206	22314
846.342	22295
846.478	22272
846.614	22055
846.75	21953
846.886	22036
847.022	22044
847.158	21975
847.294	21892
847.429	21979
847.565	22090
847.701	22105
847.837	21713
847.972	21850
848.108	21922
848.244	21819
848.379	21523
848.515	21450
848.65	21526
848.786	21549
848.921	21538
849.057	21599
849.192	21568
849.328	21591
849.463	21542
849.598	21713
849.734	21580
849.869	21473
850.004	21355
850.14	21420
850.275	21207
850.41	21252
850.545	21249
850.68	21310
850.815	21245
850.95	21397
851.085	21488
851.22	21408
851.355	21348
851.49	21279
851.625	21294
851.76	21344
851.895	21245
852.03	21306
852.165	21256
852.299	21321
852.434	21363
852.569	21405
852.703	21359
852.838	21389
852.973	21389
853.107	21492
853.242	21199
853.376	21188
853.511	21036
853.645	21127
853.78	21241
853.914	21135
854.048	21104
854.183	21180
854.317	21173
854.451	21306
854.585	21127
854.72	21199
854.854	21283
854.988	21176
855.122	21241
855.256	20960
855.39	21214
855.524	21287
855.658	21165
855.792	21192
855.926	21188
856.06	21214
856.194	21237
856.327	21214
856.461	21112
856.595	21039
856.729	21146
856.862	21169
856.996	21112
857.13	21256
857.263	21214
857.397	21146
857.53	21081
857.664	21245
857.797	21150
857.931	21298
858.064	21173
858.197	21302
858.331	21104
858.464	21104
858.597	20963
858.731	21081
858.864	21085
858.997	21123
859.13	21176
859.263	21188
859.396	21222
859.529	20998
859.662	21146
859.795	21074
859.928	21119
860.061	21344
860.194	21416
860.327	21260
860.46	21081
860.592	21313
860.725	21367
860.858	21272
860.99	21195
861.123	21058
861.256	21070
861.388	21192
861.521	21686
861.653	21013
861.786	20963
861.918	20963
862.05	21036
862.183	21116
862.315	21077
862.447	21188
862.58	20986
862.712	20880
862.844	20815
862.976	21017
863.108	20982
863.24	21249
863.372	20941
863.504	20842
863.636	20830
863.768	20982
863.9	20678
864.032	20861
864.164	20773
864.296	20899
864.428	20994
864.559	20941
864.691	20933
864.823	20842
864.954	20765
865.086	20883
865.217	20788
865.349	20689
865.48	20781
865.612	20712
865.743	20967
865.875	20708
866.006	20735
866.137	20765
866.269	20777
866.4	20720
866.531	20655
866.662	20697
866.793	20674
866.924	20693
867.055	20708
867.186	20648
867.317	20758
867.448	20568
867.579	20689
867.71	20571
867.841	20571
867.972	20640
868.103	20629
868.233	20659
868.364	20750
868.495	20800
868.625	20883
868.756	21005
868.886	20849
869.017	20941
869.147	21089
869.278	21058
869.408	20876
869.539	20887
869.669	21123
869.799	20933
869.929	21070
870.06	21123
870.19	21325
870.32	21382
870.45	21294
870.58	21340
870.71	21351
870.84	21458
870.97	21260
871.1	21264
871.23	21553
871.36	21534
871.489	21538
871.619	21500
871.749	21488
871.879	21580
872.008	21667
872.138	21477
872.267	21450
872.397	21469
872.526	21359
872.656	21313
872.785	21420
872.915	21492
873.044	21587
873.173	21587
873.303	21625
873.432	21606
873.561	21641
873.69	21553
873.819	21534
873.948	21713
874.077	21545
874.206	21500
874.335	21416
874.464	21595
874.593	21770
874.722	21713
874.851	21755
874.979	21892
875.108	21789
875.237	21747
875.365	21736
875.494	21778
875.623	21880
875.751	21949
875.88	21732
876.008	21926
876.136	22006
876.265	22173
876.393	22375
876.521	22219
876.65	22166
876.778	22162
876.906	22044
877.034	22059
877.162	22223
877.29	22162
877.418	22139
877.546	22143
877.674	22135
877.802	22207
877.93	22204
878.058	22074
878.185	22025
878.313	22067
878.441	22173
878.568	21903
878.696	21994
878.824	22101
878.951	22211
879.079	22291
879.206	22436
879.333	22341
879.461	22154
879.588	22181
879.715	22207
879.842	22447
879.97	22215
880.097	22044
880.224	22006
880.351	22048
880.478	22051
880.605	21819
880.732	21956
880.859	22086
880.986	22040
881.112	21998
881.239	21903
881.366	21701
881.493	21648
881.619	21614
881.746	21481
881.872	21466
881.999	21603
882.125	21523
882.252	21618
882.378	21538
882.505	21572
882.631	21439
882.757	21241
882.883	21370
883.01	21214
883.136	21241
883.262	21100
883.388	21131
883.514	21195
883.64	21272
883.766	21233
883.892	21028
884.018	21055
884.143	21176
884.269	21218
884.395	21009
884.52	20823
884.646	20979
884.772	20800
884.897	20670
885.023	20777
885.148	20952
885.274	21001
885.399	20895
885.524	20826
885.65	20933
885.775	20910
885.9	20891
886.025	21001
886.15	20960
886.275	20933
886.4	20686
886.525	20933
886.65	20902
886.775	20758
886.9	21032
887.025	21142
887.149	20826
887.274	20655
887.399	20712
887.523	20762
887.648	20613
887.773	20545
887.897	20788
888.021	20739
888.146	20625
888.27	20655
888.395	20701
888.519	20629
888.643	20682
888.767	20689
888.891	20644
889.015	20454
889.139	20545
889.263	20431
889.387	20579
889.511	20648
889.635	20602
889.759	20355
889.883	20427
890.006	20434
890.13	20560
890.254	20328
890.377	20317
890.501	20164
890.624	20248
890.748	20324
890.871	20081
890.995	19978
891.118	19974
891.241	20027
891.364	20202
891.488	20077
891.611	19974
891.734	20035
891.857	20130
891.98	19955
892.103	20180
892.226	20046
892.349	19967
892.471	19795
892.594	20016
892.717	19944
892.839	19932
892.962	20046
893.085	20024
893.207	19765
893.33	19738
893.452	19875
893.575	20008
893.697	19909
893.819	20077
893.941	20214
894.064	20092
894.186	19807
894.308	19868
894.43	20024
894.552	20001
894.674	20001
894.796	19795
894.918	19772
895.04	19845
895.161	19978
895.283	19799
895.405	19868
895.526	19906
895.648	19822
895.769	19742
895.891	19940
896.012	20008
896.134	19921
896.255	19970
896.376	19932
896.498	19917
896.619	20054
896.74	19913
896.861	20035
896.982	20221
897.103	20438
897.224	20206
897.345	20149
897.466	20065
897.587	20145
897.708	20339
897.828	20153
897.949	20168
898.07	20050
898.19	20122
898.311	20267
898.431	20153
898.552	20115
898.672	20305
898.792	20320
898.913	20317
899.033	20012
899.153	20020
899.273	19830
899.393	19967
899.513	19989
899.633	19955
899.753	19852
899.873	19909
899.993	19925
900.113	19830
900.232	19856
900.352	19875
900.472	19780
900.591	19750
900.711	19742
900.83	19708
900.95	19708
901.069	19826
901.189	19620
901.308	19506
901.427	19274
901.546	19251
901.665	19343
901.784	19354
901.904	19217
902.023	19046
902.141	18932
902.26	18753
902.379	19000
902.498	18802
902.617	18745
902.735	18840
902.854	18817
902.973	18658
903.091	18574
903.21	18513
903.328	18384
903.446	18410
903.565	18239
903.683	18281
903.801	18190
903.919	18220
904.038	18235
904.156	18038
904.274	18076
904.392	18106
904.51	17961
904.627	17969
904.745	18106
904.863	18053
904.981	17927
905.098	17745
905.216	17779
905.334	17726
905.451	17764
905.569	17691
905.686	17794
905.803	17760
905.921	17539
906.038	17672
906.155	17524
906.272	17497
906.389	17471
906.506	17284
906.623	17398
906.74	17280
906.857	17155
906.974	17136
907.091	17216
907.208	17425
907.324	17250
907.441	17121
907.557	17025
907.674	16976
907.79	16961
907.907	16923
908.023	17090
908.139	17037
908.256	16908
908.372	16858
908.488	16885
908.604	16687
908.72	16729
908.836	16645
908.952	16660
909.068	16687
909.184	16683
909.3	16702
909.415	16588
909.531	16694
909.647	16485
909.762	16489
909.878	16318
909.993	16413
910.108	16329
910.224	16360
910.339	16348
910.454	16314
910.57	16215
910.685	16135
910.8	16398
910.915	16333
911.03	16162
911.145	16025
911.259	15987
911.374	15945
911.489	15991
911.604	15785
911.718	15781
911.833	15827
911.947	15625
912.062	15557
912.176	15652
912.291	15793
912.405	15854
912.519	15934
912.633	15880
912.748	15819
912.862	15717
912.976	15561
913.09	15351
913.204	15538
913.318	15595
913.431	15656
913.545	15648
913.659	15686
913.772	15530
913.886	15405
914	15237
914.113	15481
914.226	15450
914.34	15382
914.453	15157
914.566	15344
914.68	15283
914.793	15123
914.906	15028
915.019	15074
915.132	14952
915.245	14921
915.358	15070
915.47	14994
915.583	14902
915.696	14986
915.809	15119
915.921	15127
916.034	14834
916.146	14883
916.259	14781
916.371	14937
916.483	14967
916.595	14705
916.708	14830
916.82	14883
916.932	14750
917.044	14887
917.156	14720
917.268	14640
917.38	14701
917.491	14625
917.603	14613
917.715	14651
917.826	14800
917.938	14518
918.049	14431
918.161	14549
918.272	14712
918.384	14708
918.495	14632
918.606	14514
918.717	14309
918.828	14442
918.939	14469
919.05	14301
919.161	14454
919.272	14286
919.383	14252
919.494	14438
919.604	14602
919.715	14355
919.826	14294
919.936	14339
920.047	14347
920.157	14370
920.267	14610
920.378	14343
920.488	14294
920.598	14457
920.708	14640
920.818	14522
920.928	14488
921.038	14674
921.148	14689
921.258	14271
921.368	14187
921.477	14058
921.587	14073
921.697	14001
921.806	14054
921.916	13970
922.025	13845
922.134	13776
922.244	13700
922.353	13795
922.462	13616
922.571	13620
922.68	13457
922.789	13422
922.898	13384
923.007	13285
923.116	13434
923.224	13381
923.333	13335
923.442	13263
923.55	13240
923.659	13209
923.767	13232
923.876	13133
923.984	13251
924.092	13061
924.201	13160
924.309	13145
924.417	13190
924.525	13004
924.633	13088
924.741	13822
924.849	12897
924.956	12989
925.064	12905
925.172	12871
925.279	12840
925.387	12848
925.494	12814
925.602	12882
925.709	12844
925.816	12654
925.924	12821
926.031	12829
926.138	12757
926.245	12821
926.352	12642
926.459	12795
926.566	12852
926.673	12692
926.779	12555
926.886	12654
926.993	12407
927.099	12399
927.206	12300
927.312	12388
927.419	12422
927.525	12361
927.631	12426
927.737	12277
927.843	12171
927.95	12148
928.056	12205
928.162	12235
928.267	12273
928.373	12909
928.479	12350
928.585	12098
928.69	12209
928.796	12194
928.901	12144
929.007	11931
929.112	12163
929.218	11916
929.323	12026
929.428	11874
929.533	12140
929.638	11863
929.743	11843
929.848	11901
929.953	11836
930.058	11767
930.163	11649
930.267	11592
930.372	11840
930.477	11543
930.581	11847
930.685	11737
930.79	11581
930.894	11547
930.998	11493
931.103	11596
931.207	11288
931.311	11193
931.415	11105
931.519	10919
931.623	10877
