Data from test_V78500241_2248.txt Node
Date: Fri Mar 25 15:57:22 CST 2022
User: usil
Spectrometer: V785-0024
Trigger mode: 0
Integration Time (sec): 4.000000E-1
Scans to average: 1
Nonlinearity correction enabled: false
Boxcar width: 0
Storing dark spectrum: false
XAxis mode: Wavelengths
Number of Pixels in Spectrum: 1024
>>>>>Begin Spectral Data<<<<<
801.071	28869
801.214	28828
801.356	28672
801.499	28436
801.641	28462
801.783	28596
801.926	28413
802.068	28512
802.211	28401
802.353	28379
802.496	28230
802.638	28268
802.78	28215
802.923	28166
803.065	28082
803.208	28055
803.35	28196
803.492	28398
803.635	28375
803.777	28333
803.919	28379
804.061	28729
804.204	28573
804.346	28455
804.488	28306
804.63	28363
804.773	28303
804.915	28531
805.057	28607
805.199	28348
805.341	28573
805.483	28577
805.626	28527
805.768	28401
805.91	28721
806.052	28672
806.194	28474
806.336	28888
806.478	28577
806.62	28493
806.762	28771
806.904	28946
807.046	29170
807.188	28847
807.33	29132
807.472	29083
807.614	29071
807.756	29102
807.898	28896
808.04	28816
808.182	28843
808.324	28896
808.465	29029
808.607	29140
808.749	29311
808.891	29349
809.033	29368
809.174	29334
809.316	29254
809.458	29326
809.6	29239
809.741	29539
809.883	29383
810.025	29585
810.166	29520
810.308	29646
810.45	29524
810.591	29448
810.733	29330
810.875	29239
811.016	29288
811.158	29254
811.299	29364
811.441	29391
811.582	29482
811.724	29269
811.865	29375
812.007	29220
812.148	29360
812.29	29345
812.431	29486
812.573	29551
812.714	29543
812.855	29771
812.997	29893
813.138	30083
813.279	30011
813.421	29855
813.562	29870
813.703	29767
813.845	29573
813.986	29364
814.127	29143
814.268	28999
814.41	29033
814.551	28972
814.692	29025
814.833	28923
814.974	28923
815.115	29022
815.256	28778
815.397	29003
815.539	28923
815.68	28820
815.821	28675
815.962	28793
816.103	28854
816.244	28763
816.385	28531
816.526	28645
816.666	28417
816.807	28291
816.948	28341
817.089	28432
817.23	28341
817.371	28417
817.512	28382
817.653	28341
817.793	28234
817.934	28284
818.075	28455
818.216	28295
818.356	28284
818.497	28177
818.638	28158
818.778	28097
818.919	28185
819.06	28135
819.2	28390
819.341	28299
819.481	28375
819.622	28573
819.762	28831
819.903	28508
820.043	28611
820.184	28519
820.324	28538
820.465	28561
820.605	28489
820.746	28531
820.886	28367
821.026	28333
821.167	28443
821.307	28546
821.447	28261
821.588	28253
821.728	28105
821.868	27941
822.008	27857
822.149	27888
822.289	27819
822.429	27545
822.569	27386
822.709	27447
822.849	27249
822.99	27462
823.13	27344
823.27	27420
823.41	27207
823.55	27001
823.69	27116
823.83	27226
823.97	27131
824.11	26937
824.25	27009
824.389	27001
824.529	27081
824.669	26925
824.809	27093
824.949	27081
825.089	27119
825.228	27112
825.368	26804
825.508	26708
825.648	26872
825.787	26914
825.927	26883
826.067	26899
826.206	26781
826.346	26864
826.485	26994
826.625	26895
826.765	26925
826.904	26910
827.044	26746
827.183	26583
827.323	26530
827.462	26644
827.601	26648
827.741	26621
827.88	26644
828.02	26446
828.159	26530
828.298	26609
828.437	26571
828.577	26526
828.716	26606
828.855	26476
828.994	26278
829.134	26191
829.273	26362
829.412	26324
829.551	26218
829.69	26275
829.829	26393
829.968	26301
830.107	26248
830.246	26164
830.385	26195
830.524	26111
830.663	26157
830.802	26092
830.941	25890
831.08	25769
831.219	25974
831.357	25906
831.496	26100
831.635	25921
831.774	25856
831.913	25731
832.051	25704
832.19	25601
832.329	25712
832.467	25632
832.606	25544
832.744	25419
832.883	25457
833.022	25548
833.16	25457
833.299	25624
833.437	25510
833.576	25651
833.714	25639
833.852	25639
833.991	25765
834.129	25685
834.267	25662
834.406	25578
834.544	25651
834.682	25651
834.821	25620
834.959	25795
835.097	25635
835.235	25624
835.373	25594
835.511	25499
835.65	25479
835.788	25571
835.926	25255
836.064	25133
836.202	25278
836.34	25483
836.478	25487
836.615	25377
836.753	25422
836.891	25403
837.029	25358
837.167	25266
837.305	25293
837.443	25282
837.58	25221
837.718	25422
837.856	25232
837.993	25152
838.131	25240
838.269	25145
838.406	25221
838.544	24920
838.681	24859
838.819	24764
838.956	24798
839.094	24677
839.231	24726
839.369	25065
839.506	25160
839.643	24970
839.781	24658
839.918	24646
840.055	24696
840.193	24658
840.33	24700
840.467	24460
840.604	24757
840.742	24924
840.879	24604
841.016	24544
841.153	24448
841.29	24722
841.427	24715
841.564	24589
841.701	24555
841.838	24445
841.975	24502
842.112	24646
842.249	24414
842.385	24391
842.522	24532
842.659	24502
842.796	24395
842.933	24319
843.069	24376
843.206	24228
843.343	24361
843.479	24300
843.616	24350
843.752	24083
843.889	24197
844.025	24190
844.162	24041
844.298	24232
844.435	24098
844.571	24076
844.708	24083
844.844	24296
844.98	24121
845.117	24220
845.253	23999
845.389	23977
845.525	24136
845.661	24030
845.798	23889
845.934	23904
846.07	23912
846.206	23954
846.342	23996
846.478	23885
846.614	23627
846.75	23539
846.886	23638
847.022	23680
847.158	23589
847.294	23627
847.429	23596
847.565	23444
847.701	23843
847.837	23322
847.972	23288
848.108	23414
848.244	23387
848.379	23235
848.515	23044
848.65	23197
848.786	23143
848.921	23185
849.057	23258
849.192	23181
849.328	23189
849.463	23056
849.598	23143
849.734	23143
849.869	22946
850.004	22946
850.14	22896
850.275	23010
850.41	22713
850.545	22908
850.68	22927
850.815	22991
850.95	22934
851.085	23083
851.22	22980
851.355	23056
851.49	22828
851.625	22991
851.76	22869
851.895	22748
852.03	22854
852.165	22854
852.299	22911
852.434	22961
852.569	23094
852.703	22946
852.838	22866
852.973	23113
853.107	22953
853.242	22942
853.376	22778
853.511	22831
853.645	22706
853.78	22866
853.914	22740
854.048	22725
854.183	22736
854.317	22847
854.451	22930
854.585	22736
854.72	22835
854.854	22824
854.988	22599
855.122	22740
855.256	22744
855.39	22717
855.524	22774
855.658	22736
855.792	22843
855.926	22790
856.06	22721
856.194	22854
856.327	22698
856.461	22656
856.595	22702
856.729	22698
856.862	22812
856.996	22713
857.13	22759
857.263	22809
857.397	22736
857.53	22622
857.664	22790
857.797	22869
857.931	22816
858.064	22782
858.197	22713
858.331	22862
858.464	22675
858.597	22561
858.731	22668
858.864	22675
858.997	22710
859.13	22733
859.263	22702
859.396	22820
859.529	22538
859.662	22668
859.795	22733
859.928	22786
860.061	22877
860.194	22961
860.327	22904
860.46	22740
860.592	22881
860.725	22984
860.858	22949
860.99	22904
861.123	22588
861.256	22706
861.388	22805
861.521	23337
861.653	22535
861.786	22611
861.918	22554
862.05	22561
862.183	22733
862.315	22793
862.447	22782
862.58	22672
862.712	22508
862.844	22428
862.976	22557
863.108	22542
863.24	22930
863.372	22405
863.504	22379
863.636	22344
863.768	22382
863.9	22523
864.032	22474
864.164	22421
864.296	22440
864.428	22538
864.559	22394
864.691	22588
864.823	22470
864.954	22295
865.086	22299
865.217	22276
865.349	22287
865.48	22329
865.612	22303
865.743	22500
865.875	22310
866.006	22272
866.137	22348
866.269	22337
866.4	22394
866.531	22215
866.662	22261
866.793	22280
866.924	22181
867.055	22177
867.186	22219
867.317	22242
867.448	22147
867.579	22185
867.71	22188
867.841	22162
867.972	22200
868.103	22253
868.233	22185
868.364	22181
868.495	22337
868.625	22386
868.756	22577
868.886	22440
869.017	22508
869.147	22736
869.278	22630
869.408	22474
869.539	22424
869.669	22645
869.799	22382
869.929	22691
870.06	22508
870.19	22748
870.32	22778
870.45	22900
870.58	22847
870.71	23003
870.84	22987
870.97	22904
871.1	22991
871.23	22999
871.36	23060
871.489	23079
871.619	23132
871.749	23075
871.879	23113
872.008	23052
872.138	23033
872.267	23048
872.397	22908
872.526	22915
872.656	22911
872.785	22881
872.915	23079
873.044	23143
873.173	23121
873.303	23113
873.432	23265
873.561	23147
873.69	23105
873.819	22904
873.948	23189
874.077	23124
874.206	23014
874.335	23033
874.464	23356
874.593	23356
874.722	23414
874.851	23452
874.979	23379
875.108	23345
875.237	23212
875.365	23151
875.494	23318
875.623	23284
875.751	23185
875.88	23307
876.008	23493
876.136	23558
876.265	23630
876.393	23942
876.521	23771
876.65	23885
876.778	23722
876.906	23646
877.034	23691
877.162	23638
877.29	23600
877.418	23748
877.546	23638
877.674	23653
877.802	23630
877.93	23512
878.058	23634
878.185	23676
878.313	23554
878.441	23684
878.568	23360
878.696	23589
878.824	23585
878.951	23703
879.079	23821
879.206	23942
879.333	23775
879.461	23699
879.588	23729
879.715	23775
879.842	23904
879.97	23779
880.097	23444
880.224	23444
880.351	23455
880.478	23478
880.605	23414
880.732	23440
880.859	23630
880.986	23547
881.112	23558
881.239	23303
881.366	23246
881.493	23204
881.619	23083
881.746	22953
881.872	22999
881.999	23071
882.125	23022
882.252	22976
882.378	22790
882.505	23086
882.631	22824
882.757	22896
882.883	22752
883.01	22744
883.136	22607
883.262	22538
883.388	22565
883.514	22748
883.64	22702
883.766	22569
883.892	22409
884.018	22413
884.143	22573
884.269	22668
884.395	22390
884.52	22363
884.646	22344
884.772	22143
884.897	22242
885.023	22234
885.148	22375
885.274	22493
885.399	22428
885.524	22306
885.65	22440
885.775	22382
885.9	22291
886.025	22413
886.15	22402
886.275	22265
886.4	22284
886.525	22318
886.65	22257
886.775	22265
886.9	22428
887.025	22584
887.149	22238
887.274	22181
887.399	22025
887.523	22078
887.648	21972
887.773	21960
887.897	22055
888.021	22124
888.146	22070
888.27	22158
888.395	22200
888.519	22090
888.643	22067
888.767	22002
888.891	22048
889.015	21968
889.139	22025
889.263	21876
889.387	22010
889.511	22162
889.635	21930
889.759	21808
889.883	21793
890.006	21907
890.13	21994
890.254	21743
890.377	21812
890.501	21576
890.624	21511
890.748	21686
890.871	21523
890.995	21287
891.118	21344
891.241	21367
891.364	21272
891.488	21542
891.611	21367
891.734	21439
891.857	21488
891.98	21329
892.103	21401
892.226	21439
892.349	21393
892.471	21112
892.594	21401
892.717	21389
892.839	21180
892.962	21336
893.085	21397
893.207	21344
893.33	21203
893.452	21218
893.575	21226
893.697	21195
893.819	21374
893.941	21408
894.064	21382
894.186	21306
894.308	21188
894.43	21420
894.552	21435
894.674	21279
894.796	21138
894.918	21351
895.04	21207
895.161	21313
895.283	21310
895.405	21203
895.526	21199
895.648	21317
895.769	21245
895.891	21199
896.012	21348
896.134	21412
896.255	21325
896.376	21119
896.498	21291
896.619	21447
896.74	21169
896.861	21252
896.982	21595
897.103	21739
897.224	21488
897.345	21481
897.466	21397
897.587	21412
897.708	21583
897.828	21428
897.949	21507
898.07	21294
898.19	21222
898.311	21576
898.431	21477
898.552	21412
898.672	21538
898.792	21511
898.913	21370
899.033	21382
899.153	21310
899.273	21165
899.393	21275
899.513	21272
899.633	21165
899.753	21173
899.873	21089
899.993	21264
900.113	21203
900.232	21264
900.352	20994
900.472	21032
900.591	20998
900.711	21089
900.83	20956
900.95	21032
901.069	20944
901.189	20853
901.308	20663
901.427	20518
901.546	20507
901.665	20568
901.784	20469
901.904	20408
902.023	20320
902.141	20103
902.26	19974
902.379	20115
902.498	20088
902.617	20001
902.735	20077
902.854	19940
902.973	20005
903.091	19655
903.21	19753
903.328	19655
903.446	19571
903.565	19639
903.683	19434
903.801	19350
903.919	19480
904.038	19365
904.156	19263
904.274	19362
904.392	19198
904.51	19225
904.627	19251
904.745	19270
904.863	19270
904.981	18973
905.098	18920
905.216	18954
905.334	18916
905.451	18962
905.569	18806
905.686	18970
905.803	18897
905.921	18646
906.038	18829
906.155	18650
906.272	18544
906.389	18578
906.506	18414
906.623	18502
906.74	18407
906.857	18338
906.974	18281
907.091	18479
907.208	18513
907.324	18433
907.441	18251
907.557	18232
907.674	18167
907.79	18057
907.907	18083
908.023	18216
908.139	18091
908.256	18087
908.372	17984
908.488	17977
908.604	17798
908.72	17756
908.836	17783
908.952	17821
909.068	17824
909.184	17977
909.3	17954
909.415	17897
909.531	17843
909.647	17600
909.762	17524
909.878	17509
909.993	17566
910.108	17551
910.224	17539
910.339	17543
910.454	17414
910.57	17330
910.685	17246
910.8	17459
910.915	17452
911.03	17406
911.145	17162
911.259	17136
911.374	17033
911.489	17086
911.604	16949
911.718	16934
911.833	16854
911.947	16706
912.062	16729
912.176	16839
912.291	16900
912.405	16896
912.519	17079
912.633	17140
912.748	16850
912.862	16759
912.976	16717
913.09	16630
913.204	16596
913.318	16656
913.431	16786
913.545	16809
913.659	16919
913.772	16622
913.886	16466
914	16493
914.113	16596
914.226	16588
914.34	16474
914.453	16363
914.566	16451
914.68	16287
914.793	16367
914.906	16226
915.019	16120
915.132	16044
915.245	15979
915.358	16036
915.47	15945
915.583	16131
915.696	16150
915.809	16181
915.921	16128
916.034	16010
916.146	15915
916.259	15922
916.371	16116
916.483	15983
916.595	15873
916.708	15949
916.82	15865
916.932	15899
917.044	15823
917.156	15778
917.268	15747
917.38	15698
917.491	15633
917.603	15690
917.715	15762
917.826	15804
917.938	15629
918.049	15526
918.161	15656
918.272	15785
918.384	15728
918.495	15587
918.606	15526
918.717	15431
918.828	15454
918.939	15485
919.05	15378
919.161	15424
919.272	15188
919.383	15237
919.494	15435
919.604	15671
919.715	15363
919.826	15363
919.936	15336
920.047	15310
920.157	15310
920.267	15618
920.378	15298
920.488	15332
920.598	15515
920.708	15671
920.818	15454
920.928	15462
921.038	15644
921.148	15576
921.258	15294
921.368	15230
921.477	15085
921.587	15020
921.697	14921
921.806	15047
921.916	14918
922.025	14785
922.134	14724
922.244	14765
922.353	14792
922.462	14579
922.571	14537
922.68	14431
922.789	14385
922.898	14332
923.007	14343
923.116	14415
923.224	14313
923.333	14278
923.442	14336
923.55	14172
923.659	14286
923.767	14221
923.876	14202
923.984	14237
924.092	14046
924.201	14065
924.309	14031
924.417	14001
924.525	14054
924.633	13967
924.741	14781
924.849	13833
924.956	13875
925.064	13772
925.172	13750
925.279	13753
925.387	13742
925.494	13685
925.602	13830
925.709	13693
925.816	13556
925.924	13715
926.031	13795
926.138	13655
926.245	13681
926.352	13578
926.459	13620
926.566	13712
926.673	13514
926.779	13495
926.886	13457
926.993	13293
927.099	13289
927.206	13179
927.312	13240
927.419	13259
927.525	13289
927.631	13209
927.737	13000
927.843	13061
927.95	12901
928.056	13050
928.162	13099
928.267	13080
928.373	13776
928.479	13149
928.585	12882
928.69	12962
928.796	13084
928.901	12943
929.007	12703
929.112	12973
929.218	12871
929.323	12669
929.428	12741
929.533	12913
929.638	12642
929.743	12734
929.848	12768
929.953	12722
930.058	12582
930.163	12498
930.267	12540
930.372	12547
930.477	12460
930.581	12658
930.685	12563
930.79	12372
930.894	12410
930.998	12266
931.103	12391
931.207	12015
931.311	11992
931.415	11950
931.519	11710
931.623	11710
