Data from test_V78500241_2434.txt Node
Date: Fri Mar 25 15:58:39 CST 2022
User: usil
Spectrometer: V785-0024
Trigger mode: 0
Integration Time (sec): 4.000000E-1
Scans to average: 1
Nonlinearity correction enabled: false
Boxcar width: 0
Storing dark spectrum: false
XAxis mode: Wavelengths
Number of Pixels in Spectrum: 1024
>>>>>Begin Spectral Data<<<<<
801.071	28824
801.214	28740
801.356	28504
801.499	28512
801.641	28306
801.783	28451
801.926	28382
802.068	28295
802.211	28219
802.353	28242
802.496	28097
802.638	28017
802.78	28135
802.923	27979
803.065	27865
803.208	28036
803.35	28067
803.492	28143
803.635	28401
803.777	28093
803.919	28325
804.061	28573
804.204	28352
804.346	28211
804.488	28265
804.63	28257
804.773	28242
804.915	28341
805.057	28550
805.199	28348
805.341	28417
805.483	28497
805.626	28485
805.768	28401
805.91	28569
806.052	28561
806.194	28481
806.336	28664
806.478	28523
806.62	28497
806.762	28679
806.904	28824
807.046	28999
807.188	28831
807.33	28831
807.472	29010
807.614	28866
807.756	28961
807.898	28930
808.04	28694
808.182	28660
808.324	28892
808.465	28999
808.607	28946
808.749	29216
808.891	29261
809.033	29330
809.174	29311
809.316	29265
809.458	29193
809.6	29014
809.741	29220
809.883	29337
810.025	29467
810.166	29535
810.308	29395
810.45	29421
810.591	29311
810.733	29265
810.875	29231
811.016	29174
811.158	29090
811.299	29280
811.441	29375
811.582	29284
811.724	29166
811.865	29033
812.007	29170
812.148	29307
812.29	29181
812.431	29471
812.573	29570
812.714	29786
812.855	29752
812.997	29878
813.138	30098
813.279	29786
813.421	29646
813.562	29634
813.703	29497
813.845	29490
813.986	29197
814.127	29029
814.268	28854
814.41	28930
814.551	28949
814.692	28968
814.833	28908
814.974	28748
815.115	28873
815.256	28710
815.397	28691
815.539	28805
815.68	28729
815.821	28573
815.962	28763
816.103	28721
816.244	28573
816.385	28516
816.526	28485
816.666	28440
816.807	28177
816.948	28299
817.089	28386
817.23	28238
817.371	28253
817.512	28272
817.653	28067
817.793	28219
817.934	28211
818.075	28211
818.216	28246
818.356	28116
818.497	28082
818.638	27945
818.778	27918
818.919	27895
819.06	28120
819.2	28150
819.341	28280
819.481	28329
819.622	28405
819.762	28542
819.903	28489
820.043	28413
820.184	28405
820.324	28436
820.465	28497
820.605	28299
820.746	28253
820.886	28299
821.026	28436
821.167	28401
821.307	28375
821.447	28265
821.588	28078
821.728	28158
821.868	27907
822.008	27762
822.149	27736
822.289	27747
822.429	27549
822.569	27393
822.709	27268
822.849	27268
822.99	27214
823.13	27154
823.27	27100
823.41	27024
823.55	26899
823.69	27024
823.83	27062
823.97	27024
824.11	26857
824.25	26838
824.389	26895
824.529	26876
824.669	26849
824.809	27017
824.949	27005
825.089	26910
825.228	27017
825.368	26769
825.508	26720
825.648	26883
825.787	26807
825.927	26834
826.067	26788
826.206	26807
826.346	26777
826.485	26834
826.625	26724
826.765	26845
826.904	26765
827.044	26530
827.183	26537
827.323	26530
827.462	26518
827.601	26560
827.741	26412
827.88	26545
828.02	26294
828.159	26579
828.298	26377
828.437	26583
828.577	26476
828.716	26568
828.855	26495
828.994	26176
829.134	26130
829.273	26221
829.412	26134
829.551	25993
829.69	26172
829.829	26134
829.968	26324
830.107	26172
830.246	26267
830.385	26008
830.524	26111
830.663	25955
830.802	25868
830.941	25712
831.08	25731
831.219	25693
831.357	25837
831.496	26054
831.635	25868
831.774	25719
831.913	25586
832.051	25529
832.19	25529
832.329	25658
832.467	25365
832.606	25392
832.744	25365
832.883	25350
833.022	25304
833.16	25445
833.299	25479
833.437	25419
833.576	25613
833.714	25578
833.852	25354
833.991	25628
834.129	25563
834.267	25537
834.406	25525
834.544	25613
834.682	25377
834.821	25438
834.959	25624
835.097	25392
835.235	25479
835.373	25487
835.511	25487
835.65	25400
835.788	25354
835.926	25282
836.064	25198
836.202	25259
836.34	25289
836.478	25331
836.615	25297
836.753	25365
836.891	25369
837.029	25362
837.167	25331
837.305	25179
837.443	25171
837.58	25206
837.718	25156
837.856	25339
837.993	25137
838.131	25095
838.269	24890
838.406	25053
838.544	24989
838.681	24802
838.819	24837
838.956	24601
839.094	24620
839.231	24555
839.369	24837
839.506	25065
839.643	24787
839.781	24776
839.918	24593
840.055	24589
840.193	24669
840.33	24505
840.467	24528
840.604	24467
840.742	24768
840.879	24330
841.016	24437
841.153	24395
841.29	24460
841.427	24475
841.564	24505
841.701	24513
841.838	24464
841.975	24464
842.112	24426
842.249	24292
842.385	24319
842.522	24536
842.659	24327
842.796	24338
842.933	24266
843.069	24270
843.206	24285
843.343	24308
843.479	24399
843.616	24266
843.752	24091
843.889	24034
844.025	24121
844.162	24045
844.298	24121
844.435	24007
844.571	24030
844.708	24003
844.844	24190
844.98	24163
845.117	24087
845.253	24060
845.389	23866
845.525	23904
845.661	23996
845.798	23786
845.934	23752
846.07	23707
846.206	23764
846.342	23878
846.478	23764
846.614	23497
846.75	23520
846.886	23482
847.022	23520
847.158	23402
847.294	23429
847.429	23577
847.565	23482
847.701	23676
847.837	23235
847.972	23102
848.108	23425
848.244	23250
848.379	23090
848.515	23018
848.65	23048
848.786	23041
848.921	23079
849.057	23200
849.192	23227
849.328	23143
849.463	23022
849.598	22953
849.734	22915
849.869	22900
850.004	22862
850.14	22885
850.275	22835
850.41	22793
850.545	22831
850.68	22850
850.815	22748
850.95	22961
851.085	22980
851.22	22866
851.355	22900
851.49	22763
851.625	22831
851.76	22744
851.895	22774
852.03	22687
852.165	22847
852.299	22885
852.434	22809
852.569	22908
852.703	22828
852.838	22984
852.973	22991
853.107	22904
853.242	22809
853.376	22649
853.511	22622
853.645	22630
853.78	22774
853.914	22694
854.048	22641
854.183	22618
854.317	22729
854.451	22892
854.585	22755
854.72	22634
854.854	22752
854.988	22607
855.122	22763
855.256	22512
855.39	22603
855.524	22675
855.658	22744
855.792	22656
855.926	22717
856.06	22771
856.194	22752
856.327	22710
856.461	22744
856.595	22531
856.729	22634
856.862	22721
856.996	22755
857.13	22664
857.263	22816
857.397	22656
857.53	22725
857.664	22774
857.797	22733
857.931	22805
858.064	22660
858.197	22744
858.331	22634
858.464	22615
858.597	22603
858.731	22622
858.864	22691
858.997	22694
859.13	22710
859.263	22687
859.396	22675
859.529	22672
859.662	22713
859.795	22691
859.928	22656
860.061	22896
860.194	22953
860.327	22782
860.46	22793
860.592	22729
860.725	22809
860.858	22900
860.99	22778
861.123	22531
861.256	22656
861.388	22672
861.521	23448
861.653	22596
861.786	22516
861.918	22489
862.05	22611
862.183	22596
862.315	22702
862.447	22596
862.58	22512
862.712	22478
862.844	22329
862.976	22409
863.108	22508
863.24	22801
863.372	22223
863.504	22253
863.636	22394
863.768	22306
863.9	22329
864.032	22329
864.164	22375
864.296	22333
864.428	22413
864.559	22409
864.691	22512
864.823	22462
864.954	22348
865.086	22276
865.217	22398
865.349	22211
865.48	22215
865.612	22173
865.743	22417
865.875	22230
866.006	22310
866.137	22318
866.269	22287
866.4	22223
866.531	22207
866.662	22082
866.793	22131
866.924	22253
867.055	22276
867.186	22158
867.317	22093
867.448	22173
867.579	22150
867.71	22051
867.841	22128
867.972	22188
868.103	22131
868.233	22169
868.364	22169
868.495	22246
868.625	22432
868.756	22641
868.886	22417
869.017	22470
869.147	22561
869.278	22497
869.408	22413
869.539	22417
869.669	22493
869.799	22436
869.929	22557
870.06	22584
870.19	22706
870.32	22793
870.45	22706
870.58	22930
870.71	22942
870.84	22980
870.97	22869
871.1	22847
871.23	23022
871.36	23075
871.489	22869
871.619	23178
871.749	23033
871.879	23010
872.008	23132
872.138	23132
872.267	22911
872.397	22949
872.526	22820
872.656	22839
872.785	22854
872.915	23056
873.044	23162
873.173	23083
873.303	23056
873.432	23117
873.561	23185
873.69	23075
873.819	23075
873.948	23143
874.077	22911
874.206	22965
874.335	23056
874.464	23227
874.593	23231
874.722	23079
874.851	23269
874.979	23265
875.108	23345
875.237	23155
875.365	23079
875.494	23258
875.623	23242
875.751	23208
875.88	23258
876.008	23410
876.136	23505
876.265	23733
876.393	23798
876.521	23684
876.65	23760
876.778	23646
876.906	23634
877.034	23577
877.162	23764
877.29	23474
877.418	23646
877.546	23570
877.674	23547
877.802	23596
877.93	23543
878.058	23585
878.185	23433
878.313	23486
878.441	23589
878.568	23402
878.696	23547
878.824	23562
878.951	23710
879.079	23756
879.206	23889
879.333	23779
879.461	23611
879.588	23756
879.715	23756
879.842	23927
879.97	23710
880.097	23353
880.224	23440
880.351	23360
880.478	23417
880.605	23364
880.732	23299
880.859	23581
880.986	23474
881.112	23330
881.239	23376
881.366	23170
881.493	23109
881.619	22980
881.746	22953
881.872	23060
881.999	22896
882.125	22923
882.252	22949
882.378	23003
882.505	23048
882.631	22740
882.757	22736
882.883	22713
883.01	22664
883.136	22687
883.262	22462
883.388	22508
883.514	22580
883.64	22721
883.766	22580
883.892	22341
884.018	22546
884.143	22535
884.269	22596
884.395	22409
884.52	22257
884.646	22306
884.772	22181
884.897	22230
885.023	22268
885.148	22280
885.274	22440
885.399	22394
885.524	22344
885.65	22234
885.775	22185
885.9	22204
886.025	22325
886.15	22489
886.275	22310
886.4	22112
886.525	22268
886.65	22287
886.775	22173
886.9	22291
887.025	22436
887.149	22303
887.274	22097
887.399	22032
887.523	22059
887.648	21956
887.773	21827
887.897	22154
888.021	22101
888.146	21895
888.27	22276
888.395	22215
888.519	22090
888.643	22097
888.767	22128
888.891	21915
889.015	21869
889.139	21972
889.263	21728
889.387	21899
889.511	21987
889.635	21865
889.759	21736
889.883	21800
890.006	21778
890.13	22013
890.254	21728
890.377	21793
890.501	21660
890.624	21576
890.748	21542
890.871	21424
890.995	21340
891.118	21287
891.241	21370
891.364	21382
891.488	21553
891.611	21317
891.734	21268
891.857	21374
891.98	21382
892.103	21496
892.226	21386
892.349	21283
892.471	21298
892.594	21340
892.717	21211
892.839	21154
892.962	21154
893.085	21294
893.207	21249
893.33	21116
893.452	21211
893.575	21268
893.697	21268
893.819	21405
893.941	21473
894.064	21359
894.186	21146
894.308	21211
894.43	21310
894.552	21348
894.674	21329
894.796	21226
894.918	21214
895.04	21188
895.161	21291
895.283	21378
895.405	21272
895.526	21207
895.648	21245
895.769	21283
895.891	21291
896.012	21321
896.134	21268
896.255	21180
896.376	21032
896.498	21226
896.619	21135
896.74	21184
896.861	21275
896.982	21454
897.103	21671
897.224	21473
897.345	21485
897.466	21344
897.587	21477
897.708	21557
897.828	21408
897.949	21431
898.07	21211
898.19	21447
898.311	21481
898.431	21386
898.552	21359
898.672	21469
898.792	21443
898.913	21401
899.033	21203
899.153	21184
899.273	21161
899.393	21192
899.513	21176
899.633	21127
899.753	21119
899.873	21123
899.993	21055
900.113	21154
900.232	21131
900.352	20998
900.472	20876
900.591	20880
900.711	20929
900.83	20876
900.95	20994
901.069	20823
901.189	20765
901.308	20541
901.427	20476
901.546	20571
901.665	20431
901.784	20511
901.904	20324
902.023	20328
902.141	20100
902.26	19925
902.379	20012
902.498	19989
902.617	19959
902.735	20096
902.854	19890
902.973	19887
903.091	19753
903.21	19639
903.328	19712
903.446	19483
903.565	19426
903.683	19430
903.801	19407
903.919	19506
904.038	19350
904.156	19213
904.274	19190
904.392	19232
904.51	19168
904.627	19118
904.745	19285
904.863	19156
904.981	18954
905.098	18844
905.216	18882
905.334	18863
905.451	18882
905.569	18856
905.686	18844
905.803	18856
905.921	18661
906.038	18798
906.155	18646
906.272	18525
906.389	18506
906.506	18467
906.623	18498
906.74	18467
906.857	18342
906.974	18285
907.091	18372
907.208	18475
907.324	18388
907.441	18216
907.557	18121
907.674	18102
907.79	18072
907.907	18106
908.023	18121
908.139	18091
908.256	18041
908.372	18064
908.488	17969
908.604	17847
908.72	17760
908.836	18011
908.952	17794
909.068	17790
909.184	17832
909.3	17828
909.415	17874
909.531	17790
909.647	17570
909.762	17493
909.878	17436
909.993	17482
910.108	17562
910.224	17493
910.339	17471
910.454	17482
910.57	17318
910.685	17364
910.8	17474
910.915	17410
911.03	17299
911.145	17048
911.259	17029
911.374	17132
911.489	17079
911.604	17022
911.718	16782
911.833	16744
911.947	16713
912.062	16618
912.176	16812
912.291	16881
912.405	16812
912.519	16919
912.633	17037
912.748	16725
912.862	16755
912.976	16687
913.09	16584
913.204	16546
913.318	16630
913.431	16763
913.545	16641
913.659	16679
913.772	16554
913.886	16459
914	16375
914.113	16504
914.226	16516
914.34	16333
914.453	16379
914.566	16337
914.68	16356
914.793	16204
914.906	16101
915.019	16063
915.132	15983
915.245	15930
915.358	16029
915.47	15945
915.583	15892
915.696	16013
915.809	16112
915.921	15987
916.034	16067
916.146	15975
916.259	15766
916.371	15907
916.483	15888
916.595	15899
916.708	15778
916.82	15781
916.932	15732
917.044	15785
917.156	15854
917.268	15488
917.38	15622
917.491	15504
917.603	15622
917.715	15610
917.826	15789
917.938	15580
918.049	15500
918.161	15504
918.272	15701
918.384	15629
918.495	15523
918.606	15443
918.717	15359
918.828	15420
918.939	15450
919.05	15359
919.161	15351
919.272	15116
919.383	15226
919.494	15469
919.604	15507
919.715	15230
919.826	15249
919.936	15207
920.047	15336
920.157	15317
920.267	15530
920.378	15393
920.488	15317
920.598	15473
920.708	15538
920.818	15523
920.928	15477
921.038	15595
921.148	15576
921.258	15199
921.368	15165
921.477	15055
921.587	15074
921.697	14902
921.806	15097
921.916	14857
922.025	14758
922.134	14712
922.244	14731
922.353	14769
922.462	14629
922.571	14427
922.68	14362
922.789	14305
922.898	14358
923.007	14248
923.116	14305
923.224	14309
923.333	14324
923.442	14149
923.55	14142
923.659	14157
923.767	14130
923.876	14149
923.984	14221
924.092	14016
924.201	14092
924.309	14031
924.417	14088
924.525	13955
924.633	14077
924.741	14758
924.849	13795
924.956	13894
925.064	13833
925.172	13719
925.279	13791
925.387	13772
925.494	13662
925.602	13674
925.709	13655
925.816	13670
925.924	13628
926.031	13704
926.138	13632
926.245	13700
926.352	13567
926.459	13613
926.566	13655
926.673	13578
926.779	13506
926.886	13407
926.993	13308
927.099	13327
927.206	13228
927.312	13152
927.419	13221
927.525	13270
927.631	13209
927.737	13129
927.843	13080
927.95	13012
928.056	13034
928.162	13122
928.267	13095
928.373	13636
928.479	13171
928.585	12844
928.69	12939
928.796	12993
928.901	12905
929.007	12749
929.112	12875
929.218	12814
929.323	12779
929.428	12681
929.533	12909
929.638	12559
929.743	12696
929.848	12711
929.953	12616
930.058	12555
930.163	12281
930.267	12426
930.372	12528
930.477	12346
930.581	12528
930.685	12403
930.79	12296
930.894	12376
930.998	12190
931.103	12380
931.207	12041
931.311	12030
931.415	11958
931.519	11680
931.623	11649
