Data from test_V78500241_3285.txt Node
Date: Fri Mar 25 16:04:33 CST 2022
User: usil
Spectrometer: V785-0024
Trigger mode: 0
Integration Time (sec): 4.000000E-1
Scans to average: 1
Nonlinearity correction enabled: false
Boxcar width: 0
Storing dark spectrum: false
XAxis mode: Wavelengths
Number of Pixels in Spectrum: 1024
>>>>>Begin Spectral Data<<<<<
801.071	28801
801.214	28656
801.356	28489
801.499	28451
801.641	28333
801.783	28363
801.926	28253
802.068	28356
802.211	28253
802.353	28215
802.496	27987
802.638	28067
802.78	28036
802.923	27953
803.065	27888
803.208	28036
803.35	27945
803.492	28268
803.635	28295
803.777	28154
803.919	28154
804.061	28569
804.204	28287
804.346	28211
804.488	28070
804.63	28230
804.773	28200
804.915	28344
805.057	28417
805.199	28341
805.341	28295
805.483	28356
805.626	28291
805.768	28360
805.91	28432
806.052	28390
806.194	28325
806.336	28519
806.478	28466
806.62	28542
806.762	28504
806.904	28687
807.046	28888
807.188	28949
807.33	28820
807.472	28900
807.614	28885
807.756	28873
807.898	28706
808.04	28668
808.182	28641
808.324	28706
808.465	28683
808.607	28976
808.749	29086
808.891	29204
809.033	29345
809.174	29109
809.316	29060
809.458	29231
809.6	28968
809.741	29303
809.883	29345
810.025	29474
810.166	29444
810.308	29444
810.45	29345
810.591	29341
810.733	29189
810.875	29216
811.016	29159
811.158	29006
811.299	29223
811.441	29303
811.582	29273
811.724	29136
811.865	29029
812.007	29254
812.148	29162
812.29	29239
812.431	29265
812.573	29482
812.714	29539
812.855	29577
812.997	29790
813.138	29851
813.279	29855
813.421	29657
813.562	29608
813.703	29467
813.845	29387
813.986	29056
814.127	28892
814.268	28850
814.41	28824
814.551	28786
814.692	29010
814.833	28949
814.974	28835
815.115	28885
815.256	28767
815.397	28687
815.539	28835
815.68	28778
815.821	28592
815.962	28607
816.103	28668
816.244	28466
816.385	28421
816.526	28409
816.666	28306
816.807	28188
816.948	28211
817.089	28124
817.23	28173
817.371	28166
817.512	28055
817.653	28109
817.793	28029
817.934	28215
818.075	28173
818.216	28268
818.356	28040
818.497	28238
818.638	27884
818.778	28063
818.919	28010
819.06	27930
819.2	28109
819.341	28234
819.481	28196
819.622	28253
819.762	28599
819.903	28531
820.043	28386
820.184	28253
820.324	28421
820.465	28360
820.605	28344
820.746	28356
820.886	28185
821.026	28249
821.167	28394
821.307	28352
821.447	28276
821.588	28143
821.728	27975
821.868	27854
822.008	27770
822.149	27705
822.289	27759
822.429	27485
822.569	27332
822.709	27389
822.849	27161
822.99	27287
823.13	27184
823.27	27252
823.41	27055
823.55	26910
823.69	26994
823.83	27017
823.97	26952
824.11	26899
824.25	26777
824.389	26857
824.529	27039
824.669	26883
824.809	26921
824.949	26937
825.089	26781
825.228	26815
825.368	26693
825.508	26552
825.648	26686
825.787	26796
825.927	26834
826.067	26640
826.206	26583
826.346	26678
826.485	26674
826.625	26720
826.765	26849
826.904	26739
827.044	26602
827.183	26370
827.323	26469
827.462	26480
827.601	26507
827.741	26415
827.88	26564
828.02	26237
828.159	26248
828.298	26461
828.437	26362
828.577	26305
828.716	26419
828.855	26263
828.994	26050
829.134	26157
829.273	26138
829.412	26092
829.551	26130
829.69	26092
829.829	26107
829.968	26126
830.107	26149
830.246	26176
830.385	25928
830.524	25906
830.663	25917
830.802	25921
830.941	25761
831.08	25677
831.219	25811
831.357	25738
831.496	26001
831.635	25685
831.774	25700
831.913	25590
832.051	25635
832.19	25419
832.329	25434
832.467	25651
832.606	25335
832.744	25331
832.883	25407
833.022	25377
833.16	25285
833.299	25460
833.437	25327
833.576	25434
833.714	25419
833.852	25365
833.991	25518
834.129	25586
834.267	25575
834.406	25472
834.544	25518
834.682	25567
834.821	25518
834.959	25670
835.097	25343
835.235	25483
835.373	25388
835.511	25464
835.65	25377
835.788	25354
835.926	25209
836.064	25141
836.202	25168
836.34	25362
836.478	25339
836.615	25373
836.753	25171
836.891	25415
837.029	25247
837.167	25324
837.305	25187
837.443	25293
837.58	25175
837.718	25099
837.856	25156
837.993	25072
838.131	25217
838.269	25057
838.406	24966
838.544	24996
838.681	24772
838.819	24719
838.956	24642
839.094	24597
839.231	24601
839.369	24726
839.506	25088
839.643	24837
839.781	24426
839.918	24433
840.055	24528
840.193	24521
840.33	24372
840.467	24555
840.604	24540
840.742	24753
840.879	24448
841.016	24445
841.153	24266
841.29	24525
841.427	24414
841.564	24517
841.701	24475
841.838	24433
841.975	24270
842.112	24464
842.249	24376
842.385	24315
842.522	24369
842.659	24342
842.796	24296
842.933	24121
843.069	24178
843.206	24205
843.343	24235
843.479	24201
843.616	24270
843.752	24072
843.889	24034
844.025	24182
844.162	24007
844.298	24091
844.435	23954
844.571	23973
844.708	24087
844.844	24148
844.98	24121
845.117	24136
845.253	23863
845.389	23885
845.525	23859
845.661	23908
845.798	23851
845.934	23832
846.07	23779
846.206	23790
846.342	23775
846.478	23604
846.614	23573
846.75	23402
846.886	23535
847.022	23570
847.158	23531
847.294	23474
847.429	23440
847.565	23471
847.701	23653
847.837	23254
847.972	23117
848.108	23242
848.244	23337
848.379	23117
848.515	23178
848.65	23022
848.786	23136
848.921	23064
849.057	23132
849.192	23098
849.328	23064
849.463	23098
849.598	22987
849.734	22961
849.869	22976
850.004	22755
850.14	22847
850.275	22816
850.41	22790
850.545	22778
850.68	22843
850.815	22850
850.95	22873
851.085	23003
851.22	22915
851.355	22892
851.49	22752
851.625	22736
851.76	22733
851.895	22706
852.03	22717
852.165	22915
852.299	22885
852.434	22854
852.569	22892
852.703	22904
852.838	22885
852.973	22968
853.107	22866
853.242	22683
853.376	22618
853.511	22580
853.645	22474
853.78	22831
853.914	22717
854.048	22561
854.183	22596
854.317	22687
854.451	22809
854.585	22615
854.72	22740
854.854	22702
854.988	22626
855.122	22672
855.256	22500
855.39	22664
855.524	22710
855.658	22588
855.792	22744
855.926	22607
856.06	22733
856.194	22538
856.327	22588
856.461	22577
856.595	22599
856.729	22573
856.862	22790
856.996	22713
857.13	22782
857.263	22782
857.397	22809
857.53	22717
857.664	22668
857.797	22847
857.931	22698
858.064	22752
858.197	22835
858.331	22618
858.464	22596
858.597	22512
858.731	22588
858.864	22592
858.997	22535
859.13	22622
859.263	22664
859.396	22698
859.529	22615
859.662	22603
859.795	22527
859.928	22653
860.061	22767
860.194	22717
860.327	22713
860.46	22713
860.592	22721
860.725	22820
860.858	22748
860.99	22607
861.123	22538
861.256	22740
861.388	22634
861.521	23299
861.653	22508
861.786	22405
861.918	22470
862.05	22535
862.183	22569
862.315	22592
862.447	22721
862.58	22519
862.712	22459
862.844	22295
862.976	22333
863.108	22455
863.24	22831
863.372	22124
863.504	22306
863.636	22352
863.768	22382
863.9	22440
864.032	22238
864.164	22360
864.296	22337
864.428	22363
864.559	22348
864.691	22447
864.823	22318
864.954	22219
865.086	22261
865.217	22287
865.349	22223
865.48	22173
865.612	22219
865.743	22333
865.875	22211
866.006	22143
866.137	22204
866.269	22158
866.4	22367
866.531	22120
866.662	22097
866.793	22223
866.924	22116
867.055	22135
867.186	22154
867.317	22150
867.448	22021
867.579	22173
867.71	21998
867.841	22048
867.972	22215
868.103	22063
868.233	22086
868.364	22067
868.495	22211
868.625	22352
868.756	22382
868.886	22413
869.017	22352
869.147	22462
869.278	22356
869.408	22386
869.539	22337
869.669	22417
869.799	22405
869.929	22538
870.06	22424
870.19	22637
870.32	22668
870.45	22687
870.58	22725
870.71	22927
870.84	22892
870.97	22885
871.1	22831
871.23	22991
871.36	22927
871.489	22984
871.619	23079
871.749	23025
871.879	22911
872.008	23025
872.138	23086
872.267	22980
872.397	22767
872.526	22862
872.656	22850
872.785	22885
872.915	23083
873.044	23048
873.173	23064
873.303	23132
873.432	23109
873.561	23090
873.69	23079
873.819	23003
873.948	23121
874.077	23181
874.206	23155
874.335	23018
874.464	23109
874.593	23242
874.722	23151
874.851	23356
874.979	23155
875.108	23292
875.237	23155
875.365	23136
875.494	23181
875.623	23356
875.751	23155
875.88	23277
876.008	23334
876.136	23501
876.265	23771
876.393	23870
876.521	23737
876.65	23691
876.778	23524
876.906	23573
877.034	23512
877.162	23528
877.29	23505
877.418	23551
877.546	23535
877.674	23509
877.802	23646
877.93	23493
878.058	23592
878.185	23414
878.313	23604
878.441	23566
878.568	23436
878.696	23524
878.824	23551
878.951	23649
879.079	23710
879.206	23885
879.333	23604
879.461	23585
879.588	23531
879.715	23748
879.842	23783
879.97	23646
880.097	23520
880.224	23345
880.351	23330
880.478	23406
880.605	23376
880.732	23463
880.859	23600
880.986	23387
881.112	23425
881.239	23292
881.366	23208
881.493	22995
881.619	22995
881.746	22904
881.872	22965
881.999	22934
882.125	22942
882.252	22816
882.378	22987
882.505	22999
882.631	22862
882.757	22736
882.883	22748
883.01	22672
883.136	22607
883.262	22428
883.388	22360
883.514	22664
883.64	22519
883.766	22573
883.892	22360
884.018	22462
884.143	22554
884.269	22672
884.395	22322
884.52	22280
884.646	22276
884.772	22150
884.897	22101
885.023	22295
885.148	22306
885.274	22238
885.399	22329
885.524	22306
885.65	22238
885.775	22280
885.9	22253
886.025	22360
886.15	22287
886.275	22131
886.4	22120
886.525	22219
886.65	22204
886.775	22143
886.9	22310
887.025	22341
887.149	22188
887.274	21983
887.399	22059
887.523	22055
887.648	22002
887.773	21857
887.897	22093
888.021	21979
888.146	21983
888.27	22188
888.395	22055
888.519	21972
888.643	21983
888.767	22029
888.891	21854
889.015	21930
889.139	21865
889.263	21675
889.387	21880
889.511	22021
889.635	21789
889.759	21682
889.883	21846
890.006	21652
890.13	21884
890.254	21679
890.377	21739
890.501	21523
890.624	21492
890.748	21682
890.871	21382
890.995	21287
891.118	21252
891.241	21336
891.364	21310
891.488	21523
891.611	21313
891.734	21321
891.857	21393
891.98	21416
892.103	21302
892.226	21340
892.349	21287
892.471	21116
892.594	21313
892.717	21275
892.839	21173
892.962	21340
893.085	21298
893.207	21287
893.33	21131
893.452	21119
893.575	21226
893.697	21165
893.819	21317
893.941	21469
894.064	21351
894.186	21135
894.308	21062
894.43	21252
894.552	21462
894.674	21294
894.796	21100
894.918	21214
895.04	21329
895.161	21329
895.283	21188
895.405	21165
895.526	21222
895.648	21184
895.769	21279
895.891	21203
896.012	21260
896.134	21199
896.255	21184
896.376	21135
896.498	21176
896.619	21214
896.74	21313
896.861	21070
896.982	21561
897.103	21583
897.224	21439
897.345	21344
897.466	21416
897.587	21462
897.708	21572
897.828	21466
897.949	21397
898.07	21173
898.19	21226
898.311	21450
898.431	21275
898.552	21298
898.672	21355
898.792	21393
898.913	21454
899.033	21226
899.153	21195
899.273	21043
899.393	21241
899.513	21222
899.633	21157
899.753	21154
899.873	21070
899.993	21093
900.113	21104
900.232	21032
900.352	21100
900.472	20937
900.591	20864
900.711	20929
900.83	20880
900.95	21070
901.069	21013
901.189	20845
901.308	20499
901.427	20457
901.546	20438
901.665	20537
901.784	20408
901.904	20396
902.023	20161
902.141	20001
902.26	20111
902.379	20164
902.498	19928
902.617	19928
902.735	19986
902.854	19852
902.973	19780
903.091	19616
903.21	19609
903.328	19590
903.446	19643
903.565	19434
903.683	19438
903.801	19240
903.919	19384
904.038	19411
904.156	19240
904.274	19190
904.392	19145
904.51	19110
904.627	19137
904.745	19145
904.863	19198
904.981	18977
905.098	18749
905.216	18871
905.334	18882
905.451	18920
905.569	18859
905.686	18989
905.803	18875
905.921	18612
906.038	18654
906.155	18635
906.272	18502
906.389	18532
906.506	18422
906.623	18330
906.74	18289
906.857	18148
906.974	18220
907.091	18437
907.208	18486
907.324	18452
907.441	18247
907.557	18095
907.674	18125
907.79	17992
907.907	18007
908.023	18041
908.139	17897
908.256	17908
908.372	17931
908.488	18087
908.604	17745
908.72	17809
908.836	17828
908.952	17832
909.068	17798
909.184	17798
909.3	17737
909.415	17840
909.531	17843
909.647	17528
909.762	17482
909.878	17543
909.993	17467
910.108	17547
910.224	17425
910.339	17452
910.454	17349
910.57	17258
910.685	17159
910.8	17459
910.915	17402
911.03	17341
911.145	17086
911.259	17041
911.374	17124
911.489	17090
911.604	16999
911.718	16835
911.833	16782
911.947	16618
912.062	16626
912.176	16736
912.291	16854
912.405	16866
912.519	16987
912.633	17041
912.748	16854
912.862	16653
912.976	16607
913.09	16504
913.204	16599
913.318	16645
913.431	16687
913.545	16687
913.659	16729
913.772	16535
913.886	16402
914	16356
914.113	16440
914.226	16550
914.34	16440
914.453	16337
914.566	16394
914.68	16303
914.793	16234
914.906	16131
915.019	15983
915.132	15987
915.245	15937
915.358	16040
915.47	15979
915.583	15918
915.696	15994
915.809	16048
915.921	16082
916.034	15762
916.146	15956
916.259	15812
916.371	15994
916.483	15823
916.595	15770
916.708	15762
916.82	15770
916.932	15614
917.044	15751
917.156	15739
917.268	15606
917.38	15576
917.491	15610
917.603	15698
917.715	15705
917.826	15633
917.938	15504
918.049	15439
918.161	15530
918.272	15614
918.384	15633
918.495	15545
918.606	15378
918.717	15302
918.828	15291
918.939	15340
919.05	15192
919.161	15298
919.272	14998
919.383	15207
919.494	15332
919.604	15488
919.715	15306
919.826	15199
919.936	15264
920.047	15367
920.157	15245
920.267	15428
920.378	15241
920.488	15222
920.598	15367
920.708	15587
920.818	15428
920.928	15393
921.038	15595
921.148	15454
921.258	15214
921.368	15055
921.477	15093
921.587	14979
921.697	14819
921.806	14979
921.916	14815
922.025	14708
922.134	14621
922.244	14682
922.353	14758
922.462	14560
922.571	14446
922.68	14233
922.789	14301
922.898	14187
923.007	14233
923.116	14313
923.224	14206
923.333	14252
923.442	14035
923.55	14046
923.659	14081
923.767	14088
923.876	14069
923.984	14134
924.092	14027
924.201	14020
924.309	13978
924.417	13982
924.525	13879
924.633	13860
924.741	14720
924.849	13696
924.956	13772
925.064	13605
925.172	13544
925.279	13582
925.387	13674
925.494	13662
925.602	13742
925.709	13700
925.816	13552
925.924	13597
926.031	13643
926.138	13559
926.245	13590
926.352	13476
926.459	13548
926.566	13578
926.673	13354
926.779	13434
926.886	13369
926.993	13312
927.099	13213
927.206	13145
927.312	13114
927.419	13304
927.525	13213
927.631	13206
927.737	13065
927.843	12996
927.95	13012
928.056	13008
928.162	13072
928.267	13023
928.373	13552
928.479	13103
928.585	12787
928.69	12951
928.796	12928
928.901	12814
929.007	12745
929.112	12913
929.218	12806
929.323	12696
929.428	12692
929.533	12829
929.638	12745
929.743	12597
929.848	12612
929.953	12730
930.058	12536
930.163	12308
930.267	12350
930.372	12525
930.477	12353
930.581	12608
930.685	12391
930.79	12213
930.894	12209
930.998	12194
931.103	12334
931.207	12022
931.311	11946
931.415	11843
931.519	11611
931.623	11592
