Data from test_V78500241_2099.txt Node
Date: Fri Mar 25 15:56:20 CST 2022
User: usil
Spectrometer: V785-0024
Trigger mode: 0
Integration Time (sec): 4.000000E-1
Scans to average: 1
Nonlinearity correction enabled: false
Boxcar width: 0
Storing dark spectrum: false
XAxis mode: Wavelengths
Number of Pixels in Spectrum: 1024
>>>>>Begin Spectral Data<<<<<
801.071	29003
801.214	28953
801.356	28691
801.499	28637
801.641	28660
801.783	28626
801.926	28618
802.068	28497
802.211	28447
802.353	28470
802.496	28398
802.638	28124
802.78	28226
802.923	28124
803.065	28147
803.208	28124
803.35	28341
803.492	28375
803.635	28611
803.777	28363
803.919	28653
804.061	28748
804.204	28538
804.346	28538
804.488	28325
804.63	28489
804.773	28371
804.915	28561
805.057	28687
805.199	28451
805.341	28592
805.483	28599
805.626	28653
805.768	28535
805.91	28584
806.052	28725
806.194	28656
806.336	28767
806.478	28698
806.62	28546
806.762	28820
806.904	29003
807.046	29079
807.188	29094
807.33	29136
807.472	29140
807.614	29136
807.756	28961
807.898	28976
808.04	28873
808.182	28934
808.324	28957
808.465	29056
808.607	29387
808.749	29223
808.891	29467
809.033	29471
809.174	29326
809.316	29459
809.458	29406
809.6	29299
809.741	29501
809.883	29547
810.025	29585
810.166	29752
810.308	29726
810.45	29630
810.591	29471
810.733	29482
810.875	29330
811.016	29383
811.158	29220
811.299	29524
811.441	29589
811.582	29395
811.724	29398
811.865	29547
812.007	29345
812.148	29455
812.29	29478
812.431	29570
812.573	29691
812.714	29764
812.855	30155
812.997	29980
813.138	30068
813.279	30095
813.421	29958
813.562	29828
813.703	29623
813.845	29630
813.986	29326
814.127	29185
814.268	28961
814.41	29128
814.551	29121
814.692	29128
814.833	28923
814.974	29022
815.115	29155
815.256	29056
815.397	29117
815.539	29067
815.68	28938
815.821	28866
815.962	28968
816.103	28755
816.244	28771
816.385	28622
816.526	28611
816.666	28660
816.807	28314
816.948	28371
817.089	28504
817.23	28462
817.371	28417
817.512	28459
817.653	28371
817.793	28409
817.934	28413
818.075	28489
818.216	28401
818.356	28398
818.497	28150
818.638	28246
818.778	27998
818.919	28223
819.06	28249
819.2	28226
819.341	28390
819.481	28329
819.622	28603
819.762	28721
819.903	28786
820.043	28569
820.184	28569
820.324	28615
820.465	28656
820.605	28637
820.746	28443
820.886	28481
821.026	28489
821.167	28318
821.307	28504
821.447	28561
821.588	28371
821.728	28215
821.868	28185
822.008	27960
822.149	27911
822.289	27979
822.429	27686
822.569	27458
822.709	27614
822.849	27473
822.99	27469
823.13	27412
823.27	27348
823.41	27188
823.55	26990
823.69	27382
823.83	27203
823.97	27264
824.11	27131
824.25	27116
824.389	27081
824.529	27085
824.669	27142
824.809	27165
824.949	27188
825.089	27009
825.228	27138
825.368	26979
825.508	27051
825.648	27043
825.787	27062
825.927	26902
826.067	27020
826.206	26918
826.346	27013
826.485	27055
826.625	26933
826.765	27135
826.904	27028
827.044	26758
827.183	26678
827.323	26590
827.462	26750
827.601	26781
827.741	26674
827.88	26659
828.02	26518
828.159	26686
828.298	26602
828.437	26762
828.577	26590
828.716	26746
828.855	26606
828.994	26374
829.134	26385
829.273	26309
829.412	26488
829.551	26324
829.69	26358
829.829	26294
829.968	26343
830.107	26469
830.246	26396
830.385	26294
830.524	26237
830.663	26119
830.802	25925
830.941	26008
831.08	25921
831.219	25963
831.357	26172
831.496	26240
831.635	25955
831.774	25864
831.913	25791
832.051	25868
832.19	25902
832.329	25769
832.467	25746
832.606	25639
832.744	25632
832.883	25571
833.022	25715
833.16	25696
833.299	25605
833.437	25639
833.576	25715
833.714	25731
833.852	25685
833.991	25628
834.129	25769
834.267	25852
834.406	25753
834.544	25689
834.682	25700
834.821	25731
834.959	25841
835.097	25746
835.235	25750
835.373	25639
835.511	25700
835.65	25666
835.788	25491
835.926	25400
836.064	25316
836.202	25381
836.34	25422
836.478	25552
836.615	25525
836.753	25514
836.891	25582
837.029	25491
837.167	25460
837.305	25495
837.443	25354
837.58	25316
837.718	25483
837.856	25449
837.993	25255
838.131	25403
838.269	25209
838.406	25255
838.544	25255
838.681	25031
838.819	24943
838.956	24901
839.094	24829
839.231	24909
839.369	24935
839.506	25198
839.643	25015
839.781	24764
839.918	24684
840.055	24856
840.193	24787
840.33	24738
840.467	24639
840.604	24726
840.742	24966
840.879	24654
841.016	24681
841.153	24593
841.29	24760
841.427	24665
841.564	24623
841.701	24738
841.838	24661
841.975	24707
842.112	24673
842.249	24555
842.385	24513
842.522	24703
842.659	24464
842.796	24509
842.933	24532
843.069	24479
843.206	24585
843.343	24544
843.479	24467
843.616	24509
843.752	24213
843.889	24353
844.025	24380
844.162	24140
844.298	24228
844.435	24251
844.571	24304
844.708	24247
844.844	24372
844.98	24361
845.117	24350
845.253	24095
845.389	24117
845.525	24087
845.661	24144
845.798	23870
845.934	23973
846.07	23855
846.206	24034
846.342	24110
846.478	23920
846.614	23737
846.75	23608
846.886	23611
847.022	23779
847.158	23695
847.294	23714
847.429	23779
847.565	23543
847.701	24011
847.837	23315
847.972	23459
848.108	23467
848.244	23421
848.379	23273
848.515	23277
848.65	23242
848.786	23140
848.921	23360
849.057	23436
849.192	23444
849.328	23261
849.463	23231
849.598	23235
849.734	23151
849.869	23105
850.004	22911
850.14	23018
850.275	23185
850.41	22938
850.545	23052
850.68	22999
850.815	23102
850.95	23105
851.085	23307
851.22	23254
851.355	23166
851.49	23014
851.625	23094
851.76	23048
851.895	23022
852.03	22839
852.165	23006
852.299	23105
852.434	23166
852.569	23090
852.703	22957
852.838	23174
852.973	23299
853.107	23212
853.242	23025
853.376	22961
853.511	22752
853.645	22847
853.78	22885
853.914	22885
854.048	22790
854.183	22839
854.317	22801
854.451	23014
854.585	22816
854.72	22908
854.854	22923
854.988	22778
855.122	22839
855.256	22710
855.39	22900
855.524	22881
855.658	22831
855.792	22831
855.926	22862
856.06	22778
856.194	22889
856.327	22812
856.461	22828
856.595	22725
856.729	22782
856.862	22908
856.996	22885
857.13	23048
857.263	22850
857.397	22976
857.53	22824
857.664	22915
857.797	22904
857.931	22972
858.064	22934
858.197	22900
858.331	23022
858.464	22900
858.597	22744
858.731	22790
858.864	22828
858.997	22828
859.13	22782
859.263	22831
859.396	22984
859.529	22786
859.662	22911
859.795	22725
859.928	22927
860.061	23056
860.194	22965
860.327	22961
860.46	22881
860.592	22965
860.725	22999
860.858	22854
860.99	22965
861.123	22809
861.256	22862
861.388	22820
861.521	23676
861.653	22805
861.786	22584
861.918	22816
862.05	22782
862.183	22793
862.315	22801
862.447	22896
862.58	22744
862.712	22569
862.844	22489
862.976	22615
863.108	22649
863.24	22991
863.372	22508
863.504	22527
863.636	22550
863.768	22531
863.9	22554
864.032	22554
864.164	22485
864.296	22538
864.428	22573
864.559	22630
864.691	22710
864.823	22615
864.954	22577
865.086	22451
865.217	22409
865.349	22394
865.48	22447
865.612	22554
865.743	22599
865.875	22443
866.006	22428
866.137	22478
866.269	22497
866.4	22394
866.531	22337
866.662	22413
866.793	22390
866.924	22303
867.055	22474
867.186	22436
867.317	22299
867.448	22280
867.579	22268
867.71	22204
867.841	22348
867.972	22363
868.103	22344
868.233	22246
868.364	22440
868.495	22421
868.625	22432
868.756	22622
868.886	22478
869.017	22588
869.147	22733
869.278	22656
869.408	22675
869.539	22634
869.669	22748
869.799	22630
869.929	22550
870.06	22645
870.19	22930
870.32	22816
870.45	22873
870.58	23003
870.71	23018
870.84	23083
870.97	22991
871.1	22949
871.23	23143
871.36	23288
871.489	23064
871.619	23231
871.749	23086
871.879	23235
872.008	23299
872.138	23193
872.267	23098
872.397	23109
872.526	23052
872.656	23086
872.785	23041
872.915	23284
873.044	23216
873.173	23231
873.303	23235
873.432	23212
873.561	23265
873.69	23193
873.819	23269
873.948	23200
874.077	23235
874.206	23288
874.335	23090
874.464	23376
874.593	23364
874.722	23372
874.851	23440
874.979	23573
875.108	23421
875.237	23440
875.365	23254
875.494	23474
875.623	23436
875.751	23353
875.88	23315
876.008	23531
876.136	23551
876.265	23786
876.393	23790
876.521	23878
876.65	23961
876.778	23805
876.906	23748
877.034	23741
877.162	23874
877.29	23707
877.418	23745
877.546	23813
877.674	23684
877.802	23817
877.93	23672
878.058	23646
878.185	23649
878.313	23821
878.441	23653
878.568	23665
878.696	23566
878.824	23847
878.951	23828
879.079	23988
879.206	24053
879.333	23935
879.461	23828
879.588	23882
879.715	23901
879.842	24064
879.97	23748
880.097	23592
880.224	23570
880.351	23562
880.478	23585
880.605	23478
880.732	23604
880.859	23707
880.986	23695
881.112	23524
881.239	23490
881.366	23231
881.493	23330
881.619	23105
881.746	23166
881.872	23018
881.999	23086
882.125	23067
882.252	23227
882.378	23117
882.505	23231
882.631	23041
882.757	22953
882.883	23033
883.01	22850
883.136	22812
883.262	22675
883.388	22653
883.514	22793
883.64	22702
883.766	22713
883.892	22630
884.018	22577
884.143	22660
884.269	22733
884.395	22493
884.52	22447
884.646	22459
884.772	22432
884.897	22268
885.023	22405
885.148	22474
885.274	22565
885.399	22516
885.524	22375
885.65	22440
885.775	22424
885.9	22325
886.025	22478
886.15	22371
886.275	22470
886.4	22367
886.525	22360
886.65	22329
886.775	22280
886.9	22497
887.025	22596
887.149	22295
887.274	22150
887.399	22143
887.523	22219
887.648	22112
887.773	22082
887.897	22105
888.021	22234
888.146	22200
888.27	22402
888.395	22215
888.519	22360
888.643	22135
888.767	22078
888.891	22158
889.015	22029
889.139	22021
889.263	21884
889.387	22063
889.511	22185
889.635	22063
889.759	21953
889.883	21960
890.006	21926
890.13	21968
890.254	21854
890.377	21762
890.501	21812
890.624	21781
890.748	21652
890.871	21507
890.995	21447
891.118	21507
891.241	21538
891.364	21462
891.488	21663
891.611	21481
891.734	21458
891.857	21469
891.98	21583
892.103	21549
892.226	21557
892.349	21386
892.471	21291
892.594	21420
892.717	21439
892.839	21370
892.962	21310
893.085	21340
893.207	21382
893.33	21302
893.452	21233
893.575	21401
893.697	21355
893.819	21568
893.941	21481
894.064	21534
894.186	21336
894.308	21313
894.43	21519
894.552	21534
894.674	21458
894.796	21218
894.918	21252
895.04	21302
895.161	21530
895.283	21519
895.405	21249
895.526	21359
895.648	21291
895.769	21378
895.891	21336
896.012	21439
896.134	21469
896.255	21313
896.376	21283
896.498	21412
896.619	21389
896.74	21317
896.861	21408
896.982	21701
897.103	21797
897.224	21667
897.345	21447
897.466	21542
897.587	21553
897.708	21797
897.828	21660
897.949	21549
898.07	21302
898.19	21530
898.311	21622
898.431	21363
898.552	21561
898.672	21667
898.792	21481
898.913	21504
899.033	21462
899.153	21329
899.273	21249
899.393	21298
899.513	21405
899.633	21298
899.753	21260
899.873	21207
899.993	21275
900.113	21154
900.232	21336
900.352	21180
900.472	21047
900.591	21039
900.711	20990
900.83	20944
900.95	21211
901.069	21055
901.189	20979
901.308	20693
901.427	20579
901.546	20522
901.665	20598
901.784	20640
901.904	20480
902.023	20305
902.141	20252
902.26	20138
902.379	20176
902.498	20062
902.617	20100
902.735	20142
902.854	20065
902.973	19989
903.091	19978
903.21	19852
903.328	19761
903.446	19597
903.565	19666
903.683	19525
903.801	19441
903.919	19480
904.038	19445
904.156	19358
904.274	19438
904.392	19217
904.51	19324
904.627	19304
904.745	19464
904.863	19327
904.981	19202
905.098	18909
905.216	19019
905.334	18985
905.451	18947
905.569	18837
905.686	18985
905.803	18993
905.921	18783
906.038	18829
906.155	18753
906.272	18661
906.389	18696
906.506	18593
906.623	18471
906.74	18494
906.857	18445
906.974	18369
907.091	18677
907.208	18494
907.324	18532
907.441	18426
907.557	18262
907.674	18254
907.79	18076
907.907	18235
908.023	18163
908.139	18289
908.256	18129
908.372	18125
908.488	18068
908.604	17946
908.72	17882
908.836	17882
908.952	18019
909.068	18007
909.184	17996
909.3	17961
909.415	17901
909.531	17901
909.647	17714
909.762	17668
909.878	17592
909.993	17687
910.108	17596
910.224	17657
910.339	17562
910.454	17577
910.57	17368
910.685	17429
910.8	17642
910.915	17630
911.03	17353
911.145	17212
911.259	17269
911.374	17227
911.489	17162
911.604	17094
911.718	16995
911.833	17006
911.947	16946
912.062	16793
912.176	16934
912.291	16946
912.405	16942
912.519	17315
912.633	17223
912.748	16999
912.862	16892
912.976	16793
913.09	16664
913.204	16755
913.318	16694
913.431	16767
913.545	16881
913.659	16843
913.772	16725
913.886	16584
914	16603
914.113	16630
914.226	16637
914.34	16660
914.453	16432
914.566	16554
914.68	16318
914.793	16402
914.906	16219
915.019	16230
915.132	16124
915.245	16120
915.358	16112
915.47	16067
915.583	16215
915.696	16303
915.809	16265
915.921	16154
916.034	15998
916.146	16074
916.259	15960
916.371	16090
916.483	16082
916.595	16032
916.708	15918
916.82	15865
916.932	15895
917.044	15873
917.156	15892
917.268	15850
917.38	15778
917.491	15789
917.603	15671
917.715	15880
917.826	15766
917.938	15728
918.049	15526
918.161	15713
918.272	15797
918.384	15759
918.495	15671
918.606	15496
918.717	15439
918.828	15538
918.939	15405
919.05	15325
919.161	15431
919.272	15230
919.383	15306
919.494	15515
919.604	15603
919.715	15454
919.826	15351
919.936	15420
920.047	15473
920.157	15454
920.267	15629
920.378	15466
920.488	15443
920.598	15580
920.708	15705
920.818	15584
920.928	15526
921.038	15766
921.148	15538
921.258	15378
921.368	15252
921.477	15150
921.587	15119
921.697	15119
921.806	15119
921.916	14948
922.025	14861
922.134	14788
922.244	14762
922.353	14716
922.462	14735
922.571	14575
922.68	14518
922.789	14454
922.898	14374
923.007	14374
923.116	14457
923.224	14377
923.333	14377
923.442	14210
923.55	14248
923.659	14298
923.767	14309
923.876	14168
923.984	14324
924.092	14107
924.201	14164
924.309	14081
924.417	14138
924.525	14111
924.633	14039
924.741	15055
924.849	13837
924.956	13951
925.064	13833
925.172	13693
925.279	13811
925.387	13803
925.494	13738
925.602	13959
925.709	13822
925.816	13586
925.924	13799
926.031	13784
926.138	13738
926.245	13723
926.352	13674
926.459	13746
926.566	13712
926.673	13647
926.779	13491
926.886	13483
926.993	13312
927.099	13331
927.206	13278
927.312	13274
927.419	13400
927.525	13274
927.631	13441
927.737	13156
927.843	13175
927.95	13084
928.056	13206
928.162	13183
928.267	13217
928.373	13811
928.479	13160
928.585	12981
928.69	13057
928.796	13069
928.901	13008
929.007	12863
929.112	12973
929.218	12920
929.323	12920
929.428	12840
929.533	12920
929.638	12753
929.743	12772
929.848	12833
929.953	12707
930.058	12635
930.163	12460
930.267	12570
930.372	12623
930.477	12414
930.581	12608
930.685	12521
930.79	12380
930.894	12315
930.998	12277
931.103	12422
931.207	12095
931.311	11996
931.415	11996
931.519	11821
931.623	11665
