Data from test_V78500241_3617.txt Node
Date: Fri Mar 25 16:06:51 CST 2022
User: usil
Spectrometer: V785-0024
Trigger mode: 0
Integration Time (sec): 4.000000E-1
Scans to average: 1
Nonlinearity correction enabled: false
Boxcar width: 0
Storing dark spectrum: false
XAxis mode: Wavelengths
Number of Pixels in Spectrum: 1024
>>>>>Begin Spectral Data<<<<<
801.071	28850
801.214	28816
801.356	28561
801.499	28504
801.641	28242
801.783	28421
801.926	28440
802.068	28192
802.211	28371
802.353	28268
802.496	27979
802.638	28143
802.78	28021
802.923	27865
803.065	27895
803.208	27918
803.35	28078
803.492	28059
803.635	28230
803.777	28234
803.919	28265
804.061	28615
804.204	28363
804.346	28219
804.488	28090
804.63	28272
804.773	28131
804.915	28371
805.057	28440
805.199	28120
805.341	28447
805.483	28371
805.626	28421
805.768	28363
805.91	28481
806.052	28497
806.194	28421
806.336	28557
806.478	28382
806.62	28493
806.762	28649
806.904	28786
807.046	29083
807.188	28900
807.33	28908
807.472	28850
807.614	28809
807.756	28797
807.898	28672
808.04	28691
808.182	28649
808.324	28858
808.465	28839
808.607	28904
808.749	29121
808.891	29220
809.033	29372
809.174	29071
809.316	29124
809.458	29162
809.6	29136
809.741	29155
809.883	29242
810.025	29478
810.166	29410
810.308	29433
810.45	29315
810.591	29307
810.733	29151
810.875	29147
811.016	29010
811.158	28995
811.299	29178
811.441	29170
811.582	29220
811.724	29170
811.865	29151
812.007	29048
812.148	29162
812.29	29311
812.431	29318
812.573	29707
812.714	29592
812.855	29760
812.997	29714
813.138	29920
813.279	29767
813.421	29642
813.562	29756
813.703	29573
813.845	29372
813.986	29102
814.127	28995
814.268	28805
814.41	28892
814.551	28866
814.692	28888
814.833	28778
814.974	28892
815.115	29010
815.256	28801
815.397	28908
815.539	28698
815.68	28660
815.821	28641
815.962	28820
816.103	28687
816.244	28527
816.385	28493
816.526	28516
816.666	28253
816.807	28154
816.948	28226
817.089	28200
817.23	28249
817.371	28070
817.512	28215
817.653	28284
817.793	28101
817.934	28082
818.075	28135
818.216	28105
818.356	28177
818.497	28105
818.638	28051
818.778	27892
818.919	27945
819.06	28006
819.2	27998
819.341	28112
819.481	28196
819.622	28303
819.762	28561
819.903	28401
820.043	28360
820.184	28401
820.324	28417
820.465	28360
820.605	28322
820.746	28401
820.886	28223
821.026	28280
821.167	28101
821.307	28310
821.447	28223
821.588	28150
821.728	27998
821.868	27743
822.008	27739
822.149	27690
822.289	27542
822.429	27382
822.569	27351
822.709	27363
822.849	27127
822.99	27173
823.13	27131
823.27	27112
823.41	27043
823.55	26952
823.69	27127
823.83	27039
823.97	26986
824.11	26807
824.25	26678
824.389	26895
824.529	26876
824.669	26804
824.809	27020
824.949	26845
825.089	26914
825.228	26830
825.368	26743
825.508	26655
825.648	26667
825.787	26705
825.927	26788
826.067	26773
826.206	26796
826.346	26762
826.485	26743
826.625	26689
826.765	26830
826.904	26800
827.044	26419
827.183	26442
827.323	26438
827.462	26499
827.601	26503
827.741	26461
827.88	26511
828.02	26298
828.159	26404
828.298	26400
828.437	26423
828.577	26343
828.716	26457
828.855	26229
828.994	26012
829.134	26168
829.273	26096
829.412	26100
829.551	26008
829.69	26096
829.829	26111
829.968	26183
830.107	26069
830.246	26214
830.385	26069
830.524	26039
830.663	25890
830.802	25750
830.941	25670
831.08	25719
831.219	25772
831.357	25715
831.496	26008
831.635	25746
831.774	25658
831.913	25582
832.051	25533
832.19	25525
832.329	25533
832.467	25415
832.606	25289
832.744	25415
832.883	25339
833.022	25434
833.16	25449
833.299	25544
833.437	25403
833.576	25419
833.714	25609
833.852	25563
833.991	25540
834.129	25476
834.267	25510
834.406	25491
834.544	25449
834.682	25457
834.821	25601
834.959	25655
835.097	25304
835.235	25533
835.373	25422
835.511	25479
835.65	25285
835.788	25324
835.926	25175
836.064	25148
836.202	25156
836.34	25396
836.478	25400
836.615	25320
836.753	25247
836.891	25324
837.029	25209
837.167	25137
837.305	25126
837.443	25042
837.58	25171
837.718	25148
837.856	25099
837.993	25057
838.131	25164
838.269	24943
838.406	25019
838.544	24878
838.681	24829
838.819	24707
838.956	24544
839.094	24483
839.231	24658
839.369	24677
839.506	25156
839.643	24745
839.781	24502
839.918	24441
840.055	24585
840.193	24635
840.33	24467
840.467	24547
840.604	24536
840.742	24711
840.879	24384
841.016	24479
841.153	24315
841.29	24513
841.427	24479
841.564	24486
841.701	24456
841.838	24403
841.975	24407
842.112	24353
842.249	24365
842.385	24277
842.522	24502
842.659	24308
842.796	24266
842.933	24270
843.069	24182
843.206	24216
843.343	24270
843.479	24133
843.616	24163
843.752	24034
843.889	24041
844.025	24174
844.162	24068
844.298	24007
844.435	24034
844.571	23939
844.708	24079
844.844	24258
844.98	24079
845.117	24159
845.253	23977
845.389	23870
845.525	23920
845.661	23855
845.798	23942
845.934	23794
846.07	23767
846.206	23908
846.342	23939
846.478	23775
846.614	23486
846.75	23425
846.886	23490
847.022	23623
847.158	23520
847.294	23528
847.429	23444
847.565	23337
847.701	23722
847.837	23170
847.972	23132
848.108	23345
848.244	23220
848.379	23223
848.515	22984
848.65	22930
848.786	23071
848.921	23197
849.057	23151
849.192	23090
849.328	23048
849.463	23128
849.598	23060
849.734	23033
849.869	22972
850.004	22847
850.14	22896
850.275	22938
850.41	22828
850.545	22710
850.68	22809
850.815	22793
850.95	22854
851.085	22961
851.22	22763
851.355	22980
851.49	22850
851.625	22820
851.76	22691
851.895	22778
852.03	22793
852.165	22797
852.299	22858
852.434	22923
852.569	22949
852.703	22862
852.838	22908
852.973	22942
853.107	22858
853.242	22877
853.376	22869
853.511	22554
853.645	22485
853.78	22801
853.914	22687
854.048	22679
854.183	22740
854.317	22736
854.451	22869
854.585	22603
854.72	22565
854.854	22694
854.988	22664
855.122	22812
855.256	22493
855.39	22634
855.524	22668
855.658	22672
855.792	22656
855.926	22710
856.06	22580
856.194	22786
856.327	22577
856.461	22596
856.595	22584
856.729	22679
856.862	22736
856.996	22645
857.13	22668
857.263	22816
857.397	22763
857.53	22557
857.664	22725
857.797	22679
857.931	22831
858.064	22645
858.197	22812
858.331	22702
858.464	22668
858.597	22637
858.731	22622
858.864	22493
858.997	22523
859.13	22710
859.263	22744
859.396	22767
859.529	22622
859.662	22630
859.795	22592
859.928	22645
860.061	22759
860.194	22809
860.327	22843
860.46	22698
860.592	22816
860.725	22755
860.858	22805
860.99	22736
861.123	22478
861.256	22683
861.388	22713
861.521	23349
861.653	22394
861.786	22466
861.918	22630
862.05	22557
862.183	22618
862.315	22569
862.447	22626
862.58	22710
862.712	22440
862.844	22276
862.976	22531
863.108	22436
863.24	22900
863.372	22325
863.504	22500
863.636	22318
863.768	22363
863.9	22318
864.032	22352
864.164	22363
864.296	22405
864.428	22478
864.559	22398
864.691	22417
864.823	22424
864.954	22337
865.086	22405
865.217	22295
865.349	22173
865.48	22272
865.612	22177
865.743	22314
865.875	22329
866.006	22192
866.137	22215
866.269	22169
866.4	22192
866.531	22215
866.662	22177
866.793	22135
866.924	22329
867.055	22131
867.186	22382
867.317	22207
867.448	22010
867.579	22169
867.71	21994
867.841	22143
867.972	22192
868.103	22090
868.233	22215
868.364	22223
868.495	22409
868.625	22588
868.756	22519
868.886	22306
869.017	22447
869.147	22466
869.278	22493
869.408	22360
869.539	22272
869.669	22379
869.799	22470
869.929	22630
870.06	22546
870.19	22748
870.32	22611
870.45	22953
870.58	22736
870.71	22911
870.84	22930
870.97	22793
871.1	22668
871.23	22923
871.36	22984
871.489	22816
871.619	22987
871.749	23003
871.879	22972
872.008	23220
872.138	22919
872.267	22957
872.397	22843
872.526	22831
872.656	22812
872.785	22809
872.915	22961
873.044	23121
873.173	23098
873.303	23105
873.432	22968
873.561	23181
873.69	23083
873.819	22995
873.948	23041
874.077	23079
874.206	22915
874.335	23083
874.464	23197
874.593	23288
874.722	23273
874.851	23261
874.979	23151
875.108	23337
875.237	23105
875.365	23189
875.494	23189
875.623	23303
875.751	23254
875.88	23212
876.008	23383
876.136	23360
876.265	23573
876.393	23657
876.521	23600
876.65	23718
876.778	23737
876.906	23630
877.034	23558
877.162	23581
877.29	23528
877.418	23661
877.546	23486
877.674	23600
877.802	23429
877.93	23535
878.058	23459
878.185	23467
878.313	23455
878.441	23547
878.568	23353
878.696	23417
878.824	23444
878.951	23619
879.079	23741
879.206	23836
879.333	23764
879.461	23630
879.588	23653
879.715	23745
879.842	23699
879.97	23638
880.097	23459
880.224	23391
880.351	23337
880.478	23459
880.605	23299
880.732	23360
880.859	23581
880.986	23398
881.112	23288
881.239	23174
881.366	23041
881.493	23083
881.619	22919
881.746	23014
881.872	22957
881.999	22919
882.125	22896
882.252	22946
882.378	22976
882.505	22987
882.631	22946
882.757	22649
882.883	22679
883.01	22527
883.136	22481
883.262	22481
883.388	22478
883.514	22656
883.64	22508
883.766	22546
883.892	22436
884.018	22451
884.143	22561
884.269	22622
884.395	22261
884.52	22314
884.646	22242
884.772	22272
884.897	22093
885.023	22181
885.148	22421
885.274	22375
885.399	22394
885.524	22230
885.65	22306
885.775	22276
885.9	22325
886.025	22329
886.15	22196
886.275	22204
886.4	22200
886.525	22223
886.65	22135
886.775	22150
886.9	22443
887.025	22436
887.149	22154
887.274	22139
887.399	21953
887.523	22040
887.648	21960
887.773	21941
887.897	21998
888.021	22116
888.146	22025
888.27	22051
888.395	22143
888.519	21953
888.643	22036
888.767	22032
888.891	21907
889.015	21766
889.139	21861
889.263	21785
889.387	21846
889.511	22078
889.635	21831
889.759	21739
889.883	21831
890.006	21808
890.13	21960
890.254	21770
890.377	21618
890.501	21504
890.624	21511
890.748	21583
890.871	21488
890.995	21283
891.118	21283
891.241	21264
891.364	21424
891.488	21488
891.611	21363
891.734	21408
891.857	21214
891.98	21367
892.103	21275
892.226	21351
892.349	21279
892.471	21150
892.594	21230
892.717	21340
892.839	21180
892.962	21184
893.085	21207
893.207	21241
893.33	21104
893.452	21237
893.575	21317
893.697	21135
893.819	21416
893.941	21462
894.064	21321
894.186	21211
894.308	21218
894.43	21237
894.552	21378
894.674	21382
894.796	21207
894.918	21233
895.04	21199
895.161	21428
895.283	21321
895.405	21199
895.526	21233
895.648	21241
895.769	21332
895.891	21245
896.012	21256
896.134	21264
896.255	21157
896.376	21199
896.498	21275
896.619	21287
896.74	21241
896.861	21222
896.982	21492
897.103	21603
897.224	21500
897.345	21443
897.466	21332
897.587	21332
897.708	21321
897.828	21401
897.949	21351
898.07	21378
898.19	21317
898.311	21466
898.431	21412
898.552	21359
898.672	21466
898.792	21469
898.913	21458
899.033	21249
899.153	21161
899.273	21028
899.393	21043
899.513	21176
899.633	21051
899.753	21108
899.873	21009
899.993	21169
900.113	21127
900.232	21081
900.352	21104
900.472	20899
900.591	20823
900.711	20853
900.83	20838
900.95	21036
901.069	20895
901.189	20644
901.308	20686
901.427	20495
901.546	20393
901.665	20571
901.784	20495
901.904	20336
902.023	20210
902.141	20062
902.26	20008
902.379	20183
902.498	20012
902.617	20016
902.735	20039
902.854	19898
902.973	19814
903.091	19708
903.21	19460
903.328	19556
903.446	19575
903.565	19419
903.683	19354
903.801	19346
903.919	19373
904.038	19419
904.156	19187
904.274	19377
904.392	19133
904.51	19133
904.627	19171
904.745	19263
904.863	19129
904.981	18977
905.098	18867
905.216	18787
905.334	18954
905.451	18875
905.569	18772
905.686	18837
905.803	18829
905.921	18692
906.038	18779
906.155	18654
906.272	18498
906.389	18528
906.506	18304
906.623	18433
906.74	18407
906.857	18281
906.974	18235
907.091	18494
907.208	18433
907.324	18376
907.441	18235
907.557	18049
907.674	18083
907.79	17931
907.907	18102
908.023	17977
908.139	18102
908.256	17996
908.372	18019
908.488	17931
908.604	17836
908.72	17695
908.836	17729
908.952	17634
909.068	17870
909.184	17790
909.3	17703
909.415	17908
909.531	17836
909.647	17581
909.762	17528
909.878	17395
909.993	17600
910.108	17398
910.224	17368
910.339	17455
910.454	17421
910.57	17318
910.685	17204
910.8	17448
910.915	17474
911.03	17265
911.145	17098
911.259	17113
911.374	17155
911.489	16949
911.604	16972
911.718	16786
911.833	16767
911.947	16740
912.062	16523
912.176	16801
912.291	16778
912.405	16831
912.519	16919
912.633	16953
912.748	16850
912.862	16812
912.976	16645
913.09	16569
913.204	16580
913.318	16626
913.431	16748
913.545	16630
913.659	16691
913.772	16550
913.886	16500
914	16443
914.113	16523
914.226	16554
914.34	16596
914.453	16276
914.566	16436
914.68	16329
914.793	16333
914.906	15994
915.019	16010
915.132	15926
915.245	15960
915.358	16055
915.47	16025
915.583	16040
915.696	15956
915.809	16044
915.921	16139
916.034	15899
916.146	15854
916.259	15869
916.371	15930
916.483	15926
916.595	15793
916.708	15842
916.82	15774
916.932	15819
917.044	15812
917.156	15762
917.268	15739
917.38	15622
917.491	15519
917.603	15694
917.715	15739
917.826	15717
917.938	15603
918.049	15458
918.161	15515
918.272	15751
918.384	15728
918.495	15599
918.606	15435
918.717	15321
918.828	15355
918.939	15443
919.05	15431
919.161	15313
919.272	15116
919.383	15241
919.494	15416
919.604	15572
919.715	15317
919.826	15329
919.936	15279
920.047	15416
920.157	15199
920.267	15412
920.378	15367
920.488	15287
920.598	15599
920.708	15637
920.818	15435
920.928	15450
921.038	15679
921.148	15557
921.258	15329
921.368	15150
921.477	15058
921.587	15089
921.697	14914
921.806	15089
921.916	14899
922.025	14838
922.134	14659
922.244	14621
922.353	14674
922.462	14541
922.571	14400
922.68	14339
922.789	14294
922.898	14320
923.007	14332
923.116	14366
923.224	14358
923.333	14259
923.442	14218
923.55	14081
923.659	14202
923.767	14069
923.876	13997
923.984	14115
924.092	14077
924.201	14020
924.309	14035
924.417	13997
924.525	13940
924.633	13890
924.741	14838
924.849	13727
924.956	13879
925.064	13674
925.172	13578
925.279	13651
925.387	13685
925.494	13772
925.602	13807
925.709	13670
925.816	13613
925.924	13590
926.031	13727
926.138	13616
926.245	13693
926.352	13491
926.459	13601
926.566	13556
926.673	13491
926.779	13426
926.886	13350
926.993	13400
927.099	13221
927.206	13171
927.312	13110
927.419	13244
927.525	13156
927.631	13278
927.737	13065
927.843	13050
927.95	12973
928.056	12981
928.162	13053
928.267	13008
928.373	13643
928.479	13122
928.585	12890
928.69	13034
928.796	13027
928.901	12852
929.007	12871
929.112	12928
929.218	12806
929.323	12741
929.428	12795
929.533	12768
929.638	12616
929.743	12703
929.848	12703
929.953	12639
930.058	12494
930.163	12350
930.267	12395
930.372	12559
930.477	12258
930.581	12528
930.685	12399
930.79	12254
930.894	12315
930.998	12292
931.103	12471
931.207	12003
931.311	11935
931.415	11840
931.519	11665
931.623	11691
