Data from test_V78500241_384.txt Node
Date: Fri Mar 25 15:44:27 CST 2022
User: usil
Spectrometer: V785-0024
Trigger mode: 0
Integration Time (sec): 4.000000E-1
Scans to average: 1
Nonlinearity correction enabled: false
Boxcar width: 0
Storing dark spectrum: false
XAxis mode: Wavelengths
Number of Pixels in Spectrum: 1024
>>>>>Begin Spectral Data<<<<<
801.071	29436
801.214	29414
801.356	29178
801.499	29239
801.641	28999
801.783	28991
801.926	28987
802.068	29166
802.211	28987
802.353	28908
802.496	28843
802.638	28706
802.78	28664
802.923	28850
803.065	28569
803.208	28580
803.35	28725
803.492	28847
803.635	28957
803.777	28812
803.919	28938
804.061	29280
804.204	28763
804.346	28755
804.488	28767
804.63	28904
804.773	28885
804.915	28980
805.057	28999
805.199	28904
805.341	28980
805.483	29037
805.626	29075
805.768	28968
805.91	29117
806.052	28930
806.194	28987
806.336	29166
806.478	29052
806.62	28987
806.762	29189
806.904	29307
807.046	29543
807.188	29512
807.33	29414
807.472	29566
807.614	29372
807.756	29315
807.898	29254
808.04	29288
808.182	29341
808.324	29200
808.465	29345
808.607	29535
808.749	29619
808.891	29707
809.033	29752
809.174	29722
809.316	29866
809.458	29687
809.6	29661
809.741	29809
809.883	29889
810.025	30007
810.166	30091
810.308	29961
810.45	29946
810.591	30076
810.733	29824
810.875	29779
811.016	29493
811.158	29627
811.299	29756
811.441	29798
811.582	29710
811.724	29764
811.865	29733
812.007	29589
812.148	29729
812.29	29707
812.431	29840
812.573	30011
812.714	30015
812.855	30201
812.997	30262
813.138	30608
813.279	30532
813.421	30144
813.562	30190
813.703	30038
813.845	29878
813.986	29699
814.127	29615
814.268	29250
814.41	29364
814.551	29227
814.692	29501
814.833	29364
814.974	29277
815.115	29269
815.256	29147
815.397	29311
815.539	29296
815.68	29288
815.821	29048
815.962	29239
816.103	29067
816.244	28984
816.385	28965
816.526	28911
816.666	28763
816.807	28755
816.948	28672
817.089	28729
817.23	28706
817.371	28733
817.512	28538
817.653	28481
817.793	28557
817.934	28538
818.075	28656
818.216	28489
818.356	28527
818.497	28485
818.638	28196
818.778	28352
818.919	28192
819.06	28356
819.2	28531
819.341	28531
819.481	28485
819.622	28736
819.762	28904
819.903	28786
820.043	28729
820.184	28607
820.324	28577
820.465	28873
820.605	28748
820.746	28748
820.886	28481
821.026	28565
821.167	28584
821.307	28713
821.447	28527
821.588	28398
821.728	28295
821.868	28143
822.008	28055
822.149	27964
822.289	28086
822.429	27720
822.569	27660
822.709	27682
822.849	27412
822.99	27580
823.13	27606
823.27	27272
823.41	27325
823.55	27249
823.69	27279
823.83	27340
823.97	27249
824.11	27184
824.25	27176
824.389	27226
824.529	27142
824.669	27150
824.809	27325
824.949	27332
825.089	27241
825.228	27066
825.368	27047
825.508	26986
825.648	26967
825.787	27020
825.927	26990
826.067	26826
826.206	26883
826.346	26960
826.485	27047
826.625	27032
826.765	26982
826.904	26891
827.044	26785
827.183	26758
827.323	26598
827.462	26629
827.601	26731
827.741	26549
827.88	26697
828.02	26450
828.159	26613
828.298	26590
828.437	26659
828.577	26427
828.716	26716
828.855	26655
828.994	26381
829.134	26427
829.273	26317
829.412	26301
829.551	26290
829.69	26317
829.829	26332
829.968	26358
830.107	26381
830.246	26351
830.385	26115
830.524	26290
830.663	26119
830.802	26024
830.941	26027
831.08	25731
831.219	26046
831.357	25913
831.496	26195
831.635	25887
831.774	25723
831.913	25822
832.051	25559
832.19	25613
832.329	25647
832.467	25510
832.606	25540
832.744	25624
832.883	25533
833.022	25476
833.16	25499
833.299	25567
833.437	25472
833.576	25681
833.714	25643
833.852	25605
833.991	25578
834.129	25575
834.267	25544
834.406	25537
834.544	25426
834.682	25582
834.821	25514
834.959	25681
835.097	25544
835.235	25487
835.373	25495
835.511	25582
835.65	25289
835.788	25419
835.926	25129
836.064	25099
836.202	25179
836.34	25381
836.478	25396
836.615	25331
836.753	25346
836.891	25422
837.029	25396
837.167	25282
837.305	25259
837.443	25183
837.58	25091
837.718	25312
837.856	25187
837.993	25080
838.131	25183
838.269	25187
838.406	25084
838.544	25004
838.681	24722
838.819	24749
838.956	24669
839.094	24631
839.231	24707
839.369	24810
839.506	24973
839.643	24901
839.781	24620
839.918	24528
840.055	24661
840.193	24654
840.33	24479
840.467	24578
840.604	24582
840.742	24856
840.879	24505
841.016	24464
841.153	24483
841.29	24486
841.427	24467
841.564	24528
841.701	24513
841.838	24479
841.975	24429
842.112	24403
842.249	24232
842.385	24239
842.522	24448
842.659	24270
842.796	24247
842.933	24174
843.069	24197
843.206	24152
843.343	24289
843.479	24174
843.616	24171
843.752	24003
843.889	23954
844.025	24129
844.162	24007
844.298	24110
844.435	24049
844.571	23927
844.708	24011
844.844	24060
844.98	24129
845.117	24007
845.253	23794
845.389	23760
845.525	23927
845.661	23767
845.798	23760
845.934	23653
846.07	23665
846.206	23748
846.342	23904
846.478	23642
846.614	23657
846.75	23288
846.886	23459
847.022	23471
847.158	23372
847.294	23368
847.429	23414
847.565	23315
847.701	23592
847.837	23216
847.972	23041
848.108	23208
848.244	23208
848.379	23102
848.515	22968
848.65	22908
848.786	22995
848.921	23052
849.057	22923
849.192	23102
849.328	22995
849.463	23044
849.598	22911
849.734	22850
849.869	22778
850.004	22744
850.14	22809
850.275	22706
850.41	22641
850.545	22611
850.68	22710
850.815	22675
850.95	22687
851.085	22812
851.22	22801
851.355	22740
851.49	22542
851.625	22573
851.76	22611
851.895	22538
852.03	22611
852.165	22653
852.299	22683
852.434	22801
852.569	22740
852.703	22710
852.838	22733
852.973	22900
853.107	22805
853.242	22607
853.376	22527
853.511	22405
853.645	22459
853.78	22580
853.914	22512
854.048	22459
854.183	22466
854.317	22402
854.451	22752
854.585	22466
854.72	22428
854.854	22417
854.988	22325
855.122	22421
855.256	22310
855.39	22424
855.524	22531
855.658	22557
855.792	22599
855.926	22485
856.06	22596
856.194	22500
856.327	22481
856.461	22405
856.595	22447
856.729	22455
856.862	22546
856.996	22557
857.13	22519
857.263	22664
857.397	22615
857.53	22527
857.664	22470
857.797	22542
857.931	22516
858.064	22508
858.197	22466
858.331	22550
858.464	22322
858.597	22390
858.731	22375
858.864	22516
858.997	22455
859.13	22291
859.263	22565
859.396	22519
859.529	22478
859.662	22478
859.795	22303
859.928	22481
860.061	22626
860.194	22592
860.327	22443
860.46	22485
860.592	22497
860.725	22493
860.858	22580
860.99	22550
861.123	22386
861.256	22367
861.388	22478
861.521	23075
861.653	22352
861.786	22246
861.918	22276
862.05	22348
862.183	22424
862.315	22489
862.447	22459
862.58	22436
862.712	22105
862.844	22131
862.976	22219
863.108	22242
863.24	22721
863.372	22101
863.504	22002
863.636	22135
863.768	22139
863.9	22166
864.032	22086
864.164	22048
864.296	22086
864.428	22226
864.559	22325
864.691	22219
864.823	22051
864.954	22116
865.086	22074
865.217	22010
865.349	21884
865.48	22006
865.612	21960
865.743	22112
865.875	22093
866.006	21869
866.137	21991
866.269	21945
866.4	21964
866.531	21960
866.662	21968
866.793	21918
866.924	21911
867.055	21979
867.186	21838
867.317	21903
867.448	21816
867.579	21808
867.71	21911
867.841	21865
867.972	21994
868.103	22036
868.233	22013
868.364	21979
868.495	22074
868.625	22093
868.756	22226
868.886	22139
869.017	22112
869.147	22200
869.278	22375
869.408	22177
869.539	22154
869.669	22200
869.799	22284
869.929	22249
870.06	22303
870.19	22421
870.32	22303
870.45	22603
870.58	22531
870.71	22713
870.84	22660
870.97	22538
871.1	22550
871.23	22774
871.36	22835
871.489	22645
871.619	22679
871.749	22824
871.879	22706
872.008	22923
872.138	22782
872.267	22748
872.397	22481
872.526	22592
872.656	22573
872.785	22584
872.915	22847
873.044	22801
873.173	22790
873.303	22843
873.432	22778
873.561	23064
873.69	22721
873.819	22679
873.948	22900
874.077	22900
874.206	22687
874.335	22767
874.464	22805
874.593	22942
874.722	23075
874.851	22938
874.979	23037
875.108	23071
875.237	22957
875.365	22759
875.494	22915
875.623	23025
875.751	22896
875.88	23014
876.008	23094
876.136	23269
876.265	23444
876.393	23512
876.521	23452
876.65	23406
876.778	23376
876.906	23356
877.034	23269
877.162	23334
877.29	23185
877.418	23200
877.546	23402
877.674	23387
877.802	23372
877.93	23417
878.058	23242
878.185	23102
878.313	23292
878.441	23208
878.568	23151
878.696	23288
878.824	23360
878.951	23463
879.079	23501
879.206	23642
879.333	23395
879.461	23261
879.588	23395
879.715	23455
879.842	23604
879.97	23360
880.097	23227
880.224	23246
880.351	23239
880.478	23117
880.605	23014
880.732	23151
880.859	23360
880.986	23261
881.112	23147
881.239	22957
881.366	22889
881.493	22717
881.619	22759
881.746	22755
881.872	22774
881.999	22805
882.125	22615
882.252	22904
882.378	22626
882.505	22919
882.631	22645
882.757	22485
882.883	22645
883.01	22584
883.136	22337
883.262	22291
883.388	22257
883.514	22421
883.64	22493
883.766	22409
883.892	22200
884.018	22268
884.143	22440
884.269	22523
884.395	22147
884.52	22010
884.646	22044
884.772	21998
884.897	21953
885.023	22048
885.148	22207
885.274	22173
885.399	22101
885.524	22051
885.65	22051
885.775	22025
885.9	22013
886.025	22147
886.15	22154
886.275	22006
886.4	21899
886.525	22029
886.65	21956
886.775	21842
886.9	22124
887.025	22356
887.149	21968
887.274	21835
887.399	21770
887.523	21884
887.648	21709
887.773	21823
887.897	21895
888.021	21880
888.146	21804
888.27	21812
888.395	21789
888.519	21907
888.643	21819
888.767	21793
888.891	21816
889.015	21519
889.139	21603
889.263	21564
889.387	21774
889.511	21869
889.635	21751
889.759	21519
889.883	21553
890.006	21583
890.13	21667
890.254	21561
890.377	21485
890.501	21233
890.624	21389
890.748	21488
890.871	21241
890.995	21081
891.118	21093
891.241	21230
891.364	21195
891.488	21157
891.611	21192
891.734	21089
891.857	21161
891.98	21154
892.103	21154
892.226	21051
892.349	21096
892.471	20952
892.594	21195
892.717	21066
892.839	21047
892.962	21032
893.085	21138
893.207	21135
893.33	20963
893.452	21066
893.575	20990
893.697	20948
893.819	21161
893.941	21211
894.064	21089
894.186	20910
894.308	20967
894.43	21093
894.552	21173
894.674	21146
894.796	20883
894.918	21005
895.04	20979
895.161	21039
895.283	21032
895.405	20910
895.526	21032
895.648	21077
895.769	21001
895.891	21001
896.012	21260
896.134	20998
896.255	21036
896.376	21013
896.498	21028
896.619	21062
896.74	21047
896.861	21127
896.982	21374
897.103	21549
897.224	21348
897.345	21256
897.466	21268
897.587	21279
897.708	21359
897.828	21245
897.949	21176
898.07	21218
898.19	21192
898.311	21214
898.431	21256
898.552	21077
898.672	21275
898.792	21264
898.913	21180
899.033	21066
899.153	21058
899.273	20838
899.393	20952
899.513	20971
899.633	20941
899.753	21036
899.873	20777
899.993	20872
900.113	20838
900.232	20982
900.352	20902
900.472	20746
900.591	20682
900.711	20746
900.83	20598
900.95	20735
901.069	20826
901.189	20602
901.308	20480
901.427	20362
901.546	20336
901.665	20290
901.784	20328
901.904	20122
902.023	19989
902.141	19826
902.26	19845
902.379	19955
902.498	19723
902.617	19723
902.735	19841
902.854	19734
902.973	19738
903.091	19483
903.21	19449
903.328	19453
903.446	19282
903.565	19217
903.683	19217
903.801	19156
903.919	19148
904.038	19129
904.156	18954
904.274	19190
904.392	18947
904.51	19000
904.627	18958
904.745	19034
904.863	18981
904.981	18791
905.098	18608
905.216	18627
905.334	18661
905.451	18658
905.569	18623
905.686	18646
905.803	18642
905.921	18490
906.038	18502
906.155	18460
906.272	18350
906.389	18414
906.506	18194
906.623	18213
906.74	18022
906.857	18106
906.974	18098
907.091	18205
907.208	18353
907.324	18190
907.441	18030
907.557	17863
907.674	17824
907.79	17817
907.907	17840
908.023	17802
908.139	17824
908.256	17805
908.372	17752
908.488	17657
908.604	17577
908.72	17554
908.836	17600
908.952	17543
909.068	17558
909.184	17729
909.3	17421
909.415	17570
909.531	17528
909.647	17303
909.762	17231
909.878	17220
909.993	17212
910.108	17242
910.224	17200
910.339	17143
910.454	17193
910.57	17033
910.685	17033
910.8	17212
910.915	17166
911.03	16995
911.145	16873
911.259	16923
911.374	16873
911.489	16805
911.604	16710
911.718	16592
911.833	16474
911.947	16523
912.062	16519
912.176	16599
912.291	16535
912.405	16428
912.519	16774
912.633	16782
912.748	16618
912.862	16516
912.976	16325
913.09	16276
913.204	16265
913.318	16322
913.431	16470
913.545	16363
913.659	16470
913.772	16386
913.886	16185
914	16029
914.113	16276
914.226	16200
914.34	16265
914.453	15991
914.566	16200
914.68	16071
914.793	15937
914.906	15705
915.019	15713
915.132	15652
915.245	15774
915.358	15739
915.47	15701
915.583	15717
915.696	15698
915.809	15717
915.921	15895
916.034	15671
916.146	15595
916.259	15629
916.371	15641
916.483	15679
916.595	15545
916.708	15584
916.82	15614
916.932	15526
917.044	15549
917.156	15469
917.268	15386
917.38	15431
917.491	15291
917.603	15367
917.715	15443
917.826	15408
917.938	15264
918.049	15146
918.161	15317
918.272	15488
918.384	15397
918.495	15241
918.606	15077
918.717	15039
918.828	15173
918.939	15127
919.05	15005
919.161	15089
919.272	14834
919.383	14918
919.494	15161
919.604	15249
919.715	15051
919.826	14963
919.936	14929
920.047	15085
920.157	15001
920.267	15252
920.378	15051
920.488	14956
920.598	15173
920.708	15283
920.818	15203
920.928	15146
921.038	15340
921.148	15275
921.258	14925
921.368	14876
921.477	14823
921.587	14636
921.697	14686
921.806	14781
921.916	14617
922.025	14465
922.134	14396
922.244	14278
922.353	14427
922.462	14294
922.571	14164
922.68	13986
922.789	13974
922.898	14008
923.007	13955
923.116	14069
923.224	13974
923.333	13967
923.442	13898
923.55	13902
923.659	13780
923.767	13944
923.876	13689
923.984	13837
924.092	13765
924.201	13765
924.309	13723
924.417	13788
924.525	13738
924.633	13738
924.741	14552
924.849	13464
924.956	13575
925.064	13449
925.172	13324
925.279	13331
925.387	13422
925.494	13403
925.602	13487
925.709	13388
925.816	13194
925.924	13365
926.031	13422
926.138	13354
926.245	13331
926.352	13259
926.459	13274
926.566	13457
926.673	13327
926.779	13061
926.886	13179
926.993	13084
927.099	12993
927.206	12970
927.312	12920
927.419	12966
927.525	12901
927.631	13000
927.737	12837
927.843	12722
927.95	12631
928.056	12825
928.162	12764
928.267	12871
928.373	13316
928.479	12749
928.585	12578
928.69	12764
928.796	12795
928.901	12612
929.007	12452
929.112	12589
929.218	12528
929.323	12532
929.428	12498
929.533	12555
929.638	12471
929.743	12452
929.848	12407
929.953	12483
930.058	12289
930.163	12106
930.267	12197
930.372	12361
930.477	12038
930.581	12270
930.685	12140
930.79	12045
930.894	12079
930.998	11988
931.103	12182
931.207	11752
931.311	11668
931.415	11573
931.519	11467
931.623	11353
