Data from test_V78500241_2114.txt Node
Date: Fri Mar 25 15:56:26 CST 2022
User: usil
Spectrometer: V785-0024
Trigger mode: 0
Integration Time (sec): 4.000000E-1
Scans to average: 1
Nonlinearity correction enabled: false
Boxcar width: 0
Storing dark spectrum: false
XAxis mode: Wavelengths
Number of Pixels in Spectrum: 1024
>>>>>Begin Spectral Data<<<<<
801.071	28843
801.214	28767
801.356	28630
801.499	28577
801.641	28516
801.783	28428
801.926	28485
802.068	28440
802.211	28360
802.353	28367
802.496	28101
802.638	28078
802.78	28063
802.923	28048
803.065	28055
803.208	28219
803.35	28105
803.492	28265
803.635	28344
803.777	28314
803.919	28322
804.061	28596
804.204	28489
804.346	28424
804.488	28246
804.63	28306
804.773	28367
804.915	28618
805.057	28592
805.199	28356
805.341	28554
805.483	28535
805.626	28592
805.768	28390
805.91	28691
806.052	28649
806.194	28516
806.336	28637
806.478	28379
806.62	28660
806.762	28653
806.904	28843
807.046	29140
807.188	28991
807.33	29060
807.472	29113
807.614	28972
807.756	28892
807.898	28847
808.04	28843
808.182	28759
808.324	28881
808.465	28987
808.607	29052
808.749	29227
808.891	29337
809.033	29311
809.174	29372
809.316	29178
809.458	29151
809.6	29299
809.741	29334
809.883	29417
810.025	29554
810.166	29512
810.308	29482
810.45	29573
810.591	29429
810.733	29136
810.875	29162
811.016	29166
811.158	29242
811.299	29345
811.441	29315
811.582	29406
811.724	29239
811.865	29155
812.007	29410
812.148	29322
812.29	29368
812.431	29372
812.573	29596
812.714	29710
812.855	29710
812.997	29851
813.138	30007
813.279	29824
813.421	29722
813.562	29733
813.703	29581
813.845	29486
813.986	29147
814.127	29121
814.268	28930
814.41	28877
814.551	28877
814.692	29075
814.833	28995
814.974	28801
815.115	28896
815.256	28839
815.397	28843
815.539	28755
815.68	28702
815.821	28656
815.962	28717
816.103	28790
816.244	28797
816.385	28592
816.526	28504
816.666	28417
816.807	28375
816.948	28474
817.089	28386
817.23	28375
817.371	28253
817.512	28261
817.653	28185
817.793	28116
817.934	28177
818.075	28230
818.216	28379
818.356	28097
818.497	28135
818.638	28101
818.778	28006
818.919	28116
819.06	28063
819.2	28078
819.341	28143
819.481	28314
819.622	28443
819.762	28531
819.903	28531
820.043	28417
820.184	28401
820.324	28428
820.465	28470
820.605	28466
820.746	28462
820.886	28329
821.026	28303
821.167	28341
821.307	28535
821.447	28249
821.588	28116
821.728	28120
821.868	27949
822.008	27812
822.149	27812
822.289	27652
822.429	27462
822.569	27538
822.709	27466
822.849	27351
822.99	27264
823.13	27336
823.27	27355
823.41	27074
823.55	27127
823.69	27150
823.83	27055
823.97	27062
824.11	26853
824.25	27123
824.389	27001
824.529	27051
824.669	27032
824.809	27138
824.949	26986
825.089	26880
825.228	27032
825.368	26845
825.508	26777
825.648	26834
825.787	26891
825.927	26769
826.067	26754
826.206	26712
826.346	26807
826.485	26857
826.625	26872
826.765	26925
826.904	26876
827.044	26476
827.183	26526
827.323	26583
827.462	26598
827.601	26492
827.741	26503
827.88	26575
828.02	26377
828.159	26442
828.298	26571
828.437	26617
828.577	26511
828.716	26564
828.855	26370
828.994	26191
829.134	26214
829.273	26149
829.412	26161
829.551	26248
829.69	26149
829.829	26328
829.968	26282
830.107	26229
830.246	26298
830.385	26103
830.524	26096
830.663	25986
830.802	25788
830.941	25761
831.08	25822
831.219	25837
831.357	25940
831.496	26069
831.635	25856
831.774	25772
831.913	25723
832.051	25826
832.19	25518
832.329	25506
832.467	25495
832.606	25533
832.744	25521
832.883	25396
833.022	25537
833.16	25483
833.299	25571
833.437	25518
833.576	25594
833.714	25639
833.852	25487
833.991	25613
834.129	25582
834.267	25601
834.406	25472
834.544	25556
834.682	25445
834.821	25537
834.959	25723
835.097	25495
835.235	25635
835.373	25453
835.511	25499
835.65	25312
835.788	25525
835.926	25331
836.064	25240
836.202	25209
836.34	25373
836.478	25362
836.615	25430
836.753	25247
836.891	25502
837.029	25335
837.167	25373
837.305	25270
837.443	25247
837.58	25183
837.718	25384
837.856	25255
837.993	25175
838.131	25236
838.269	25148
838.406	25187
838.544	24962
838.681	24821
838.819	24833
838.956	24684
839.094	24631
839.231	24749
839.369	24863
839.506	24992
839.643	24951
839.781	24654
839.918	24612
840.055	24566
840.193	24525
840.33	24551
840.467	24627
840.604	24555
840.742	24814
840.879	24350
841.016	24574
841.153	24407
841.29	24525
841.427	24521
841.564	24570
841.701	24536
841.838	24475
841.975	24369
842.112	24399
842.249	24395
842.385	24357
842.522	24467
842.659	24395
842.796	24380
842.933	24235
843.069	24201
843.206	24155
843.343	24357
843.479	24300
843.616	24273
843.752	24182
843.889	24152
844.025	24209
844.162	24003
844.298	24152
844.435	24015
844.571	24064
844.708	24117
844.844	24235
844.98	24281
845.117	24205
845.253	23897
845.389	23863
845.525	24060
845.661	23893
845.798	23786
845.934	23836
846.07	23786
846.206	23859
846.342	23859
846.478	23760
846.614	23676
846.75	23440
846.886	23398
847.022	23596
847.158	23642
847.294	23581
847.429	23497
847.565	23516
847.701	23824
847.837	23200
847.972	23197
848.108	23372
848.244	23360
848.379	23117
848.515	23025
848.65	23037
848.786	23075
848.921	23132
849.057	23292
849.192	23189
849.328	23048
849.463	23143
849.598	23041
849.734	23064
849.869	23064
850.004	22991
850.14	22919
850.275	22896
850.41	22911
850.545	22736
850.68	22892
850.815	22824
850.95	22873
851.085	23250
851.22	23014
851.355	22934
851.49	22930
851.625	22889
851.76	22782
851.895	22923
852.03	22797
852.165	22915
852.299	23075
852.434	22889
852.569	22824
852.703	22843
852.838	22908
852.973	22995
853.107	23003
853.242	22740
853.376	22752
853.511	22573
853.645	22725
853.78	22683
853.914	22736
854.048	22641
854.183	22740
854.317	22656
854.451	22816
854.585	22733
854.72	22698
854.854	22790
854.988	22687
855.122	22706
855.256	22557
855.39	22618
855.524	22759
855.658	22603
855.792	22786
855.926	22683
856.06	22782
856.194	22774
856.327	22755
856.461	22660
856.595	22634
856.729	22645
856.862	22896
856.996	22691
857.13	22805
857.263	22873
857.397	22889
857.53	22596
857.664	22736
857.797	22915
857.931	22915
858.064	22721
858.197	22778
858.331	22535
858.464	22660
858.597	22516
858.731	22615
858.864	22694
858.997	22755
859.13	22630
859.263	22702
859.396	22812
859.529	22637
859.662	22615
859.795	22626
859.928	22694
860.061	22774
860.194	22831
860.327	22675
860.46	22687
860.592	22835
860.725	22968
860.858	22869
860.99	22759
861.123	22592
861.256	22603
861.388	22733
861.521	23345
861.653	22565
861.786	22569
861.918	22497
862.05	22561
862.183	22584
862.315	22615
862.447	22736
862.58	22557
862.712	22421
862.844	22386
862.976	22424
863.108	22466
863.24	22782
863.372	22287
863.504	22402
863.636	22322
863.768	22352
863.9	22306
864.032	22386
864.164	22291
864.296	22375
864.428	22519
864.559	22470
864.691	22577
864.823	22409
864.954	22390
865.086	22318
865.217	22337
865.349	22238
865.48	22344
865.612	22314
865.743	22417
865.875	22310
866.006	22246
866.137	22409
866.269	22314
866.4	22188
866.531	22223
866.662	22219
866.793	22097
866.924	22238
867.055	22265
867.186	22215
867.317	22268
867.448	22147
867.579	22173
867.71	21998
867.841	22120
867.972	22287
868.103	22177
868.233	22234
868.364	22238
868.495	22333
868.625	22443
868.756	22554
868.886	22329
869.017	22440
869.147	22531
869.278	22508
869.408	22531
869.539	22557
869.669	22531
869.799	22561
869.929	22626
870.06	22599
870.19	22809
870.32	22778
870.45	22771
870.58	22843
870.71	23060
870.84	22949
870.97	22816
871.1	22869
871.23	23018
871.36	23162
871.489	22919
871.619	23090
871.749	23006
871.879	23075
872.008	23216
872.138	23075
872.267	22961
872.397	22873
872.526	22904
872.656	23056
872.785	22915
872.915	23064
873.044	23151
873.173	22972
873.303	23178
873.432	23170
873.561	23212
873.69	23254
873.819	23136
873.948	23162
874.077	22949
874.206	22991
874.335	23041
874.464	23181
874.593	23391
874.722	23193
874.851	23334
874.979	23273
875.108	23269
875.237	23311
875.365	23258
875.494	23246
875.623	23417
875.751	23280
875.88	23345
876.008	23421
876.136	23414
876.265	23714
876.393	23840
876.521	23699
876.65	23684
876.778	23737
876.906	23699
877.034	23501
877.162	23703
877.29	23596
877.418	23684
877.546	23649
877.674	23604
877.802	23699
877.93	23661
878.058	23570
878.185	23501
878.313	23653
878.441	23676
878.568	23417
878.696	23589
878.824	23619
878.951	23764
879.079	23741
879.206	24022
879.333	23836
879.461	23661
879.588	23824
879.715	23817
879.842	23893
879.97	23737
880.097	23387
880.224	23250
880.351	23520
880.478	23425
880.605	23467
880.732	23501
880.859	23729
880.986	23387
881.112	23455
881.239	23269
881.366	23117
881.493	23064
881.619	22881
881.746	23044
881.872	23033
881.999	22972
882.125	22999
882.252	23056
882.378	22892
882.505	23033
882.631	22866
882.757	22706
882.883	22820
883.01	22721
883.136	22561
883.262	22554
883.388	22447
883.514	22748
883.64	22706
883.766	22546
883.892	22394
884.018	22538
884.143	22569
884.269	22706
884.395	22363
884.52	22234
884.646	22303
884.772	22272
884.897	22177
885.023	22337
885.148	22428
885.274	22443
885.399	22341
885.524	22337
885.65	22337
885.775	22204
885.9	22344
886.025	22474
886.15	22329
886.275	22246
886.4	22242
886.525	22177
886.65	22223
886.775	22253
886.9	22402
887.025	22519
887.149	22272
887.274	22120
887.399	22032
887.523	22036
887.648	22010
887.773	21968
887.897	22074
888.021	22135
888.146	22002
888.27	22207
888.395	22147
888.519	22010
888.643	22101
888.767	22097
888.891	21998
889.015	21918
889.139	21998
889.263	21739
889.387	21949
889.511	22017
889.635	22006
889.759	21823
889.883	21838
890.006	21884
890.13	21953
890.254	21842
890.377	21751
890.501	21568
890.624	21614
890.748	21603
890.871	21504
890.995	21382
891.118	21367
891.241	21393
891.364	21469
891.488	21713
891.611	21336
891.734	21378
891.857	21534
891.98	21420
892.103	21526
892.226	21424
892.349	21454
892.471	21233
892.594	21272
892.717	21302
892.839	21325
892.962	21264
893.085	21397
893.207	21321
893.33	21218
893.452	21199
893.575	21199
893.697	21329
893.819	21454
893.941	21515
894.064	21416
894.186	21283
894.308	21336
894.43	21313
894.552	21359
894.674	21332
894.796	21146
894.918	21317
895.04	21233
895.161	21207
895.283	21298
895.405	21154
895.526	21264
895.648	21252
895.769	21294
895.891	21245
896.012	21374
896.134	21275
896.255	21260
896.376	21169
896.498	21203
896.619	21332
896.74	21264
896.861	21313
896.982	21564
897.103	21724
897.224	21454
897.345	21492
897.466	21424
897.587	21534
897.708	21625
897.828	21462
897.949	21401
898.07	21325
898.19	21389
898.311	21568
898.431	21416
898.552	21515
898.672	21458
898.792	21564
898.913	21450
899.033	21416
899.153	21195
899.273	21119
899.393	21211
899.513	21252
899.633	21188
899.753	21150
899.873	21104
899.993	21207
900.113	21135
900.232	21043
900.352	21043
900.472	20982
900.591	21005
900.711	20929
900.83	20834
900.95	21024
901.069	21051
901.189	20796
901.308	20644
901.427	20533
901.546	20511
901.665	20537
901.784	20514
901.904	20412
902.023	20351
902.141	20183
902.26	20027
902.379	20073
902.498	19997
902.617	19982
902.735	19974
902.854	19989
902.973	19951
903.091	19738
903.21	19727
903.328	19609
903.446	19643
903.565	19422
903.683	19388
903.801	19480
903.919	19373
904.038	19343
904.156	19297
904.274	19377
904.392	19175
904.51	19247
904.627	19179
904.745	19289
904.863	19228
904.981	19031
905.098	18916
905.216	18901
905.334	19046
905.451	18970
905.569	18844
905.686	18932
905.803	18852
905.921	18692
906.038	18825
906.155	18772
906.272	18639
906.389	18563
906.506	18365
906.623	18441
906.74	18388
906.857	18323
906.974	18232
907.091	18418
907.208	18464
907.324	18521
907.441	18350
907.557	18197
907.674	18148
907.79	18171
907.907	18030
908.023	18114
908.139	18144
908.256	18057
908.372	17980
908.488	18019
908.604	17923
908.72	17813
908.836	17729
908.952	17764
909.068	17809
909.184	17961
909.3	17794
909.415	17920
909.531	17878
909.647	17528
909.762	17585
909.878	17497
909.993	17551
910.108	17436
910.224	17497
910.339	17493
910.454	17467
910.57	17376
910.685	17269
910.8	17516
910.915	17440
911.03	17326
911.145	17208
911.259	17109
911.374	17090
911.489	17025
911.604	16991
911.718	16809
911.833	16972
911.947	16786
912.062	16744
912.176	16900
912.291	16733
912.405	16873
912.519	17014
912.633	17037
912.748	16835
912.862	16816
912.976	16660
913.09	16527
913.204	16725
913.318	16592
913.431	16656
913.545	16752
913.659	16710
913.772	16535
913.886	16500
914	16405
914.113	16546
914.226	16519
914.34	16519
914.453	16322
914.566	16428
914.68	16318
914.793	16447
914.906	16185
915.019	16029
915.132	15918
915.245	16051
915.358	16109
915.47	16040
915.583	15991
915.696	16067
915.809	16188
915.921	16177
916.034	15983
916.146	15941
916.259	15911
916.371	15945
916.483	15930
916.595	15789
916.708	15808
916.82	15770
916.932	15774
917.044	15694
917.156	15732
917.268	15564
917.38	15770
917.491	15564
917.603	15625
917.715	15895
917.826	15732
917.938	15507
918.049	15481
918.161	15614
918.272	15770
918.384	15728
918.495	15629
918.606	15397
918.717	15340
918.828	15401
918.939	15386
919.05	15249
919.161	15382
919.272	15241
919.383	15245
919.494	15405
919.604	15481
919.715	15348
919.826	15325
919.936	15310
920.047	15405
920.157	15256
920.267	15370
920.378	15431
920.488	15207
920.598	15359
920.708	15595
920.818	15420
920.928	15435
921.038	15557
921.148	15530
921.258	15218
921.368	15138
921.477	15112
921.587	15001
921.697	14895
921.806	15043
921.916	14925
922.025	14720
922.134	14735
922.244	14594
922.353	14693
922.462	14575
922.571	14454
922.68	14332
922.789	14355
922.898	14362
923.007	14309
923.116	14339
923.224	14290
923.333	14298
923.442	14206
923.55	14138
923.659	14183
923.767	14172
923.876	14062
923.984	14164
924.092	13989
924.201	14119
924.309	13982
924.417	13947
924.525	13989
924.633	13970
924.741	14659
924.849	13715
924.956	13890
925.064	13818
925.172	13628
925.279	13655
925.387	13712
925.494	13597
925.602	13852
925.709	13689
925.816	13643
925.924	13643
926.031	13734
926.138	13590
926.245	13674
926.352	13540
926.459	13643
926.566	13556
926.673	13483
926.779	13441
926.886	13449
926.993	13327
927.099	13259
927.206	13209
927.312	13149
927.419	13308
927.525	13240
927.631	13217
927.737	13099
927.843	13053
927.95	12859
928.056	12989
928.162	12973
928.267	13084
928.373	13670
928.479	13137
928.585	12817
928.69	13000
928.796	12970
928.901	12871
929.007	12738
929.112	12810
929.218	12741
929.323	12783
929.428	12772
929.533	12852
929.638	12681
929.743	12688
929.848	12776
929.953	12703
930.058	12513
930.163	12391
930.267	12490
930.372	12441
930.477	12319
930.581	12555
930.685	12380
930.79	12239
930.894	12224
930.998	12243
931.103	12391
931.207	11977
931.311	11908
931.415	11874
931.519	11703
931.623	11642
