Data from test_V78500241_139.txt Node
Date: Fri Mar 25 15:42:45 CST 2022
User: usil
Spectrometer: V785-0024
Trigger mode: 0
Integration Time (sec): 4.000000E-1
Scans to average: 1
Nonlinearity correction enabled: false
Boxcar width: 0
Storing dark spectrum: false
XAxis mode: Wavelengths
Number of Pixels in Spectrum: 1024
>>>>>Begin Spectral Data<<<<<
801.071	29577
801.214	29509
801.356	29414
801.499	29223
801.641	29239
801.783	29159
801.926	29280
802.068	29284
802.211	29117
802.353	28984
802.496	28812
802.638	28828
802.78	28816
802.923	28900
803.065	28615
803.208	28721
803.35	29003
803.492	28919
803.635	29056
803.777	28828
803.919	29029
804.061	29086
804.204	28980
804.346	28930
804.488	28744
804.63	28888
804.773	28759
804.915	28972
805.057	29117
805.199	28858
805.341	29090
805.483	29079
805.626	29022
805.768	28801
805.91	29189
806.052	29052
806.194	28885
806.336	29212
806.478	29079
806.62	28942
806.762	29121
806.904	29307
807.046	29524
807.188	29387
807.33	29421
807.472	29379
807.614	29277
807.756	29387
807.898	29254
808.04	29189
808.182	29052
808.324	29166
808.465	29208
808.607	29440
808.749	29524
808.891	29646
809.033	29862
809.174	29604
809.316	29562
809.458	29558
809.6	29486
809.741	29649
809.883	29646
810.025	29718
810.166	29824
810.308	29828
810.45	29775
810.591	29741
810.733	29611
810.875	29585
811.016	29341
811.158	29353
811.299	29600
811.441	29771
811.582	29528
811.724	29414
811.865	29482
812.007	29493
812.148	29410
812.29	29577
812.431	29558
812.573	29707
812.714	29885
812.855	29977
812.997	30129
813.138	30194
813.279	30106
813.421	29916
813.562	29817
813.703	29760
813.845	29604
813.986	29406
814.127	29322
814.268	29254
814.41	29185
814.551	29098
814.692	29265
814.833	29083
814.974	29265
815.115	29147
815.256	28908
815.397	29037
815.539	29014
815.68	28820
815.821	28713
815.962	29006
816.103	28824
816.244	28713
816.385	28577
816.526	28405
816.666	28409
816.807	28382
816.948	28169
817.089	28424
817.23	28169
817.371	28379
817.512	28291
817.653	28325
817.793	28253
817.934	28265
818.075	28226
818.216	28090
818.356	28249
818.497	27968
818.638	27842
818.778	27983
818.919	27907
819.06	28013
819.2	28036
819.341	28192
819.481	28158
819.622	28314
819.762	28596
819.903	28436
820.043	28356
820.184	28177
820.324	28272
820.465	28329
820.605	28226
820.746	28093
820.886	28063
821.026	28200
821.167	28200
821.307	28207
821.447	28120
821.588	27979
821.728	27907
821.868	27736
822.008	27526
822.149	27591
822.289	27606
822.429	27401
822.569	27192
822.709	27146
822.849	27150
822.99	26979
823.13	27036
823.27	26899
823.41	26796
823.55	26758
823.69	26872
823.83	26940
823.97	26781
824.11	26606
824.25	26587
824.389	26674
824.529	26678
824.669	26488
824.809	26705
824.949	26655
825.089	26655
825.228	26670
825.368	26412
825.508	26358
825.648	26370
825.787	26385
825.927	26484
826.067	26305
826.206	26366
826.346	26324
826.485	26408
826.625	26560
826.765	26602
826.904	26469
827.044	26084
827.183	26176
827.323	26012
827.462	26065
827.601	25932
827.741	26077
827.88	26202
828.02	25898
828.159	26027
828.298	25917
828.437	26081
828.577	25989
828.716	26115
828.855	25993
828.994	25780
829.134	25700
829.273	25693
829.412	25780
829.551	25757
829.69	25769
829.829	25685
829.968	25811
830.107	25738
830.246	25738
830.385	25601
830.524	25499
830.663	25582
830.802	25365
830.941	25282
831.08	25255
831.219	25301
831.357	25183
831.496	25487
831.635	25209
831.774	25027
831.913	25133
832.051	25072
832.19	25012
832.329	25046
832.467	24913
832.606	24844
832.744	24852
832.883	24863
833.022	24871
833.16	24783
833.299	24920
833.437	24795
833.576	24962
833.714	24989
833.852	24833
833.991	24875
834.129	24875
834.267	25034
834.406	24730
834.544	24894
834.682	24863
834.821	24833
834.959	24962
835.097	24779
835.235	24806
835.373	24897
835.511	24863
835.65	24665
835.788	24696
835.926	24505
836.064	24437
836.202	24422
836.34	24544
836.478	24734
836.615	24703
836.753	24642
836.891	24696
837.029	24711
837.167	24612
837.305	24574
837.443	24467
837.58	24479
837.718	24646
837.856	24578
837.993	24437
838.131	24490
838.269	24323
838.406	24338
838.544	24205
838.681	24205
838.819	24125
838.956	23878
839.094	23954
839.231	23901
839.369	24110
839.506	24395
839.643	24171
839.781	23832
839.918	23760
840.055	23828
840.193	23779
840.33	23779
840.467	23752
840.604	23786
840.742	23992
840.879	23672
841.016	23672
841.153	23767
841.29	23775
841.427	23699
841.564	23737
841.701	23794
841.838	23634
841.975	23699
842.112	23756
842.249	23592
842.385	23509
842.522	23604
842.659	23520
842.796	23406
842.933	23421
843.069	23463
843.206	23277
843.343	23425
843.479	23509
843.616	23471
843.752	23280
843.889	23178
844.025	23330
844.162	23151
844.298	23307
844.435	23166
844.571	23159
844.708	23326
844.844	23341
844.98	23383
845.117	23231
845.253	23117
845.389	23033
845.525	23086
845.661	22881
845.798	22957
845.934	22896
846.07	22820
846.206	22904
846.342	22934
846.478	22850
846.614	22596
846.75	22527
846.886	22599
847.022	22611
847.158	22596
847.294	22546
847.429	22550
847.565	22580
847.701	22831
847.837	22268
847.972	22173
848.108	22428
848.244	22413
848.379	22226
848.515	22219
848.65	22074
848.786	22177
848.921	22139
849.057	22322
849.192	22284
849.328	22166
849.463	22048
849.598	22067
849.734	22131
849.869	22032
850.004	21934
850.14	21968
850.275	21876
850.41	21831
850.545	21865
850.68	21968
850.815	21873
850.95	21876
851.085	21994
851.22	21956
851.355	21880
851.49	21781
851.625	21869
851.76	21838
851.895	21892
852.03	21766
852.165	21808
852.299	21854
852.434	21873
852.569	21838
852.703	21831
852.838	21869
852.973	21991
853.107	21895
853.242	21778
853.376	21686
853.511	21557
853.645	21660
853.78	21717
853.914	21679
854.048	21603
854.183	21599
854.317	21599
854.451	21838
854.585	21610
854.72	21663
854.854	21698
854.988	21523
855.122	21580
855.256	21504
855.39	21515
855.524	21652
855.658	21595
855.792	21675
855.926	21603
856.06	21747
856.194	21679
856.327	21515
856.461	21618
856.595	21561
856.729	21553
856.862	21739
856.996	21701
857.13	21743
857.263	21698
857.397	21625
857.53	21652
857.664	21667
857.797	21568
857.931	21774
858.064	21694
858.197	21774
858.331	21549
858.464	21515
858.597	21416
858.731	21557
858.864	21405
858.997	21523
859.13	21644
859.263	21625
859.396	21561
859.529	21538
859.662	21526
859.795	21428
859.928	21614
860.061	21648
860.194	21751
860.327	21652
860.46	21504
860.592	21656
860.725	21660
860.858	21629
860.99	21496
861.123	21424
861.256	21549
861.388	21690
861.521	22128
861.653	21485
861.786	21557
861.918	21458
862.05	21454
862.183	21591
862.315	21591
862.447	21603
862.58	21545
862.712	21412
862.844	21222
862.976	21306
863.108	21378
863.24	21629
863.372	21310
863.504	21165
863.636	21264
863.768	21249
863.9	21138
864.032	21165
864.164	21256
864.296	21302
864.428	21260
864.559	21351
864.691	21188
864.823	21310
864.954	21207
865.086	21195
865.217	21207
865.349	21131
865.48	21074
865.612	21123
865.743	21325
865.875	21180
866.006	21135
866.137	21222
866.269	21058
866.4	21077
866.531	21066
866.662	21043
866.793	21066
866.924	21096
867.055	21192
867.186	21154
867.317	21058
867.448	20899
867.579	20979
867.71	20880
867.841	21013
867.972	20963
868.103	21009
868.233	20975
868.364	21017
868.495	21146
868.625	21161
868.756	21325
868.886	21184
869.017	21218
869.147	21447
869.278	21454
869.408	21306
869.539	21355
869.669	21359
869.799	21272
869.929	21466
870.06	21321
870.19	21553
870.32	21420
870.45	21652
870.58	21648
870.71	21724
870.84	21705
870.97	21698
871.1	21720
871.23	21842
871.36	21797
871.489	21778
871.619	21800
871.749	21907
871.879	21937
872.008	21968
872.138	21895
872.267	22002
872.397	21770
872.526	21743
872.656	21652
872.785	21724
872.915	21915
873.044	22032
873.173	21838
873.303	21953
873.432	22006
873.561	22093
873.69	21994
873.819	21835
873.948	21953
874.077	21975
874.206	21873
874.335	21835
874.464	21949
874.593	22101
874.722	22074
874.851	22120
874.979	22234
875.108	22158
875.237	22101
875.365	22067
875.494	22025
875.623	22219
875.751	22207
875.88	22181
876.008	22318
876.136	22344
876.265	22561
876.393	22713
876.521	22592
876.65	22649
876.778	22481
876.906	22493
877.034	22440
877.162	22493
877.29	22523
877.418	22550
877.546	22462
877.674	22421
877.802	22523
877.93	22443
878.058	22497
878.185	22367
878.313	22398
878.441	22573
878.568	22306
878.696	22291
878.824	22409
878.951	22615
879.079	22687
879.206	22786
879.333	22653
879.461	22527
879.588	22565
879.715	22641
879.842	22763
879.97	22459
880.097	22299
880.224	22329
880.351	22242
880.478	22211
880.605	22242
880.732	22367
880.859	22538
880.986	22424
881.112	22341
881.239	22139
881.366	21941
881.493	21979
881.619	21899
881.746	22025
881.872	21876
881.999	21907
882.125	21911
882.252	21949
882.378	21827
882.505	22055
882.631	21644
882.757	21538
882.883	21739
883.01	21663
883.136	21652
883.262	21458
883.388	21485
883.514	21572
883.64	21603
883.766	21504
883.892	21386
884.018	21542
884.143	21610
884.269	21614
884.395	21340
884.52	21241
884.646	21313
884.772	21146
884.897	21146
885.023	21363
885.148	21348
885.274	21329
885.399	21340
885.524	21264
885.65	21188
885.775	21321
885.9	21283
886.025	21226
886.15	21272
886.275	21218
886.4	21112
886.525	21214
886.65	21047
886.775	21203
886.9	21241
887.025	21416
887.149	21085
887.274	21070
887.399	21005
887.523	20986
887.648	21093
887.773	20826
887.897	21081
888.021	21077
888.146	20868
888.27	21032
888.395	21096
888.519	21188
888.643	20876
888.767	21017
888.891	20861
889.015	20678
889.139	20891
889.263	20552
889.387	20792
889.511	20975
889.635	20941
889.759	20777
889.883	20754
890.006	20674
890.13	20773
890.254	20655
890.377	20705
890.501	20712
890.624	20412
890.748	20625
890.871	20484
890.995	20355
891.118	20282
891.241	20396
891.364	20324
891.488	20404
891.611	20374
891.734	20275
891.857	20427
891.98	20473
892.103	20427
892.226	20389
892.349	20343
892.471	20122
892.594	20240
892.717	20332
892.839	20187
892.962	20248
893.085	20370
893.207	20267
893.33	20161
893.452	20195
893.575	20332
893.697	20229
893.819	20454
893.941	20313
894.064	20317
894.186	20084
894.308	20164
894.43	20278
894.552	20469
894.674	20366
894.796	20157
894.918	20229
895.04	20180
895.161	20248
895.283	20275
895.405	20206
895.526	20305
895.648	20237
895.769	20229
895.891	20438
896.012	20431
896.134	20263
896.255	20278
896.376	20214
896.498	20343
896.619	20336
896.74	20320
896.861	20385
896.982	20674
897.103	20800
897.224	20617
897.345	20686
897.466	20522
897.587	20389
897.708	20579
897.828	20476
897.949	20381
898.07	20267
898.19	20423
898.311	20522
898.431	20511
898.552	20393
898.672	20438
898.792	20450
898.913	20495
899.033	20301
899.153	20199
899.273	20111
899.393	20115
899.513	20164
899.633	20130
899.753	20161
899.873	20008
899.993	20100
900.113	20069
900.232	20130
900.352	20069
900.472	19993
900.591	19913
900.711	20020
900.83	19906
900.95	20103
901.069	20183
901.189	19769
901.308	19689
901.427	19533
901.546	19445
901.665	19590
901.784	19632
901.904	19335
902.023	19331
902.141	19126
902.26	19080
902.379	19137
902.498	19004
902.617	18920
902.735	19000
902.854	19019
902.973	18932
903.091	18574
903.21	18745
903.328	18623
903.446	18490
903.565	18445
903.683	18536
903.801	18270
903.919	18384
904.038	18441
904.156	18407
904.274	18338
904.392	18171
904.51	18239
904.627	18254
904.745	18266
904.863	18289
904.981	18049
905.098	17965
905.216	17840
905.334	17992
905.451	17893
905.569	17912
905.686	17965
905.803	17824
905.921	17577
906.038	17767
906.155	17649
906.272	17672
906.389	17471
906.506	17509
906.623	17417
906.74	17429
906.857	17299
906.974	17239
907.091	17463
907.208	17554
907.324	17406
907.441	17296
907.557	17140
907.674	17117
907.79	17056
907.907	17151
908.023	17041
908.139	17143
908.256	17090
908.372	16991
908.488	16869
908.604	16927
908.72	16740
908.836	16828
908.952	16729
909.068	16801
909.184	16828
909.3	16801
909.415	16847
909.531	16725
909.647	16607
909.762	16504
909.878	16417
909.993	16481
910.108	16451
910.224	16478
910.339	16466
910.454	16268
910.57	16230
910.685	16223
910.8	16470
910.915	16451
911.03	16238
911.145	16025
911.259	16162
911.374	16082
911.489	16013
911.604	15846
911.718	15774
911.833	15937
911.947	15781
912.062	15603
912.176	15899
912.291	15838
912.405	15797
912.519	15922
912.633	16006
912.748	15759
912.862	15736
912.976	15682
913.09	15469
913.204	15538
913.318	15618
913.431	15568
913.545	15679
913.659	15762
913.772	15519
913.886	15477
914	15393
914.113	15564
914.226	15397
914.34	15545
914.453	15298
914.566	15420
914.68	15370
914.793	15287
914.906	15112
915.019	14986
915.132	14967
915.245	14998
915.358	15188
915.47	15032
915.583	15009
915.696	15062
915.809	15039
915.921	15119
916.034	14910
916.146	14956
916.259	14960
916.371	14899
916.483	14963
916.595	14910
916.708	14902
916.82	14811
916.932	14750
917.044	14849
917.156	14750
917.268	14629
917.38	14735
917.491	14758
917.603	14670
917.715	14689
917.826	14731
917.938	14549
918.049	14583
918.161	14689
918.272	14701
918.384	14826
918.495	14655
918.606	14499
918.717	14446
918.828	14450
918.939	14549
919.05	14324
919.161	14328
919.272	14161
919.383	14233
919.494	14461
919.604	14511
919.715	14259
919.826	14202
919.936	14336
920.047	14461
920.157	14484
920.267	14499
920.378	14332
920.488	14252
920.598	14503
920.708	14705
920.818	14415
920.928	14457
921.038	14613
921.148	14568
921.258	14294
921.368	14081
921.477	14081
921.587	14100
921.697	13928
921.806	14100
921.916	13967
922.025	13791
922.134	13693
922.244	13700
922.353	13757
922.462	13518
922.571	13476
922.68	13324
922.789	13411
922.898	13362
923.007	13221
923.116	13343
923.224	13324
923.333	13324
923.442	13206
923.55	13065
923.659	13266
923.767	13251
923.876	13133
923.984	13129
924.092	13118
924.201	13099
924.309	13183
924.417	13076
924.525	13015
924.633	13088
924.741	13738
924.849	12840
924.956	12951
925.064	12745
925.172	12753
925.279	12829
925.387	12787
925.494	12760
925.602	12920
925.709	12840
925.816	12604
925.924	12726
926.031	12837
926.138	12760
926.245	12749
926.352	12650
926.459	12734
926.566	12772
926.673	12597
926.779	12445
926.886	12517
926.993	12384
927.099	12346
927.206	12254
927.312	12266
927.419	12422
927.525	12346
927.631	12304
927.737	12300
927.843	12213
927.95	12053
928.056	12167
928.162	12136
928.267	12224
928.373	12848
928.479	12239
928.585	11923
928.69	12129
928.796	12228
928.901	11996
929.007	11916
929.112	11916
929.218	11999
929.323	11893
929.428	11798
929.533	11980
929.638	11741
929.743	11805
929.848	11916
929.953	11824
930.058	11714
930.163	11611
930.267	11577
930.372	11779
930.477	11558
930.581	11790
930.685	11627
930.79	11414
930.894	11417
930.998	11410
931.103	11509
931.207	11193
931.311	11064
931.415	10942
931.519	10843
931.623	10805
