Data from test_V78500241_3003.txt Node
Date: Fri Mar 25 16:02:36 CST 2022
User: usil
Spectrometer: V785-0024
Trigger mode: 0
Integration Time (sec): 4.000000E-1
Scans to average: 1
Nonlinearity correction enabled: false
Boxcar width: 0
Storing dark spectrum: false
XAxis mode: Wavelengths
Number of Pixels in Spectrum: 1024
>>>>>Begin Spectral Data<<<<<
801.071	28744
801.214	28611
801.356	28485
801.499	28379
801.641	28291
801.783	28226
801.926	28314
802.068	28360
802.211	28196
802.353	28067
802.496	28116
802.638	28010
802.78	27987
802.923	27922
803.065	27789
803.208	27854
803.35	27960
803.492	28162
803.635	28112
803.777	28036
803.919	28272
804.061	28440
804.204	28143
804.346	28032
804.488	28238
804.63	28207
804.773	28097
804.915	28363
805.057	28436
805.199	28253
805.341	28348
805.483	28322
805.626	28333
805.768	28192
805.91	28401
806.052	28363
806.194	28166
806.336	28523
806.478	28341
806.62	28352
806.762	28478
806.904	28740
807.046	28771
807.188	28767
807.33	28915
807.472	28892
807.614	28748
807.756	28873
807.898	28683
808.04	28729
808.182	28599
808.324	28664
808.465	28729
808.607	29025
808.749	28984
808.891	29064
809.033	29250
809.174	29048
809.316	29189
809.458	29079
809.6	28987
809.741	29200
809.883	29159
810.025	29250
810.166	29379
810.308	29463
810.45	29292
810.591	29322
810.733	29189
810.875	29075
811.016	28965
811.158	29079
811.299	29216
811.441	29178
811.582	29208
811.724	29277
811.865	29064
812.007	29041
812.148	29109
812.29	29197
812.431	29299
812.573	29391
812.714	29421
812.855	29657
812.997	29748
813.138	29786
813.279	29665
813.421	29543
813.562	29463
813.703	29543
813.845	29155
813.986	29121
814.127	28866
814.268	28740
814.41	28778
814.551	28786
814.692	28744
814.833	28888
814.974	28622
815.115	28687
815.256	28535
815.397	28626
815.539	28645
815.68	28679
815.821	28577
815.962	28626
816.103	28531
816.244	28356
816.385	28386
816.526	28382
816.666	28139
816.807	28082
816.948	28040
817.089	28261
817.23	28200
817.371	28120
817.512	28128
817.653	27918
817.793	27956
817.934	28010
818.075	28169
818.216	28124
818.356	27979
818.497	27918
818.638	27736
818.778	27778
818.919	28006
819.06	28078
819.2	27895
819.341	28150
819.481	27972
819.622	28253
819.762	28344
819.903	28306
820.043	28325
820.184	28322
820.324	28120
820.465	28310
820.605	28185
820.746	28280
820.886	28070
821.026	28150
821.167	28234
821.307	28242
821.447	28120
821.588	27892
821.728	27835
821.868	27759
822.008	27679
822.149	27545
822.289	27504
822.429	27393
822.569	27367
822.709	27157
822.849	27169
822.99	27077
823.13	27039
823.27	27051
823.41	27077
823.55	26792
823.69	26819
823.83	26956
823.97	26925
824.11	26887
824.25	26872
824.389	26765
824.529	26872
824.669	26644
824.809	26963
824.949	26906
825.089	26872
825.228	26754
825.368	26518
825.508	26579
825.648	26629
825.787	26632
825.927	26594
826.067	26720
826.206	26613
826.346	26644
826.485	26602
826.625	26511
826.765	26727
826.904	26587
827.044	26434
827.183	26533
827.323	26282
827.462	26461
827.601	26469
827.741	26374
827.88	26332
828.02	26400
828.159	26457
828.298	26339
828.437	26415
828.577	26298
828.716	26320
828.855	26324
828.994	26172
829.134	26062
829.273	26100
829.412	26016
829.551	26020
829.69	25970
829.829	25982
829.968	26043
830.107	26130
830.246	26092
830.385	26005
830.524	25955
830.663	25803
830.802	25696
830.941	25727
831.08	25605
831.219	25655
831.357	25677
831.496	25902
831.635	25666
831.774	25521
831.913	25422
832.051	25362
832.19	25400
832.329	25335
832.467	25266
832.606	25278
832.744	25259
832.883	25133
833.022	25179
833.16	25365
833.299	25289
833.437	25392
833.576	25422
833.714	25438
833.852	25365
833.991	25430
834.129	25460
834.267	25419
834.406	25430
834.544	25377
834.682	25381
834.821	25274
834.959	25514
835.097	25419
835.235	25468
835.373	25384
835.511	25384
835.65	25335
835.788	25285
835.926	25080
836.064	24966
836.202	25053
836.34	25050
836.478	25266
836.615	25225
836.753	25183
836.891	25320
837.029	25240
837.167	25095
837.305	25126
837.443	25031
837.58	25031
837.718	25137
837.856	25023
837.993	24973
838.131	25065
838.269	24833
838.406	24977
838.544	24875
838.681	24688
838.819	24620
838.956	24460
839.094	24509
839.231	24544
839.369	24627
839.506	24977
839.643	24715
839.781	24616
839.918	24300
840.055	24414
840.193	24464
840.33	24475
840.467	24544
840.604	24479
840.742	24673
840.879	24243
841.016	24216
841.153	24338
841.29	24410
841.427	24407
841.564	24357
841.701	24311
841.838	24285
841.975	24273
842.112	24247
842.249	24224
842.385	23999
842.522	24456
842.659	24144
842.796	24254
842.933	24083
843.069	24167
843.206	24174
843.343	24186
843.479	24155
843.616	24216
843.752	24087
843.889	24007
844.025	24076
844.162	23965
844.298	23939
844.435	23901
844.571	23882
844.708	24038
844.844	24083
844.98	24125
845.117	23942
845.253	23764
845.389	23775
845.525	23809
845.661	23889
845.798	23554
845.934	23657
846.07	23699
846.206	23699
846.342	23882
846.478	23531
846.614	23448
846.75	23398
846.886	23406
847.022	23547
847.158	23463
847.294	23410
847.429	23471
847.565	23493
847.701	23566
847.837	23071
847.972	23197
848.108	23235
848.244	23174
848.379	23071
848.515	22968
848.65	22942
848.786	23044
848.921	23033
849.057	23033
849.192	23235
849.328	22949
849.463	22999
849.598	23102
849.734	22911
849.869	22949
850.004	22752
850.14	22911
850.275	22793
850.41	22774
850.545	22641
850.68	22717
850.815	22786
850.95	22641
851.085	22968
851.22	22831
851.355	22790
851.49	22736
851.625	22786
851.76	22649
851.895	22641
852.03	22763
852.165	22816
852.299	22816
852.434	22896
852.569	22717
852.703	22710
852.838	22831
852.973	22847
853.107	22862
853.242	22641
853.376	22569
853.511	22451
853.645	22603
853.78	22588
853.914	22691
854.048	22561
854.183	22569
854.317	22535
854.451	22729
854.585	22698
854.72	22634
854.854	22641
854.988	22405
855.122	22679
855.256	22436
855.39	22527
855.524	22569
855.658	22622
855.792	22622
855.926	22538
856.06	22687
856.194	22672
856.327	22466
856.461	22519
856.595	22588
856.729	22569
856.862	22672
856.996	22725
857.13	22565
857.263	22733
857.397	22592
857.53	22630
857.664	22538
857.797	22649
857.931	22698
858.064	22630
858.197	22717
858.331	22470
858.464	22523
858.597	22436
858.731	22569
858.864	22573
858.997	22493
859.13	22592
859.263	22508
859.396	22637
859.529	22656
859.662	22645
859.795	22474
859.928	22546
860.061	22831
860.194	22736
860.327	22637
860.46	22554
860.592	22626
860.725	22599
860.858	22763
860.99	22554
861.123	22493
861.256	22459
861.388	22622
861.521	23341
861.653	22485
861.786	22310
861.918	22436
862.05	22390
862.183	22497
862.315	22538
862.447	22622
862.58	22459
862.712	22261
862.844	22253
862.976	22386
863.108	22284
863.24	22554
863.372	22257
863.504	22352
863.636	22249
863.768	22360
863.9	22257
864.032	22192
864.164	22223
864.296	22303
864.428	22417
864.559	22390
864.691	22295
864.823	22341
864.954	22276
865.086	22150
865.217	22154
865.349	22070
865.48	22185
865.612	22162
865.743	22207
865.875	22162
866.006	22051
866.137	22219
866.269	22120
866.4	22105
866.531	22154
866.662	22029
866.793	21987
866.924	22029
867.055	22154
867.186	22029
867.317	22036
867.448	22036
867.579	22093
867.71	21915
867.841	22032
867.972	22143
868.103	21987
868.233	21983
868.364	22097
868.495	22097
868.625	22276
868.756	22451
868.886	22352
869.017	22284
869.147	22390
869.278	22363
869.408	22447
869.539	22344
869.669	22341
869.799	22405
869.929	22470
870.06	22440
870.19	22668
870.32	22573
870.45	22645
870.58	22801
870.71	22797
870.84	22854
870.97	22729
871.1	22713
871.23	22938
871.36	22957
871.489	22824
871.619	22934
871.749	22968
871.879	22919
872.008	23174
872.138	23010
872.267	23029
872.397	22771
872.526	22805
872.656	22790
872.785	22752
872.915	22999
873.044	23064
873.173	22946
873.303	23033
873.432	23003
873.561	23083
873.69	22942
873.819	22911
873.948	23010
874.077	22877
874.206	22843
874.335	22923
874.464	23064
874.593	23200
874.722	23181
874.851	23250
874.979	23197
875.108	23132
875.237	23117
875.365	23124
875.494	23060
875.623	23242
875.751	23136
875.88	23185
876.008	23273
876.136	23349
876.265	23646
876.393	23596
876.521	23665
876.65	23600
876.778	23539
876.906	23501
877.034	23535
877.162	23490
877.29	23410
877.418	23566
877.546	23611
877.674	23531
877.802	23539
877.93	23425
878.058	23516
878.185	23391
878.313	23353
878.441	23592
878.568	23311
878.696	23398
878.824	23448
878.951	23562
879.079	23646
879.206	23710
879.333	23649
879.461	23547
879.588	23573
879.715	23573
879.842	23786
879.97	23570
880.097	23368
880.224	23288
880.351	23433
880.478	23334
880.605	23269
880.732	23299
880.859	23497
880.986	23398
881.112	23246
881.239	23151
881.366	23014
881.493	22923
881.619	22953
881.746	22961
881.872	22873
881.999	22809
882.125	22801
882.252	22873
882.378	22839
882.505	22984
882.631	22717
882.757	22569
882.883	22630
883.01	22592
883.136	22455
883.262	22375
883.388	22390
883.514	22504
883.64	22641
883.766	22485
883.892	22382
884.018	22382
884.143	22577
884.269	22561
884.395	22367
884.52	22143
884.646	22105
884.772	22128
884.897	22090
885.023	22143
885.148	22367
885.274	22398
885.399	22223
885.524	22116
885.65	22150
885.775	22150
885.9	22150
886.025	22363
886.15	22192
886.275	22116
886.4	22173
886.525	22200
886.65	21915
886.775	22040
886.9	22109
887.025	22314
887.149	22169
887.274	21964
887.399	21968
887.523	21998
887.648	21884
887.773	21869
887.897	22082
888.021	21968
888.146	21861
888.27	22010
888.395	21953
888.519	21937
888.643	21926
888.767	21953
888.891	21869
889.015	21732
889.139	21774
889.263	21698
889.387	21743
889.511	21934
889.635	21804
889.759	21652
889.883	21698
890.006	21770
890.13	21759
890.254	21637
890.377	21713
890.501	21561
890.624	21458
890.748	21481
890.871	21405
890.995	21351
891.118	21272
891.241	21321
891.364	21252
891.488	21310
891.611	21424
891.734	21150
891.857	21420
891.98	21260
892.103	21264
892.226	21188
892.349	21245
892.471	20990
892.594	21062
892.717	21195
892.839	21161
892.962	21199
893.085	21313
893.207	21108
893.33	21047
893.452	21119
893.575	21218
893.697	21169
893.819	21199
893.941	21374
894.064	21272
894.186	21112
894.308	21093
894.43	21192
894.552	21298
894.674	21321
894.796	20948
894.918	21116
895.04	21195
895.161	21203
895.283	21192
895.405	21093
895.526	21192
895.648	21055
895.769	21142
895.891	21146
896.012	21245
896.134	21203
896.255	21138
896.376	21173
896.498	21001
896.619	21287
896.74	21127
896.861	21306
896.982	21408
897.103	21485
897.224	21439
897.345	21344
897.466	21378
897.587	21408
897.708	21507
897.828	21294
897.949	21367
898.07	21203
898.19	21268
898.311	21351
898.431	21275
898.552	21241
898.672	21458
898.792	21412
898.913	21348
899.033	21336
899.153	21104
899.273	20967
899.393	21123
899.513	21241
899.633	21104
899.753	21104
899.873	21032
899.993	21165
900.113	21009
900.232	21024
900.352	20975
900.472	20979
900.591	20819
900.711	20819
900.83	20811
900.95	20948
901.069	20918
901.189	20769
901.308	20530
901.427	20400
901.546	20358
901.665	20522
901.784	20305
901.904	20275
902.023	20157
902.141	19951
902.26	19868
902.379	19978
902.498	19913
902.617	19837
902.735	19963
902.854	19845
902.973	19742
903.091	19544
903.21	19575
903.328	19597
903.446	19400
903.565	19377
903.683	19362
903.801	19145
903.919	19259
904.038	19270
904.156	19103
904.274	19346
904.392	19156
904.51	19141
904.627	19050
904.745	19141
904.863	19126
904.981	18943
905.098	18741
905.216	18802
905.334	18795
905.451	18760
905.569	18639
905.686	18825
905.803	18772
905.921	18559
906.038	18658
906.155	18654
906.272	18566
906.389	18582
906.506	18338
906.623	18239
906.74	18254
906.857	18174
906.974	18205
907.091	18342
907.208	18422
907.324	18304
907.441	18220
907.557	18110
907.674	18030
907.79	17950
907.907	18030
908.023	18041
908.139	17999
908.256	18038
908.372	17916
908.488	17961
908.604	17710
908.72	17699
908.836	17828
908.952	17657
909.068	17843
909.184	17889
909.3	17775
909.415	17672
909.531	17707
909.647	17455
909.762	17379
909.878	17356
909.993	17520
910.108	17414
910.224	17372
910.339	17299
910.454	17307
910.57	17258
910.685	17159
910.8	17353
910.915	17322
911.03	17178
911.145	17048
911.259	17045
911.374	16999
911.489	16957
911.604	16866
911.718	16755
911.833	16877
911.947	16691
912.062	16531
912.176	16736
912.291	16896
912.405	16691
912.519	17010
912.633	16991
912.748	16786
912.862	16660
912.976	16565
913.09	16440
913.204	16550
913.318	16607
913.431	16580
913.545	16592
913.659	16649
913.772	16527
913.886	16436
914	16348
914.113	16516
914.226	16527
914.34	16367
914.453	16253
914.566	16398
914.68	16196
914.793	16230
914.906	16010
915.019	15937
915.132	15926
915.245	15941
915.358	15953
915.47	15956
915.583	15804
915.696	15964
915.809	15998
915.921	16002
916.034	15880
916.146	15800
916.259	15854
916.371	15888
916.483	15869
916.595	15686
916.708	15778
916.82	15724
916.932	15663
917.044	15709
917.156	15774
917.268	15504
917.38	15587
917.491	15591
917.603	15587
917.715	15595
917.826	15732
917.938	15496
918.049	15332
918.161	15500
918.272	15606
918.384	15686
918.495	15435
918.606	15351
918.717	15283
918.828	15321
918.939	15416
919.05	15214
919.161	15355
919.272	15051
919.383	15188
919.494	15329
919.604	15439
919.715	15233
919.826	15119
919.936	15203
920.047	15348
920.157	15382
920.267	15526
920.378	15195
920.488	15195
920.598	15378
920.708	15542
920.818	15325
920.928	15336
921.038	15481
921.148	15443
921.258	15241
921.368	15089
921.477	14929
921.587	14941
921.697	14811
921.806	14948
921.916	14781
922.025	14682
922.134	14644
922.244	14568
922.353	14697
922.462	14533
922.571	14446
922.68	14282
922.789	14195
922.898	14221
923.007	14172
923.116	14233
923.224	14172
923.333	14138
923.442	14157
923.55	14050
923.659	14058
923.767	14065
923.876	14005
923.984	14100
924.092	13974
924.201	14001
924.309	14005
924.417	13955
924.525	13849
924.633	13852
924.741	14629
924.849	13719
924.956	13841
925.064	13658
925.172	13601
925.279	13620
925.387	13609
925.494	13628
925.602	13826
925.709	13670
925.816	13506
925.924	13605
926.031	13544
926.138	13533
926.245	13597
926.352	13438
926.459	13578
926.566	13578
926.673	13483
926.779	13365
926.886	13225
926.993	13236
927.099	13133
927.206	13141
927.312	13179
927.419	13145
927.525	13122
927.631	13145
927.737	13069
927.843	13053
927.95	12878
928.056	12947
928.162	12966
928.267	13031
928.373	13613
928.479	12977
928.585	12798
928.69	12901
928.796	12909
928.901	12738
929.007	12570
929.112	12795
929.218	12700
929.323	12753
929.428	12604
929.533	12795
929.638	12631
929.743	12662
929.848	12639
929.953	12578
930.058	12559
930.163	12357
930.267	12429
930.372	12452
930.477	12311
930.581	12486
930.685	12384
930.79	12171
930.894	12190
930.998	12197
931.103	12304
931.207	11954
931.311	11961
931.415	11798
931.519	11649
931.623	11547
