Data from test_V78500241_1421.txt Node
Date: Fri Mar 25 15:51:38 CST 2022
User: usil
Spectrometer: V785-0024
Trigger mode: 0
Integration Time (sec): 4.000000E-1
Scans to average: 1
Nonlinearity correction enabled: false
Boxcar width: 0
Storing dark spectrum: false
XAxis mode: Wavelengths
Number of Pixels in Spectrum: 1024
>>>>>Begin Spectral Data<<<<<
801.071	28074
801.214	28040
801.356	27679
801.499	27637
801.641	27618
801.783	27466
801.926	27485
802.068	27469
802.211	27439
802.353	27359
802.496	27268
802.638	27131
802.78	27051
802.923	27157
803.065	27062
803.208	27058
803.35	27154
803.492	27256
803.635	27397
803.777	27291
803.919	27439
804.061	27686
804.204	27389
804.346	27313
804.488	27408
804.63	27340
804.773	27317
804.915	27321
805.057	27504
805.199	27291
805.341	27500
805.483	27637
805.626	27694
805.768	27481
805.91	27568
806.052	27557
806.194	27545
806.336	27819
806.478	27534
806.62	27629
806.762	27732
806.904	27831
807.046	28158
807.188	27964
807.33	27785
807.472	28082
807.614	27972
807.756	27903
807.898	27873
808.04	27644
808.182	27743
808.324	27964
808.465	27945
808.607	28173
808.749	28234
808.891	28204
809.033	28257
809.174	28207
809.316	28234
809.458	28207
809.6	28234
809.741	28291
809.883	28303
810.025	28329
810.166	28421
810.308	28512
810.45	28379
810.591	28337
810.733	28280
810.875	28207
811.016	28109
811.158	28101
811.299	28322
811.441	28371
811.582	28207
811.724	28249
811.865	28116
812.007	28124
812.148	28181
812.29	28135
812.431	28337
812.573	28455
812.714	28569
812.855	28691
812.997	28862
813.138	28828
813.279	28721
813.421	28694
813.562	28752
813.703	28409
813.845	28401
813.986	28162
814.127	27895
814.268	27930
814.41	27880
814.551	27888
814.692	27953
814.833	27682
814.974	27797
815.115	27873
815.256	27762
815.397	27641
815.539	27705
815.68	27778
815.821	27492
815.962	27652
816.103	27625
816.244	27454
816.385	27447
816.526	27424
816.666	27211
816.807	27150
816.948	27264
817.089	27317
817.23	27195
817.371	27135
817.512	27207
817.653	26994
817.793	27108
817.934	27214
818.075	27218
818.216	27291
818.356	27119
818.497	27062
818.638	26731
818.778	26838
818.919	27001
819.06	27047
819.2	27055
819.341	27131
819.481	27142
819.622	27302
819.762	27466
819.903	27211
820.043	27416
820.184	27279
820.324	27348
820.465	27363
820.605	27279
820.746	27176
820.886	27093
821.026	27294
821.167	27321
821.307	27211
821.447	27112
821.588	27116
821.728	27032
821.868	26762
822.008	26727
822.149	26678
822.289	26621
822.429	26385
822.569	26233
822.709	26305
822.849	26206
822.99	26126
823.13	26092
823.27	26005
823.41	25951
823.55	25837
823.69	26043
823.83	25906
823.97	25860
824.11	25723
824.25	25818
824.389	25746
824.529	25833
824.669	25708
824.809	25879
824.949	25875
825.089	26005
825.228	25822
825.368	25674
825.508	25689
825.648	25582
825.787	25738
825.927	25674
826.067	25594
826.206	25658
826.346	25731
826.485	25689
826.625	25731
826.765	25731
826.904	25685
827.044	25441
827.183	25365
827.323	25449
827.462	25183
827.601	25426
827.741	25407
827.88	25422
828.02	25289
828.159	25396
828.298	25247
828.437	25487
828.577	25240
828.716	25468
828.855	25304
828.994	25034
829.134	25034
829.273	25057
829.412	25072
829.551	25061
829.69	24989
829.829	25190
829.968	25110
830.107	25088
830.246	25076
830.385	25050
830.524	24935
830.663	24867
830.802	24726
830.941	24635
831.08	24582
831.219	24897
831.357	24646
831.496	24882
831.635	24665
831.774	24589
831.913	24509
832.051	24357
832.19	24471
832.329	24517
832.467	24289
832.606	24338
832.744	24213
832.883	24247
833.022	24254
833.16	24334
833.299	24376
833.437	24441
833.576	24376
833.714	24502
833.852	24422
833.991	24311
834.129	24517
834.267	24502
834.406	24452
834.544	24414
834.682	24532
834.821	24403
834.959	24566
835.097	24342
835.235	24467
835.373	24475
835.511	24353
835.65	24266
835.788	24418
835.926	24091
836.064	24038
836.202	24209
836.34	24327
836.478	24311
836.615	24167
836.753	24323
836.891	24350
837.029	24220
837.167	24220
837.305	24148
837.443	24072
837.58	24095
837.718	24064
837.856	24095
837.993	23992
838.131	24121
838.269	23965
838.406	23992
838.544	23942
838.681	23760
838.819	23668
838.956	23440
839.094	23547
839.231	23687
839.369	23767
839.506	23958
839.643	23813
839.781	23592
839.918	23478
840.055	23630
840.193	23493
840.33	23493
840.467	23493
840.604	23356
840.742	23745
840.879	23193
841.016	23440
841.153	23391
841.29	23421
841.427	23577
841.564	23493
841.701	23410
841.838	23318
841.975	23391
842.112	23444
842.249	23315
842.385	23212
842.522	23463
842.659	23288
842.796	23094
842.933	23220
843.069	23109
843.206	23109
843.343	23166
843.479	23151
843.616	23220
843.752	22930
843.889	23037
844.025	23231
844.162	22968
844.298	22980
844.435	22953
844.571	22995
844.708	22976
844.844	23090
844.98	23189
845.117	23029
845.253	23022
845.389	22744
845.525	22835
845.661	22687
845.798	22717
845.934	22839
846.07	22736
846.206	22790
846.342	22816
846.478	22713
846.614	22580
846.75	22462
846.886	22455
847.022	22500
847.158	22542
847.294	22462
847.429	22466
847.565	22409
847.701	22698
847.837	22055
847.972	22032
848.108	22257
848.244	22329
848.379	22101
848.515	22131
848.65	22059
848.786	22055
848.921	22112
849.057	22109
849.192	22112
849.328	22143
849.463	21945
849.598	22002
849.734	21922
849.869	21789
850.004	21953
850.14	21755
850.275	21819
850.41	21835
850.545	21671
850.68	21686
850.815	21774
850.95	21751
851.085	21968
851.22	21907
851.355	21774
851.49	21743
851.625	21800
851.76	21732
851.895	21694
852.03	21652
852.165	21781
852.299	21812
852.434	21857
852.569	21816
852.703	21717
852.838	21937
852.973	21956
853.107	21953
853.242	21766
853.376	21728
853.511	21500
853.645	21519
853.78	21660
853.914	21701
854.048	21557
854.183	21397
854.317	21728
854.451	21766
854.585	21652
854.72	21587
854.854	21739
854.988	21500
855.122	21629
855.256	21538
855.39	21671
855.524	21701
855.658	21633
855.792	21660
855.926	21587
856.06	21705
856.194	21641
856.327	21618
856.461	21568
856.595	21656
856.729	21568
856.862	21819
856.996	21705
857.13	21774
857.263	21739
857.397	21724
857.53	21652
857.664	21614
857.797	21656
857.931	21671
858.064	21591
858.197	21728
858.331	21675
858.464	21500
858.597	21538
858.731	21599
858.864	21523
858.997	21713
859.13	21633
859.263	21564
859.396	21652
859.529	21504
859.662	21660
859.795	21545
859.928	21572
860.061	21739
860.194	21797
860.327	21739
860.46	21580
860.592	21648
860.725	21751
860.858	21724
860.99	21545
861.123	21641
861.256	21614
861.388	21701
861.521	22299
861.653	21462
861.786	21382
861.918	21386
862.05	21576
862.183	21606
862.315	21553
862.447	21500
862.58	21572
862.712	21332
862.844	21367
862.976	21424
863.108	21428
863.24	21793
863.372	21321
863.504	21378
863.636	21302
863.768	21348
863.9	21458
864.032	21317
864.164	21233
864.296	21370
864.428	21443
864.559	21389
864.691	21351
864.823	21252
864.954	21302
865.086	21294
865.217	21291
865.349	21173
865.48	21230
865.612	21264
865.743	21439
865.875	21268
866.006	21260
866.137	21313
866.269	21272
866.4	21313
866.531	21283
866.662	21062
866.793	21108
866.924	21207
867.055	21275
867.186	21351
867.317	21233
867.448	21070
867.579	21150
867.71	21085
867.841	21043
867.972	21218
868.103	21214
868.233	21195
868.364	21169
868.495	21165
868.625	21359
868.756	21500
868.886	21351
869.017	21252
869.147	21526
869.278	21310
869.408	21462
869.539	21332
869.669	21359
869.799	21504
869.929	21595
870.06	21511
870.19	21583
870.32	21679
870.45	21774
870.58	21759
870.71	21930
870.84	21873
870.97	21816
871.1	21739
871.23	21987
871.36	22017
871.489	21816
871.619	21945
871.749	22051
871.879	22090
872.008	22150
872.138	21972
872.267	21926
872.397	21930
872.526	21941
872.656	21934
872.785	21823
872.915	22021
873.044	22116
873.173	22101
873.303	22131
873.432	22223
873.561	22116
873.69	22002
873.819	21953
873.948	22090
874.077	22101
874.206	21960
874.335	22093
874.464	22226
874.593	22265
874.722	22143
874.851	22280
874.979	22200
875.108	22299
875.237	22223
875.365	22139
875.494	22265
875.623	22344
875.751	22230
875.88	22303
876.008	22379
876.136	22375
876.265	22664
876.393	22763
876.521	22698
876.65	22748
876.778	22603
876.906	22584
877.034	22577
877.162	22672
877.29	22462
877.418	22630
877.546	22675
877.674	22687
877.802	22615
877.93	22573
878.058	22497
878.185	22421
878.313	22493
878.441	22649
878.568	22519
878.696	22546
878.824	22778
878.951	22774
879.079	22866
879.206	22866
879.333	22786
879.461	22706
879.588	22866
879.715	22752
879.842	22881
879.97	22748
880.097	22462
880.224	22440
880.351	22352
880.478	22485
880.605	22333
880.732	22402
880.859	22653
880.986	22493
881.112	22344
881.239	22367
881.366	22093
881.493	22086
881.619	22105
881.746	22150
881.872	21888
881.999	21972
882.125	21838
882.252	22044
882.378	21979
882.505	22169
882.631	21831
882.757	21857
882.883	21766
883.01	21743
883.136	21622
883.262	21568
883.388	21572
883.514	21686
883.64	21622
883.766	21671
883.892	21420
884.018	21671
884.143	21625
884.269	21701
884.395	21359
884.52	21313
884.646	21222
884.772	21275
884.897	21222
885.023	21355
885.148	21378
885.274	21386
885.399	21466
885.524	21279
885.65	21329
885.775	21279
885.9	21393
886.025	21500
886.15	21496
886.275	21302
886.4	21157
886.525	21233
886.65	21154
886.775	21207
886.9	21431
887.025	21549
887.149	21351
887.274	21119
887.399	21112
887.523	20986
887.648	21024
887.773	21051
887.897	21173
888.021	21184
888.146	21028
888.27	21165
888.395	21180
888.519	21081
888.643	21123
888.767	21024
888.891	21036
889.015	20857
889.139	20849
889.263	20849
889.387	21013
889.511	21070
889.635	20857
889.759	20857
889.883	20834
890.006	20883
890.13	21001
890.254	20788
890.377	20876
890.501	20644
890.624	20469
890.748	20651
890.871	20526
890.995	20438
891.118	20377
891.241	20476
891.364	20533
891.488	20522
891.611	20366
891.734	20389
891.857	20488
891.98	20343
892.103	20598
892.226	20495
892.349	20278
892.471	20256
892.594	20427
892.717	20317
892.839	20412
892.962	20393
893.085	20518
893.207	20404
893.33	20153
893.452	20278
893.575	20275
893.697	20347
893.819	20514
893.941	20480
894.064	20514
894.186	20305
894.308	20248
894.43	20328
894.552	20469
894.674	20381
894.796	20282
894.918	20286
895.04	20328
895.161	20408
895.283	20415
895.405	20168
895.526	20347
895.648	20275
895.769	20480
895.891	20415
896.012	20400
896.134	20339
896.255	20358
896.376	20282
896.498	20294
896.619	20377
896.74	20320
896.861	20438
896.982	20644
897.103	20708
897.224	20495
897.345	20640
897.466	20522
897.587	20530
897.708	20746
897.828	20583
897.949	20469
898.07	20332
898.19	20579
898.311	20549
898.431	20473
898.552	20518
898.672	20712
898.792	20773
898.913	20549
899.033	20396
899.153	20385
899.273	20206
899.393	20305
899.513	20301
899.633	20290
899.753	20339
899.873	20317
899.993	20347
900.113	20290
900.232	20218
900.352	20187
900.472	20058
900.591	20069
900.711	20122
900.83	19883
900.95	20134
901.069	20267
901.189	20020
901.308	19677
901.427	19708
901.546	19799
901.665	19632
901.784	19643
901.904	19655
902.023	19468
902.141	19289
902.26	19240
902.379	19301
902.498	19091
902.617	19198
902.735	19206
902.854	19141
902.973	18993
903.091	18810
903.21	18852
903.328	18913
903.446	18631
903.565	18669
903.683	18673
903.801	18475
903.919	18627
904.038	18597
904.156	18327
904.274	18399
904.392	18426
904.51	18384
904.627	18327
904.745	18475
904.863	18445
904.981	18209
905.098	18053
905.216	18129
905.334	18068
905.451	18121
905.569	18174
905.686	18095
905.803	18038
905.921	17870
906.038	17912
906.155	17805
906.272	17729
906.389	17836
906.506	17630
906.623	17653
906.74	17638
906.857	17497
906.974	17452
907.091	17566
907.208	17653
907.324	17589
907.441	17391
907.557	17455
907.674	17261
907.79	17212
907.907	17227
908.023	17223
908.139	17303
908.256	17299
908.372	17273
908.488	17178
908.604	17075
908.72	16984
908.836	16980
908.952	17090
909.068	17098
909.184	17117
909.3	16961
909.415	17113
909.531	16984
909.647	16717
909.762	16755
909.878	16717
909.993	16744
910.108	16748
910.224	16618
910.339	16752
910.454	16538
910.57	16478
910.685	16443
910.8	16729
910.915	16634
911.03	16462
911.145	16367
911.259	16314
911.374	16310
911.489	16223
911.604	16234
911.718	16124
911.833	16006
911.947	15964
912.062	15979
912.176	16082
912.291	16021
912.405	16040
912.519	16215
912.633	16367
912.748	16215
912.862	16036
912.976	15865
913.09	15850
913.204	15797
913.318	15827
913.431	15873
913.545	15968
913.659	16040
913.772	15956
913.886	15759
914	15690
914.113	15701
914.226	15819
914.34	15682
914.453	15561
914.566	15732
914.68	15572
914.793	15553
914.906	15401
915.019	15306
915.132	15176
915.245	15306
915.358	15260
915.47	15294
915.583	15279
915.696	15310
915.809	15275
915.921	15359
916.034	15249
916.146	15222
916.259	15123
916.371	15264
916.483	15241
916.595	15093
916.708	15085
916.82	15123
916.932	15104
917.044	15123
917.156	15077
917.268	14853
917.38	14944
917.491	14891
917.603	14986
917.715	15020
917.826	15066
917.938	14872
918.049	14826
918.161	14902
918.272	15024
918.384	15131
918.495	14887
918.606	14746
918.717	14625
918.828	14708
918.939	14636
919.05	14621
919.161	14667
919.272	14511
919.383	14530
919.494	14693
919.604	14872
919.715	14644
919.826	14511
919.936	14693
920.047	14701
920.157	14655
920.267	14792
920.378	14788
920.488	14636
920.598	14842
920.708	14910
920.818	14773
920.928	14819
921.038	15001
921.148	14925
921.258	14648
921.368	14465
921.477	14381
921.587	14408
921.697	14256
921.806	14446
921.916	14244
922.025	14164
922.134	13913
922.244	13993
922.353	14046
922.462	13845
922.571	13936
922.68	13681
922.789	13655
922.898	13639
923.007	13636
923.116	13670
923.224	13586
923.333	13590
923.442	13506
923.55	13460
923.659	13552
923.767	13567
923.876	13415
923.984	13571
924.092	13495
924.201	13457
924.309	13403
924.417	13373
924.525	13434
924.633	13324
924.741	14111
924.849	13103
924.956	13236
925.064	13152
925.172	12993
925.279	13069
925.387	13110
925.494	13069
925.602	13217
925.709	13175
925.816	13004
925.924	13107
926.031	13160
926.138	13031
926.245	13110
926.352	12958
926.459	12993
926.566	13156
926.673	12837
926.779	12852
926.886	12859
926.993	12787
927.099	12540
927.206	12631
927.312	12566
927.419	12711
927.525	12616
927.631	12650
927.737	12536
927.843	12532
927.95	12369
928.056	12498
928.162	12544
928.267	12593
928.373	13122
928.479	12525
928.585	12235
928.69	12414
928.796	12422
928.901	12357
929.007	12186
929.112	12353
929.218	12243
929.323	12152
929.428	12060
929.533	12289
929.638	12087
929.743	12106
929.848	12262
929.953	12171
930.058	12087
930.163	11889
930.267	11847
930.372	12053
930.477	11794
930.581	12041
930.685	11927
930.79	11783
930.894	11714
930.998	11764
931.103	11859
931.207	11528
931.311	11463
931.415	11349
931.519	11067
931.623	11178
