Data from test_V78500241_3106.txt Node
Date: Fri Mar 25 16:03:19 CST 2022
User: usil
Spectrometer: V785-0024
Trigger mode: 0
Integration Time (sec): 4.000000E-1
Scans to average: 1
Nonlinearity correction enabled: false
Boxcar width: 0
Storing dark spectrum: false
XAxis mode: Wavelengths
Number of Pixels in Spectrum: 1024
>>>>>Begin Spectral Data<<<<<
801.071	28440
801.214	28268
801.356	28131
801.499	27922
801.641	27926
801.783	28013
801.926	27922
802.068	27842
802.211	27854
802.353	27724
802.496	27561
802.638	27622
802.78	27526
802.923	27553
803.065	27542
803.208	27568
803.35	27690
803.492	27876
803.635	27884
803.777	27705
803.919	27846
804.061	28139
804.204	27846
804.346	27698
804.488	27656
804.63	27873
804.773	27739
804.915	27918
805.057	28040
805.199	27869
805.341	27827
805.483	27911
805.626	27755
805.768	28006
805.91	27941
806.052	27998
806.194	27930
806.336	28124
806.478	27979
806.62	27831
806.762	28055
806.904	28246
807.046	28531
807.188	28401
807.33	28341
807.472	28405
807.614	28295
807.756	28382
807.898	28207
808.04	28207
808.182	28135
808.324	28101
808.465	28352
808.607	28401
808.749	28523
808.891	28660
809.033	28835
809.174	28656
809.316	28428
809.458	28653
809.6	28592
809.741	28664
809.883	28843
810.025	28949
810.166	29006
810.308	28915
810.45	28850
810.591	28976
810.733	28748
810.875	28664
811.016	28577
811.158	28478
811.299	28630
811.441	28831
811.582	28778
811.724	28782
811.865	28554
812.007	28660
812.148	28755
812.29	28755
812.431	28839
812.573	29022
812.714	29037
812.855	29166
812.997	29162
813.138	29448
813.279	29250
813.421	29136
813.562	29147
813.703	28980
813.845	28805
813.986	28664
814.127	28413
814.268	28394
814.41	28367
814.551	28238
814.692	28333
814.833	28284
814.974	28261
815.115	28329
815.256	28086
815.397	28147
815.539	28147
815.68	28173
815.821	28112
815.962	28112
816.103	28078
816.244	28105
816.385	27781
816.526	27759
816.666	27679
816.807	27698
816.948	27587
817.089	27671
817.23	27644
817.371	27675
817.512	27641
817.653	27564
817.793	27637
817.934	27614
818.075	27534
818.216	27610
818.356	27530
818.497	27450
818.638	27260
818.778	27359
818.919	27466
819.06	27408
819.2	27447
819.341	27603
819.481	27469
819.622	27816
819.762	28025
819.903	27842
820.043	27755
820.184	27770
820.324	27724
820.465	27800
820.605	27705
820.746	27743
820.886	27816
821.026	27732
821.167	27751
821.307	27739
821.447	27671
821.588	27618
821.728	27435
821.868	27397
822.008	27070
822.149	27112
822.289	27077
822.429	26910
822.569	26727
822.709	26735
822.849	26621
822.99	26655
823.13	26655
823.27	26640
823.41	26423
823.55	26275
823.69	26362
823.83	26503
823.97	26404
824.11	26229
824.25	26138
824.389	26237
824.529	26366
824.669	26180
824.809	26404
824.949	26385
825.089	26434
825.228	26275
825.368	26081
825.508	26050
825.648	26138
825.787	26107
825.927	26252
826.067	26069
826.206	26119
826.346	26263
826.485	26138
826.625	26130
826.765	26225
826.904	26199
827.044	25986
827.183	25944
827.323	25822
827.462	25887
827.601	25776
827.741	25818
827.88	25849
828.02	25795
828.159	25837
828.298	25830
828.437	25883
828.577	25685
828.716	25982
828.855	25811
828.994	25502
829.134	25624
829.273	25655
829.412	25479
829.551	25525
829.69	25655
829.829	25514
829.968	25632
830.107	25628
830.246	25597
830.385	25533
830.524	25472
830.663	25289
830.802	25126
830.941	25099
831.08	25118
831.219	25365
831.357	25240
831.496	25373
831.635	25301
831.774	25084
831.913	25118
832.051	24798
832.19	24958
832.329	24806
832.467	24935
832.606	24783
832.744	24734
832.883	24783
833.022	24741
833.16	24776
833.299	24829
833.437	24821
833.576	24958
833.714	24859
833.852	24962
833.991	24943
834.129	24951
834.267	24932
834.406	24973
834.544	24977
834.682	24760
834.821	24814
834.959	24951
835.097	24825
835.235	24951
835.373	24810
835.511	24844
835.65	24726
835.788	24787
835.926	24639
836.064	24452
836.202	24414
836.34	24772
836.478	24620
836.615	24528
836.753	24661
836.891	24878
837.029	24741
837.167	24650
837.305	24707
837.443	24532
837.58	24441
837.718	24517
837.856	24528
837.993	24448
838.131	24612
838.269	24429
838.406	24521
838.544	24365
838.681	24205
838.819	24197
838.956	23984
839.094	23973
839.231	24133
839.369	24140
839.506	24448
839.643	24285
839.781	23935
839.918	23939
840.055	23996
840.193	24041
840.33	23954
840.467	24007
840.604	24041
840.742	24045
840.879	23687
841.016	23836
841.153	23809
841.29	24072
841.427	23836
841.564	23977
841.701	23885
841.838	23904
841.975	23786
842.112	23756
842.249	23802
842.385	23684
842.522	23912
842.659	23687
842.796	23619
842.933	23828
843.069	23623
843.206	23771
843.343	23630
843.479	23691
843.616	23680
843.752	23334
843.889	23581
844.025	23562
844.162	23341
844.298	23444
844.435	23414
844.571	23459
844.708	23474
844.844	23471
844.98	23581
845.117	23524
845.253	23395
845.389	23311
845.525	23303
845.661	23303
845.798	23128
845.934	23170
846.07	23128
846.206	23216
846.342	23315
846.478	23197
846.614	23022
846.75	22885
846.886	22820
847.022	22869
847.158	22934
847.294	22934
847.429	22847
847.565	22812
847.701	23132
847.837	22634
847.972	22603
848.108	22698
848.244	22683
848.379	22561
848.515	22493
848.65	22481
848.786	22611
848.921	22550
849.057	22550
849.192	22516
849.328	22489
849.463	22428
849.598	22390
849.734	22379
849.869	22223
850.004	22265
850.14	22253
850.275	22223
850.41	22169
850.545	22192
850.68	22181
850.815	22329
850.95	22242
851.085	22436
851.22	22367
851.355	22337
851.49	22352
851.625	22162
851.76	22284
851.895	22261
852.03	22169
852.165	22272
852.299	22238
852.434	22314
852.569	22394
852.703	22200
852.838	22318
852.973	22440
853.107	22363
853.242	22177
853.376	22200
853.511	21979
853.645	22040
853.78	22291
853.914	22112
854.048	22040
854.183	22029
854.317	22109
854.451	22226
854.585	22059
854.72	22044
854.854	22070
854.988	22010
855.122	22070
855.256	21892
855.39	22048
855.524	22188
855.658	22272
855.792	22105
855.926	22093
856.06	22219
856.194	22128
856.327	22010
856.461	21964
856.595	22048
856.729	22051
856.862	22082
856.996	22150
857.13	22120
857.263	22139
857.397	22196
857.53	22025
857.664	22207
857.797	22067
857.931	22276
858.064	22082
858.197	22074
858.331	21968
858.464	21911
858.597	22017
858.731	22032
858.864	22147
858.997	21998
859.13	22029
859.263	22158
859.396	22219
859.529	22074
859.662	22055
859.795	22131
859.928	22162
860.061	22082
860.194	22299
860.327	22207
860.46	22234
860.592	22070
860.725	22185
860.858	22177
860.99	22006
861.123	21972
861.256	21998
861.388	22120
861.521	22656
861.653	21972
861.786	21823
861.918	21884
862.05	22010
862.183	22010
862.315	21979
862.447	22055
862.58	21888
862.712	21895
862.844	21827
862.976	21812
863.108	21823
863.24	22154
863.372	21739
863.504	21884
863.636	21861
863.768	21819
863.9	21827
864.032	21781
864.164	21785
864.296	21774
864.428	21846
864.559	21797
864.691	21899
864.823	21823
864.954	21770
865.086	21751
865.217	21599
865.349	21500
865.48	21770
865.612	21724
865.743	21736
865.875	21705
866.006	21599
866.137	21667
866.269	21614
866.4	21663
866.531	21606
866.662	21568
866.793	21568
866.924	21622
867.055	21553
867.186	21576
867.317	21701
867.448	21564
867.579	21447
867.71	21595
867.841	21447
867.972	21622
868.103	21523
868.233	21572
868.364	21614
868.495	21778
868.625	21778
868.756	21770
868.886	21736
869.017	21911
869.147	22044
869.278	21972
869.408	21945
869.539	21709
869.669	21774
869.799	21873
869.929	21983
870.06	21991
870.19	22147
870.32	22135
870.45	22211
870.58	22246
870.71	22352
870.84	22348
870.97	22337
871.1	22223
871.23	22417
871.36	22363
871.489	22348
871.619	22276
871.749	22363
871.879	22489
872.008	22596
872.138	22455
872.267	22478
872.397	22402
872.526	22287
872.656	22375
872.785	22325
872.915	22432
873.044	22557
873.173	22474
873.303	22504
873.432	22478
873.561	22637
873.69	22504
873.819	22599
873.948	22516
874.077	22474
874.206	22386
874.335	22535
874.464	22603
874.593	22683
874.722	22611
874.851	22771
874.979	22721
875.108	22702
875.237	22599
875.365	22618
875.494	22706
875.623	22858
875.751	22592
875.88	22786
876.008	22771
876.136	22797
876.265	23098
876.393	23277
876.521	23162
876.65	23197
876.778	23136
876.906	23044
877.034	22972
877.162	23105
877.29	22961
877.418	23216
877.546	23113
877.674	22980
877.802	23018
877.93	23025
878.058	22980
878.185	22972
878.313	22980
878.441	23048
878.568	22831
878.696	22961
878.824	23018
878.951	23155
879.079	23151
879.206	23330
879.333	23197
879.461	23056
879.588	23178
879.715	23136
879.842	23364
879.97	23121
880.097	22812
880.224	22828
880.351	22881
880.478	22896
880.605	22881
880.732	22809
880.859	23075
880.986	22866
881.112	22923
881.239	22755
881.366	22535
881.493	22550
881.619	22432
881.746	22459
881.872	22379
881.999	22303
882.125	22424
882.252	22485
882.378	22466
882.505	22531
882.631	22363
882.757	22185
882.883	22070
883.01	22128
883.136	22010
883.262	21880
883.388	21987
883.514	22067
883.64	22196
883.766	22078
883.892	21941
884.018	21972
884.143	21991
884.269	22139
884.395	21892
884.52	21667
884.646	21679
884.772	21747
884.897	21679
885.023	21903
885.148	21869
885.274	21915
885.399	21762
885.524	21728
885.65	21739
885.775	21781
885.9	21827
886.025	21831
886.15	21736
886.275	21717
886.4	21599
886.525	21751
886.65	21462
886.775	21728
886.9	21819
887.025	21876
887.149	21698
887.274	21587
887.399	21492
887.523	21538
887.648	21515
887.773	21435
887.897	21561
888.021	21553
888.146	21496
888.27	21701
888.395	21671
888.519	21557
888.643	21553
888.767	21500
888.891	21450
889.015	21195
889.139	21382
889.263	21321
889.387	21397
889.511	21580
889.635	21363
889.759	21230
889.883	21154
890.006	21188
890.13	21458
890.254	21241
890.377	21272
890.501	21184
890.624	21043
890.748	21005
890.871	20815
890.995	20929
891.118	20811
891.241	20921
891.364	20960
891.488	20952
891.611	20902
891.734	20811
891.857	20952
891.98	20727
892.103	20921
892.226	20842
892.349	20746
892.471	20606
892.594	20686
892.717	20815
892.839	20758
892.962	20750
893.085	20788
893.207	20686
893.33	20644
893.452	20674
893.575	20750
893.697	20727
893.819	20937
893.941	20967
894.064	20914
894.186	20712
894.308	20606
894.43	20906
894.552	20823
894.674	20895
894.796	20727
894.918	20655
895.04	20712
895.161	20800
895.283	20838
895.405	20655
895.526	20724
895.648	20746
895.769	20834
895.891	20750
896.012	20792
896.134	20720
896.255	20735
896.376	20705
896.498	20708
896.619	20670
896.74	20750
896.861	20845
896.982	21074
897.103	21135
897.224	20929
897.345	20918
897.466	20933
897.587	21013
897.708	21039
897.828	20975
897.949	20937
898.07	20746
898.19	20918
898.311	21032
898.431	20952
898.552	20925
898.672	20971
898.792	21005
898.913	20956
899.033	20876
899.153	20727
899.273	20670
899.393	20693
899.513	20629
899.633	20617
899.753	20670
899.873	20621
899.993	20651
900.113	20651
900.232	20617
900.352	20594
900.472	20469
900.591	20419
900.711	20564
900.83	20377
900.95	20469
901.069	20480
901.189	20278
901.308	20043
901.427	19913
901.546	20161
901.665	19974
901.784	19951
901.904	19906
902.023	19883
902.141	19502
902.26	19613
902.379	19677
902.498	19620
902.617	19556
902.735	19556
902.854	19586
902.973	19354
903.091	19206
903.21	19232
903.328	19202
903.446	19107
903.565	19015
903.683	19012
903.801	18837
903.919	18954
904.038	18844
904.156	18837
904.274	18840
904.392	18692
904.51	18738
904.627	18677
904.745	18700
904.863	18810
904.981	18528
905.098	18483
905.216	18407
905.334	18433
905.451	18395
905.569	18498
905.686	18486
905.803	18475
905.921	18228
906.038	18391
906.155	18216
906.272	18125
906.389	18117
906.506	17946
906.623	17939
906.74	17851
906.857	17836
906.974	17908
907.091	18007
907.208	18034
907.324	17878
907.441	17901
907.557	17798
907.674	17589
907.79	17539
907.907	17710
908.023	17695
908.139	17695
908.256	17604
908.372	17490
908.488	17539
908.604	17421
908.72	17337
908.836	17326
908.952	17356
909.068	17402
909.184	17516
909.3	17398
909.415	17303
909.531	17364
909.647	17212
909.762	16980
909.878	17029
909.993	17048
910.108	17071
910.224	17033
910.339	17067
910.454	16942
910.57	16805
910.685	16797
910.8	17124
910.915	17010
911.03	16889
911.145	16786
911.259	16531
911.374	16660
911.489	16672
911.604	16512
911.718	16352
911.833	16382
911.947	16348
912.062	16219
912.176	16443
912.291	16466
912.405	16421
912.519	16535
912.633	16455
912.748	16386
912.862	16455
912.976	16211
913.09	16116
913.204	16200
913.318	16257
913.431	16272
913.545	16291
913.659	16299
913.772	16169
913.886	16025
914	15960
914.113	16078
914.226	16234
914.34	16101
914.453	15831
914.566	16105
914.68	15827
914.793	15819
914.906	15720
915.019	15488
915.132	15576
915.245	15557
915.358	15652
915.47	15690
915.583	15629
915.696	15675
915.809	15679
915.921	15724
916.034	15584
916.146	15515
916.259	15458
916.371	15603
916.483	15519
916.595	15420
916.708	15477
916.82	15408
916.932	15401
917.044	15355
917.156	15310
917.268	15302
917.38	15317
917.491	15218
917.603	15298
917.715	15329
917.826	15306
917.938	15188
918.049	15036
918.161	15127
918.272	15325
918.384	15264
918.495	15211
918.606	14994
918.717	14933
918.828	14929
918.939	15055
919.05	14868
919.161	14864
919.272	14777
919.383	14880
919.494	14998
919.604	15203
919.715	14918
919.826	14921
919.936	14933
920.047	15013
920.157	14971
920.267	15100
920.378	14952
920.488	14918
920.598	15074
920.708	15211
920.818	15009
920.928	15104
921.038	15226
921.148	15119
921.258	14899
921.368	14807
921.477	14644
921.587	14682
921.697	14533
921.806	14625
921.916	14514
922.025	14351
922.134	14313
922.244	14278
922.353	14374
922.462	14202
922.571	14157
922.68	13917
922.789	13963
922.898	13890
923.007	13894
923.116	13947
923.224	13963
923.333	13928
923.442	13818
923.55	13708
923.659	13753
923.767	13875
923.876	13643
923.984	13708
924.092	13613
924.201	13712
924.309	13689
924.417	13647
924.525	13666
924.633	13533
924.741	14385
924.849	13373
924.956	13495
925.064	13407
925.172	13301
925.279	13377
925.387	13350
925.494	13343
925.602	13495
925.709	13343
925.816	13282
925.924	13278
926.031	13339
926.138	13266
926.245	13251
926.352	13198
926.459	13354
926.566	13274
926.673	13213
926.779	13076
926.886	13065
926.993	12901
927.099	12878
927.206	12840
927.312	12791
927.419	12913
927.525	12909
927.631	12905
927.737	12837
927.843	12764
927.95	12627
928.056	12684
928.162	12745
928.267	12791
928.373	13373
928.479	12806
928.585	12566
928.69	12696
928.796	12684
928.901	12566
929.007	12429
929.112	12589
929.218	12498
929.323	12452
929.428	12418
929.533	12555
929.638	12323
929.743	12300
929.848	12391
929.953	12346
930.058	12205
930.163	12022
930.267	12114
930.372	12235
930.477	12019
930.581	12346
930.685	12098
930.79	12019
930.894	12015
930.998	11973
931.103	12095
931.207	11638
931.311	11676
931.415	11558
931.519	11425
931.623	11440
