Data from test_V78500241_269.txt Node
Date: Fri Mar 25 15:43:39 CST 2022
User: usil
Spectrometer: V785-0024
Trigger mode: 0
Integration Time (sec): 4.000000E-1
Scans to average: 1
Nonlinearity correction enabled: false
Boxcar width: 0
Storing dark spectrum: false
XAxis mode: Wavelengths
Number of Pixels in Spectrum: 1024
>>>>>Begin Spectral Data<<<<<
801.071	29923
801.214	29802
801.356	29573
801.499	29528
801.641	29547
801.783	29505
801.926	29402
802.068	29410
802.211	29410
802.353	29269
802.496	29242
802.638	29170
802.78	29151
802.923	28987
803.065	29048
803.208	29006
803.35	29174
803.492	29216
803.635	29326
803.777	29090
803.919	29375
804.061	29604
804.204	29375
804.346	29128
804.488	29147
804.63	29151
804.773	29136
804.915	29292
805.057	29372
805.199	29315
805.341	29379
805.483	29364
805.626	29395
805.768	29311
805.91	29235
806.052	29440
806.194	29368
806.336	29615
806.478	29433
806.62	29395
806.762	29539
806.904	29592
807.046	29901
807.188	29813
807.33	29805
807.472	29965
807.614	29718
807.756	29748
807.898	29573
808.04	29573
808.182	29623
808.324	29482
808.465	29630
808.607	29767
808.749	29942
808.891	29992
809.033	30353
809.174	30064
809.316	29980
809.458	30121
809.6	30022
809.741	30038
809.883	30155
810.025	30327
810.166	30216
810.308	30251
810.45	30471
810.591	30129
810.733	30038
810.875	30041
811.016	29935
811.158	29950
811.299	30110
811.441	30216
811.582	30095
811.724	29984
811.865	30064
812.007	30049
812.148	29794
812.29	30041
812.431	30045
812.573	30296
812.714	30456
812.855	30505
812.997	30608
813.138	30886
813.279	30635
813.421	30578
813.562	30528
813.703	30361
813.845	30239
813.986	30095
814.127	29931
814.268	29570
814.41	29653
814.551	29604
814.692	29638
814.833	29551
814.974	29585
815.115	29531
815.256	29573
815.397	29440
815.539	29509
815.68	29497
815.821	29512
815.962	29448
816.103	29410
816.244	29288
816.385	29178
816.526	29151
816.666	28999
816.807	28908
816.948	29018
817.089	29060
817.23	29014
817.371	28816
817.512	28980
817.653	28854
817.793	28660
817.934	28896
818.075	29048
818.216	28919
818.356	28873
818.497	28752
818.638	28649
818.778	28752
818.919	28462
819.06	28615
819.2	28573
819.341	28729
819.481	28835
819.622	28877
819.762	29208
819.903	29136
820.043	28930
820.184	28961
820.324	28850
820.465	28896
820.605	28824
820.746	28854
820.886	28858
821.026	28877
821.167	28866
821.307	28953
821.447	28660
821.588	28626
821.728	28729
821.868	28542
822.008	28291
822.149	28143
822.289	28322
822.429	27968
822.569	27880
822.709	27895
822.849	27884
822.99	27785
823.13	27762
823.27	27641
823.41	27538
823.55	27477
823.69	27545
823.83	27603
823.97	27473
824.11	27207
824.25	27260
824.389	27241
824.529	27443
824.669	27397
824.809	27534
824.949	27496
825.089	27496
825.228	27344
825.368	27195
825.508	27104
825.648	27237
825.787	27214
825.927	27344
826.067	27184
826.206	27100
826.346	27275
826.485	27218
826.625	27142
826.765	27287
826.904	27131
827.044	27028
827.183	26845
827.323	26838
827.462	26952
827.601	26864
827.741	26891
827.88	26914
828.02	26758
828.159	26811
828.298	26979
828.437	26956
828.577	26746
828.716	26994
828.855	26800
828.994	26609
829.134	26530
829.273	26533
829.412	26514
829.551	26465
829.69	26549
829.829	26598
829.968	26587
830.107	26682
830.246	26518
830.385	26480
830.524	26332
830.663	26256
830.802	26282
830.941	26130
831.08	26088
831.219	26206
831.357	26237
831.496	26396
831.635	26187
831.774	26027
831.913	25925
832.051	25837
832.19	25993
832.329	25883
832.467	25906
832.606	25658
832.744	25685
832.883	25807
833.022	25712
833.16	25635
833.299	25677
833.437	25761
833.576	25807
833.714	25780
833.852	25746
833.991	25769
834.129	25784
834.267	25811
834.406	25727
834.544	25727
834.682	25856
834.821	25651
834.959	25879
835.097	25658
835.235	25681
835.373	25780
835.511	25651
835.65	25586
835.788	25696
835.926	25445
836.064	25327
836.202	25400
836.34	25518
836.478	25685
836.615	25586
836.753	25483
836.891	25704
837.029	25514
837.167	25438
837.305	25373
837.443	25464
837.58	25445
837.718	25578
837.856	25343
837.993	25434
838.131	25430
838.269	25301
838.406	25339
838.544	25194
838.681	25114
838.819	24951
838.956	24806
839.094	24730
839.231	24837
839.369	24840
839.506	25339
839.643	25107
839.781	24753
839.918	24768
840.055	24757
840.193	24654
840.33	24661
840.467	24642
840.604	24654
840.742	25004
840.879	24688
841.016	24684
841.153	24582
841.29	24677
841.427	24669
841.564	24650
841.701	24570
841.838	24574
841.975	24525
842.112	24532
842.249	24646
842.385	24475
842.522	24677
842.659	24426
842.796	24399
842.933	24410
843.069	24235
843.206	24304
843.343	24418
843.479	24388
843.616	24277
843.752	24205
843.889	24152
844.025	24327
844.162	23992
844.298	24159
844.435	24083
844.571	23950
844.708	24144
844.844	24327
844.98	24224
845.117	24232
845.253	23946
845.389	23935
845.525	23961
845.661	24007
845.798	23760
845.934	23950
846.07	23794
846.206	23832
846.342	24030
846.478	23646
846.614	23604
846.75	23478
846.886	23577
847.022	23695
847.158	23501
847.294	23448
847.429	23630
847.565	23414
847.701	23741
847.837	23292
847.972	23159
848.108	23315
848.244	23174
848.379	23117
848.515	23136
848.65	23117
848.786	23025
848.921	23105
849.057	23303
849.192	23117
849.328	23124
849.463	23083
849.598	23071
849.734	23132
849.869	22938
850.004	22908
850.14	22892
850.275	22980
850.41	22854
850.545	22858
850.68	22904
850.815	22896
850.95	22774
851.085	22984
851.22	22938
851.355	22850
851.49	22862
851.625	22847
851.76	22767
851.895	22771
852.03	22615
852.165	22847
852.299	22850
852.434	22866
852.569	22911
852.703	22736
852.838	22831
852.973	22984
853.107	22938
853.242	22702
853.376	22710
853.511	22504
853.645	22546
853.78	22740
853.914	22569
854.048	22569
854.183	22592
854.317	22653
854.451	22748
854.585	22538
854.72	22618
854.854	22725
854.988	22497
855.122	22622
855.256	22542
855.39	22660
855.524	22637
855.658	22672
855.792	22615
855.926	22588
856.06	22668
856.194	22653
856.327	22615
856.461	22615
856.595	22645
856.729	22630
856.862	22850
856.996	22675
857.13	22603
857.263	22763
857.397	22675
857.53	22698
857.664	22607
857.797	22744
857.931	22797
858.064	22645
858.197	22630
858.331	22535
858.464	22538
858.597	22527
858.731	22447
858.864	22436
858.997	22478
859.13	22622
859.263	22493
859.396	22687
859.529	22413
859.662	22409
859.795	22424
859.928	22519
860.061	22702
860.194	22797
860.327	22630
860.46	22573
860.592	22736
860.725	22679
860.858	22675
860.99	22637
861.123	22459
861.256	22565
861.388	22523
861.521	23193
861.653	22554
861.786	22421
861.918	22363
862.05	22508
862.183	22561
862.315	22573
862.447	22580
862.58	22538
862.712	22276
862.844	22249
862.976	22295
863.108	22447
863.24	22592
863.372	22169
863.504	22253
863.636	22314
863.768	22234
863.9	22322
864.032	22150
864.164	22253
864.296	22112
864.428	22337
864.559	22318
864.691	22367
864.823	22211
864.954	22253
865.086	22204
865.217	22147
865.349	22044
865.48	22109
865.612	22067
865.743	22371
865.875	22242
866.006	22101
866.137	22051
866.269	22006
866.4	21987
866.531	22120
866.662	21983
866.793	22097
866.924	22059
867.055	21934
867.186	22036
867.317	22036
867.448	21941
867.579	22177
867.71	21831
867.841	21922
867.972	22131
868.103	22067
868.233	22162
868.364	22002
868.495	22131
868.625	22230
868.756	22322
868.886	22173
869.017	22261
869.147	22314
869.278	22306
869.408	22310
869.539	22219
869.669	22314
869.799	22318
869.929	22455
870.06	22405
870.19	22535
870.32	22588
870.45	22603
870.58	22622
870.71	22759
870.84	22771
870.97	22557
871.1	22702
871.23	22862
871.36	22915
871.489	22782
871.619	22790
871.749	22873
871.879	22927
872.008	22968
872.138	22889
872.267	23022
872.397	22774
872.526	22702
872.656	22713
872.785	22889
872.915	23041
873.044	22869
873.173	22774
873.303	23010
873.432	22953
873.561	22980
873.69	22850
873.819	22831
873.948	22949
874.077	22900
874.206	22687
874.335	22900
874.464	23003
874.593	23025
874.722	23018
874.851	23113
874.979	23181
875.108	23071
875.237	23010
875.365	22995
875.494	23052
875.623	23193
875.751	23098
875.88	23090
876.008	23250
876.136	23155
876.265	23478
876.393	23638
876.521	23531
876.65	23486
876.778	23539
876.906	23433
877.034	23364
877.162	23482
877.29	23406
877.418	23395
877.546	23471
877.674	23395
877.802	23463
877.93	23444
878.058	23288
878.185	23410
878.313	23463
878.441	23406
878.568	23360
878.696	23315
878.824	23459
878.951	23543
879.079	23615
879.206	23897
879.333	23695
879.461	23356
879.588	23657
879.715	23543
879.842	23840
879.97	23501
880.097	23170
880.224	23360
880.351	23288
880.478	23315
880.605	23265
880.732	23265
880.859	23463
880.986	23296
881.112	23273
881.239	23132
881.366	23037
881.493	22843
881.619	22934
881.746	22866
881.872	22919
881.999	22869
882.125	22812
882.252	22793
882.378	22767
882.505	22999
882.631	22809
882.757	22672
882.883	22748
883.01	22527
883.136	22428
883.262	22363
883.388	22485
883.514	22504
883.64	22637
883.766	22504
883.892	22215
884.018	22291
884.143	22535
884.269	22512
884.395	22390
884.52	22204
884.646	22154
884.772	22131
884.897	22063
885.023	22261
885.148	22234
885.274	22348
885.399	22276
885.524	22207
885.65	22295
885.775	22226
885.9	22093
886.025	22280
886.15	22238
886.275	22082
886.4	22109
886.525	22112
886.65	22044
886.775	22143
886.9	22162
887.025	22284
887.149	22128
887.274	22010
887.399	21926
887.523	22006
887.648	21945
887.773	21789
887.897	22013
888.021	21873
888.146	21876
888.27	22010
888.395	21949
888.519	21972
888.643	21915
888.767	21941
888.891	21819
889.015	21766
889.139	21690
889.263	21781
889.387	21876
889.511	21804
889.635	21793
889.759	21648
889.883	21576
890.006	21686
890.13	21717
890.254	21564
890.377	21614
890.501	21492
890.624	21230
890.748	21469
890.871	21317
890.995	21249
891.118	21302
891.241	21252
891.364	21264
891.488	21313
891.611	21085
891.734	21302
891.857	21226
891.98	21226
892.103	21287
892.226	21241
892.349	21146
892.471	21020
892.594	21157
892.717	21142
892.839	21089
892.962	21074
893.085	21161
893.207	21116
893.33	21055
893.452	21051
893.575	21150
893.697	21211
893.819	21237
893.941	21264
894.064	21256
894.186	21047
894.308	21047
894.43	21218
894.552	21275
894.674	21199
894.796	21043
894.918	21252
895.04	20960
895.161	21108
895.283	21176
895.405	21028
895.526	21093
895.648	21009
895.769	21100
895.891	21135
896.012	21268
896.134	21096
896.255	21184
896.376	21039
896.498	21123
896.619	21226
896.74	21100
896.861	21154
896.982	21447
897.103	21564
897.224	21507
897.345	21397
897.466	21374
897.587	21306
897.708	21435
897.828	21405
897.949	21252
898.07	21165
898.19	21142
898.311	21336
898.431	21291
898.552	21272
898.672	21370
898.792	21325
898.913	21245
899.033	21116
899.153	21051
899.273	21024
899.393	21024
899.513	21104
899.633	20906
899.753	20979
899.873	20868
899.993	20925
900.113	20880
900.232	20956
900.352	20883
900.472	20796
900.591	20769
900.711	20731
900.83	20693
900.95	20857
901.069	20910
901.189	20629
901.308	20415
901.427	20286
901.546	20309
901.665	20408
901.784	20377
901.904	20252
902.023	20103
902.141	19932
902.26	19826
902.379	19807
902.498	19757
902.617	19704
902.735	19814
902.854	19746
902.973	19757
903.091	19544
903.21	19441
903.328	19377
903.446	19259
903.565	19217
903.683	19217
903.801	19107
903.919	19289
904.038	19202
904.156	18947
904.274	19107
904.392	19015
904.51	18954
904.627	18985
904.745	19050
904.863	19095
904.981	18741
905.098	18654
905.216	18627
905.334	18700
905.451	18734
905.569	18623
905.686	18711
905.803	18700
905.921	18490
906.038	18540
906.155	18414
906.272	18353
906.389	18399
906.506	18178
906.623	18357
906.74	18216
906.857	18003
906.974	18136
907.091	18319
907.208	18190
907.324	18224
907.441	18030
907.557	17893
907.674	17980
907.79	17882
907.907	17897
908.023	17958
908.139	17878
908.256	17840
908.372	17714
908.488	17741
908.604	17592
908.72	17516
908.836	17577
908.952	17520
909.068	17661
909.184	17630
909.3	17524
909.415	17558
909.531	17501
909.647	17284
909.762	17292
909.878	17330
909.993	17360
910.108	17223
910.224	17170
910.339	17189
910.454	17121
910.57	17018
910.685	16972
910.8	17353
910.915	17174
911.03	17060
911.145	16892
911.259	16866
911.374	16877
911.489	16793
911.604	16771
911.718	16694
911.833	16550
911.947	16451
912.062	16329
912.176	16577
912.291	16634
912.405	16599
912.519	16816
912.633	16721
912.748	16653
912.862	16497
912.976	16390
913.09	16363
913.204	16398
913.318	16405
913.431	16375
913.545	16516
913.659	16394
913.772	16268
913.886	16276
914	16109
914.113	16280
914.226	16246
914.34	16265
914.453	16101
914.566	16150
914.68	16051
914.793	16086
914.906	15800
915.019	15743
915.132	15755
915.245	15656
915.358	15804
915.47	15800
915.583	15873
915.696	15838
915.809	15808
915.921	15808
916.034	15732
916.146	15652
916.259	15606
916.371	15679
916.483	15656
916.595	15618
916.708	15496
916.82	15507
916.932	15561
917.044	15443
917.156	15447
917.268	15389
917.38	15291
917.491	15325
917.603	15340
917.715	15378
917.826	15428
917.938	15283
918.049	15142
918.161	15329
918.272	15408
918.384	15408
918.495	15306
918.606	15123
918.717	15043
918.828	15161
918.939	15180
919.05	14914
919.161	15055
919.272	14933
919.383	14967
919.494	14990
919.604	15252
919.715	14990
919.826	14990
919.936	15089
920.047	15047
920.157	15039
920.267	15195
920.378	15001
920.488	14960
920.598	15180
920.708	15424
920.818	15100
920.928	15119
921.038	15317
921.148	15218
921.258	14925
921.368	14925
921.477	14746
921.587	14724
921.697	14579
921.806	14701
921.916	14667
922.025	14488
922.134	14415
922.244	14301
922.353	14362
922.462	14210
922.571	14199
922.68	14050
922.789	13978
922.898	14024
923.007	13970
923.116	14039
923.224	13967
923.333	13959
923.442	13883
923.55	13883
923.659	13849
923.767	13864
923.876	13734
923.984	13780
924.092	13689
924.201	13693
924.309	13685
924.417	13822
924.525	13643
924.633	13677
924.741	14571
924.849	13426
924.956	13636
925.064	13521
925.172	13411
925.279	13392
925.387	13396
925.494	13388
925.602	13533
925.709	13369
925.816	13244
925.924	13304
926.031	13495
926.138	13403
926.245	13301
926.352	13251
926.459	13384
926.566	13381
926.673	13175
926.779	13107
926.886	13137
926.993	13004
927.099	12962
927.206	12962
927.312	12886
927.419	12939
927.525	12871
927.631	12973
927.737	12825
927.843	12856
927.95	12635
928.056	12745
928.162	12776
928.267	12856
928.373	13377
928.479	12814
928.585	12627
928.69	12707
928.796	12700
928.901	12719
929.007	12414
929.112	12593
929.218	12483
929.323	12574
929.428	12483
929.533	12635
929.638	12445
929.743	12429
929.848	12353
929.953	12323
930.058	12281
930.163	12110
930.267	12121
930.372	12292
930.477	12041
930.581	12300
930.685	12144
930.79	11999
930.894	11946
930.998	11942
931.103	12133
931.207	11764
931.311	11672
931.415	11596
931.519	11345
931.623	11356
