Data from test_V78500241_531.txt Node
Date: Fri Mar 25 15:45:28 CST 2022
User: usil
Spectrometer: V785-0024
Trigger mode: 0
Integration Time (sec): 4.000000E-1
Scans to average: 1
Nonlinearity correction enabled: false
Boxcar width: 0
Storing dark spectrum: false
XAxis mode: Wavelengths
Number of Pixels in Spectrum: 1024
>>>>>Begin Spectral Data<<<<<
801.071	27880
801.214	27603
801.356	27477
801.499	27351
801.641	27427
801.783	27302
801.926	27515
802.068	27370
802.211	27401
802.353	27184
802.496	27017
802.638	27066
802.78	26982
802.923	26971
803.065	26929
803.208	27005
803.35	26982
803.492	27001
803.635	26982
803.777	27017
803.919	27074
804.061	27332
804.204	27146
804.346	27165
804.488	27047
804.63	27146
804.773	27081
804.915	27028
805.057	27317
805.199	27165
805.341	27108
805.483	27127
805.626	27287
805.768	27112
805.91	27332
806.052	27195
806.194	27195
806.336	27439
806.478	27249
806.62	27233
806.762	27416
806.904	27511
807.046	27770
807.188	27641
807.33	27747
807.472	27835
807.614	27648
807.756	27576
807.898	27492
808.04	27420
808.182	27587
808.324	27557
808.465	27641
808.607	27682
808.749	27968
808.891	28086
809.033	28181
809.174	28078
809.316	27972
809.458	27937
809.6	27979
809.741	28055
809.883	28040
810.025	28257
810.166	28185
810.308	28166
810.45	28169
810.591	28246
810.733	27953
810.875	27899
811.016	27717
811.158	27888
811.299	27869
811.441	28116
811.582	28150
811.724	27926
811.865	27816
812.007	27975
812.148	27888
812.29	27983
812.431	28173
812.573	28306
812.714	28459
812.855	28432
812.997	28462
813.138	28698
813.279	28710
813.421	28337
813.562	28451
813.703	28280
813.845	28116
813.986	27816
814.127	27679
814.268	27561
814.41	27504
814.551	27622
814.692	27755
814.833	27545
814.974	27591
815.115	27781
815.256	27519
815.397	27443
815.539	27618
815.68	27511
815.821	27416
815.962	27397
816.103	27386
816.244	27348
816.385	27176
816.526	27108
816.666	27199
816.807	26861
816.948	26960
817.089	26944
817.23	26948
817.371	26883
817.512	26819
817.653	26872
817.793	26883
817.934	26880
818.075	26971
818.216	26880
818.356	26830
818.497	26708
818.638	26701
818.778	26644
818.919	26636
819.06	26758
819.2	26731
819.341	26933
819.481	26739
819.622	26975
819.762	27252
819.903	27009
820.043	27077
820.184	26944
820.324	27051
820.465	27020
820.605	27070
820.746	27017
820.886	26777
821.026	26952
821.167	26914
821.307	27074
821.447	26921
821.588	26857
821.728	26708
821.868	26507
822.008	26332
822.149	26320
822.289	26412
822.429	26259
822.569	25978
822.709	26012
822.849	25841
822.99	25837
823.13	25909
823.27	25894
823.41	25597
823.55	25559
823.69	25734
823.83	25597
823.97	25578
824.11	25430
824.25	25453
824.389	25506
824.529	25753
824.669	25510
824.809	25529
824.949	25502
825.089	25525
825.228	25460
825.368	25350
825.508	25343
825.648	25263
825.787	25499
825.927	25438
826.067	25293
826.206	25487
826.346	25441
826.485	25403
826.625	25369
826.765	25457
826.904	25407
827.044	25103
827.183	25012
827.323	24989
827.462	25198
827.601	25069
827.741	25042
827.88	25084
828.02	24882
828.159	25004
828.298	25046
828.437	25266
828.577	25023
828.716	25034
828.855	25110
828.994	24779
829.134	24760
829.273	24863
829.412	24745
829.551	24639
829.69	24764
829.829	24635
829.968	24863
830.107	24814
830.246	24745
830.385	24764
830.524	24593
830.663	24650
830.802	24448
830.941	24289
831.08	24445
831.219	24388
831.357	24380
831.496	24536
831.635	24327
831.774	24258
831.913	24330
832.051	24144
832.19	24144
832.329	24182
832.467	24022
832.606	23961
832.744	23923
832.883	24091
833.022	23916
833.16	24057
833.299	24239
833.437	24038
833.576	24110
833.714	24034
833.852	24022
833.991	24110
834.129	24201
834.267	24155
834.406	24205
834.544	24136
834.682	24098
834.821	24117
834.959	24167
835.097	24083
835.235	24163
835.373	24053
835.511	24076
835.65	23863
835.788	23832
835.926	23710
836.064	23870
836.202	23805
836.34	23973
836.478	24045
836.615	23920
836.753	23946
836.891	24083
837.029	23927
837.167	23916
837.305	23703
837.443	23809
837.58	23821
837.718	23836
837.856	23863
837.993	23589
838.131	23878
838.269	23596
838.406	23695
838.544	23524
838.681	23436
838.819	23364
838.956	23155
839.094	23090
839.231	23239
839.369	23372
839.506	23737
839.643	23516
839.781	23326
839.918	23159
840.055	23239
840.193	23261
840.33	23155
840.467	23181
840.604	23246
840.742	23410
840.879	23128
841.016	23083
841.153	23048
841.29	23200
841.427	23071
841.564	23223
841.701	23090
841.838	23098
841.975	23056
842.112	23060
842.249	23029
842.385	23029
842.522	23189
842.659	22877
842.796	22965
842.933	22995
843.069	22889
843.206	22778
843.343	22862
843.479	23003
843.616	22873
843.752	22683
843.889	22664
844.025	22839
844.162	22668
844.298	22752
844.435	22641
844.571	22641
844.708	22725
844.844	22820
844.98	22816
845.117	22641
845.253	22527
845.389	22527
845.525	22641
845.661	22497
845.798	22341
845.934	22462
846.07	22306
846.206	22481
846.342	22584
846.478	22344
846.614	22310
846.75	22082
846.886	22090
847.022	22192
847.158	22192
847.294	22105
847.429	22192
847.565	22192
847.701	22341
847.837	21884
847.972	21762
848.108	22002
848.244	21930
848.379	21747
848.515	21732
848.65	21667
848.786	21812
848.921	21785
849.057	21842
849.192	21759
849.328	21743
849.463	21698
849.598	21610
849.734	21549
849.869	21644
850.004	21496
850.14	21466
850.275	21488
850.41	21416
850.545	21496
850.68	21530
850.815	21561
850.95	21340
851.085	21656
851.22	21583
851.355	21428
851.49	21481
851.625	21401
851.76	21595
851.895	21275
852.03	21393
852.165	21496
852.299	21587
852.434	21656
852.569	21473
852.703	21515
852.838	21568
852.973	21686
853.107	21557
853.242	21477
853.376	21374
853.511	21188
853.645	21287
853.78	21538
853.914	21192
854.048	21291
854.183	21252
854.317	21359
854.451	21496
854.585	21355
854.72	21260
854.854	21435
854.988	21169
855.122	21363
855.256	21214
855.39	21363
855.524	21397
855.658	21389
855.792	21317
855.926	21405
856.06	21332
856.194	21485
856.327	21256
856.461	21218
856.595	21275
856.729	21287
856.862	21397
856.996	21321
857.13	21348
857.263	21344
857.397	21466
857.53	21233
857.664	21428
857.797	21485
857.931	21443
858.064	21310
858.197	21351
858.331	21226
858.464	21180
858.597	21268
858.731	21412
858.864	21237
858.997	21302
859.13	21272
859.263	21336
859.396	21435
859.529	21268
859.662	21192
859.795	21245
859.928	21233
860.061	21374
860.194	21523
860.327	21435
860.46	21306
860.592	21370
860.725	21458
860.858	21488
860.99	21340
861.123	21188
861.256	21268
861.388	21378
861.521	21941
861.653	21275
861.786	21150
861.918	21055
862.05	21264
862.183	21306
862.315	21321
862.447	21317
862.58	21192
862.712	20971
862.844	21028
862.976	21199
863.108	21150
863.24	21599
863.372	20986
863.504	20853
863.636	21043
863.768	20929
863.9	21017
864.032	20994
864.164	20941
864.296	21093
864.428	21051
864.559	21051
864.691	21043
864.823	21005
864.954	21017
865.086	21020
865.217	20941
865.349	20838
865.48	20918
865.612	20979
865.743	20944
865.875	20963
866.006	20895
866.137	20925
866.269	20788
866.4	20883
866.531	20796
866.662	20834
866.793	20804
866.924	20845
867.055	20853
867.186	20906
867.317	20838
867.448	20773
867.579	20864
867.71	20792
867.841	20743
867.972	20819
868.103	20838
868.233	20769
868.364	20830
868.495	20891
868.625	21188
868.756	21211
868.886	21009
869.017	21108
869.147	21169
869.278	21272
869.408	21169
869.539	21123
869.669	21146
869.799	21093
869.929	21146
870.06	21226
870.19	21481
870.32	21386
870.45	21355
870.58	21454
870.71	21637
870.84	21622
870.97	21492
871.1	21595
871.23	21705
871.36	21682
871.489	21660
871.619	21663
871.749	21709
871.879	21793
872.008	21770
872.138	21595
872.267	21587
872.397	21549
872.526	21454
872.656	21447
872.785	21534
872.915	21671
873.044	21705
873.173	21789
873.303	21728
873.432	21789
873.561	21812
873.69	21751
873.819	21778
873.948	21774
874.077	21652
874.206	21610
874.335	21728
874.464	21880
874.593	21903
874.722	21819
874.851	21949
874.979	21941
875.108	21975
875.237	21945
875.365	21781
875.494	22010
875.623	22067
875.751	21918
875.88	21918
876.008	22131
876.136	22131
876.265	22318
876.393	22424
876.521	22462
876.65	22500
876.778	22287
876.906	22207
877.034	22215
877.162	22238
877.29	22032
877.418	22261
877.546	22310
877.674	22348
877.802	22303
877.93	22333
878.058	22303
878.185	22169
878.313	22204
878.441	22196
878.568	22078
878.696	22181
878.824	22306
878.951	22440
879.079	22478
879.206	22523
879.333	22443
879.461	22394
879.588	22348
879.715	22508
879.842	22580
879.97	22428
880.097	22109
880.224	22051
880.351	22188
880.478	22234
880.605	22025
880.732	22120
880.859	22356
880.986	22090
881.112	22067
881.239	21937
881.366	22074
881.493	21819
881.619	21694
881.746	21705
881.872	21781
881.999	21603
882.125	21606
882.252	21720
882.378	21682
882.505	21728
882.631	21561
882.757	21378
882.883	21523
883.01	21466
883.136	21378
883.262	21310
883.388	21241
883.514	21336
883.64	21313
883.766	21408
883.892	21161
884.018	21051
884.143	21374
884.269	21272
884.395	21074
884.52	21005
884.646	21062
884.772	21036
884.897	20899
885.023	20982
885.148	21066
885.274	21192
885.399	21154
885.524	21062
885.65	21055
885.775	21066
885.9	21036
886.025	21036
886.15	21142
886.275	20971
886.4	20975
886.525	21108
886.65	20967
886.775	21001
886.9	21165
887.025	21252
887.149	20967
887.274	20815
887.399	20868
887.523	20826
887.648	20701
887.773	20777
887.897	20807
888.021	20830
888.146	20708
888.27	20819
888.395	20948
888.519	20819
888.643	20773
888.767	20792
888.891	20686
889.015	20594
889.139	20648
889.263	20454
889.387	20689
889.511	20785
889.635	20731
889.759	20492
889.883	20530
890.006	20568
890.13	20731
890.254	20575
890.377	20503
890.501	20317
890.624	20351
890.748	20457
890.871	20229
890.995	20210
891.118	20122
891.241	20138
891.364	20149
891.488	20237
891.611	20317
891.734	20214
891.857	20290
891.98	20206
892.103	20248
892.226	20298
892.349	20145
892.471	19993
892.594	20050
892.717	20164
892.839	20058
892.962	20081
893.085	20122
893.207	20050
893.33	19978
893.452	20008
893.575	20084
893.697	20020
893.819	20267
893.941	20202
894.064	20301
894.186	20016
894.308	19997
894.43	20096
894.552	20145
894.674	20153
894.796	19993
894.918	20161
895.04	20081
895.161	20119
895.283	20119
895.405	20096
895.526	19963
895.648	19997
895.769	20142
895.891	20126
896.012	20126
896.134	20176
896.255	20024
896.376	20134
896.498	20027
896.619	20122
896.74	20172
896.861	20119
896.982	20408
897.103	20473
897.224	20282
897.345	20278
897.466	20191
897.587	20259
897.708	20400
897.828	20385
897.949	20393
898.07	20187
898.19	20221
898.311	20396
898.431	20305
898.552	20374
898.672	20385
898.792	20320
898.913	20298
899.033	20256
899.153	20024
899.273	20035
899.393	19970
899.513	20149
899.633	19963
899.753	20069
899.873	20027
899.993	20077
900.113	20046
900.232	20244
900.352	19814
900.472	19860
900.591	19753
900.711	19860
900.83	19772
900.95	19928
901.069	19944
901.189	19788
901.308	19510
901.427	19388
901.546	19400
901.665	19365
901.784	19453
901.904	19282
902.023	19156
902.141	19034
902.26	19031
902.379	19095
902.498	18837
902.617	18844
902.735	19015
902.854	18901
902.973	18905
903.091	18646
903.21	18665
903.328	18547
903.446	18509
903.565	18391
903.683	18327
903.801	18334
903.919	18353
904.038	18277
904.156	18213
904.274	18216
904.392	18190
904.51	18144
904.627	18091
904.745	18197
904.863	18262
904.981	18060
905.098	17843
905.216	17855
905.334	17885
905.451	17817
905.569	17729
905.686	17866
905.803	17984
905.921	17642
906.038	17733
906.155	17615
906.272	17566
906.389	17604
906.506	17360
906.623	17379
906.74	17239
906.857	17212
906.974	17345
907.091	17421
907.208	17452
907.324	17303
907.441	17265
907.557	17132
907.674	17140
907.79	17102
907.907	17079
908.023	17014
908.139	17094
908.256	17018
908.372	16957
908.488	17075
908.604	16862
908.72	16820
908.836	16797
908.952	16763
909.068	16771
909.184	16972
909.3	16744
909.415	16767
909.531	16771
909.647	16653
909.762	16462
909.878	16546
909.993	16497
910.108	16512
910.224	16485
910.339	16459
910.454	16386
910.57	16356
910.685	16253
910.8	16516
910.915	16474
911.03	16325
911.145	16128
911.259	16055
911.374	16086
911.489	16082
911.604	15956
911.718	15884
911.833	15823
911.947	15762
912.062	15747
912.176	15926
912.291	15888
912.405	15907
912.519	16010
912.633	15983
912.748	15892
912.862	15857
912.976	15701
913.09	15557
913.204	15622
913.318	15717
913.431	15747
913.545	15778
913.659	15709
913.772	15584
913.886	15507
914	15450
914.113	15561
914.226	15538
914.34	15504
914.453	15279
914.566	15428
914.68	15386
914.793	15336
914.906	15032
915.019	15093
915.132	15146
915.245	15036
915.358	15081
915.47	15108
915.583	15089
915.696	15146
915.809	15176
915.921	15230
916.034	15013
916.146	14937
916.259	14914
916.371	15074
916.483	14994
916.595	14948
916.708	14925
916.82	14887
916.932	14785
917.044	15009
917.156	14895
917.268	14731
917.38	14750
917.491	14663
917.603	14785
917.715	14792
917.826	14773
917.938	14602
918.049	14530
918.161	14693
918.272	14868
918.384	14739
918.495	14663
918.606	14560
918.717	14476
918.828	14583
918.939	14606
919.05	14454
919.161	14446
919.272	14256
919.383	14396
919.494	14469
919.604	14670
919.715	14495
919.826	14309
919.936	14343
920.047	14522
920.157	14484
920.267	14575
920.378	14396
920.488	14358
920.598	14610
920.708	14743
920.818	14541
920.928	14568
921.038	14743
921.148	14705
921.258	14366
921.368	14298
921.477	14259
921.587	14267
921.697	14058
921.806	14103
921.916	14008
922.025	14016
922.134	13875
922.244	13830
922.353	13917
922.462	13734
922.571	13628
922.68	13559
922.789	13384
922.898	13422
923.007	13514
923.116	13495
923.224	13449
923.333	13525
923.442	13263
923.55	13316
923.659	13346
923.767	13282
923.876	13259
923.984	13362
924.092	13285
924.201	13228
924.309	13217
924.417	13122
924.525	13164
924.633	13190
924.741	13982
924.849	12958
924.956	13160
925.064	12958
925.172	12882
925.279	12859
925.387	12939
925.494	12897
925.602	13084
925.709	12924
925.816	12772
925.924	12817
926.031	12977
926.138	12753
926.245	12848
926.352	12795
926.459	12852
926.566	12989
926.673	12760
926.779	12677
926.886	12662
926.993	12490
927.099	12502
927.206	12494
927.312	12525
927.419	12445
927.525	12456
927.631	12517
927.737	12338
927.843	12357
927.95	12292
928.056	12277
928.162	12346
928.267	12338
928.373	12916
928.479	12361
928.585	12136
928.69	12159
928.796	12296
928.901	12228
929.007	12076
929.112	12197
929.218	12098
929.323	11992
929.428	12110
929.533	12098
929.638	11999
929.743	11992
929.848	12068
929.953	12030
930.058	11878
930.163	11649
930.267	11714
930.372	11851
930.477	11684
930.581	12007
930.685	11794
930.79	11562
930.894	11657
930.998	11478
931.103	11703
931.207	11395
931.311	11280
931.415	11197
931.519	11056
931.623	10965
