Data from test_V78500241_416.txt Node
Date: Fri Mar 25 15:44:41 CST 2022
User: usil
Spectrometer: V785-0024
Trigger mode: 0
Integration Time (sec): 4.000000E-1
Scans to average: 1
Nonlinearity correction enabled: false
Boxcar width: 0
Storing dark spectrum: false
XAxis mode: Wavelengths
Number of Pixels in Spectrum: 1024
>>>>>Begin Spectral Data<<<<<
801.071	28767
801.214	28557
801.356	28493
801.499	28565
801.641	28299
801.783	28284
801.926	28409
802.068	28405
802.211	28109
802.353	28086
802.496	28017
802.638	28048
802.78	27941
802.923	27994
803.065	27869
803.208	27857
803.35	27979
803.492	28006
803.635	28109
803.777	27964
803.919	28010
804.061	28409
804.204	28166
804.346	27987
804.488	27907
804.63	28162
804.773	27968
804.915	28131
805.057	28116
805.199	28124
805.341	28261
805.483	28124
805.626	28272
805.768	28135
805.91	28272
806.052	28360
806.194	28105
806.336	28478
806.478	28211
806.62	28253
806.762	28306
806.904	28519
807.046	28790
807.188	28634
807.33	28725
807.472	28717
807.614	28580
807.756	28649
807.898	28459
808.04	28428
808.182	28474
808.324	28580
808.465	28508
808.607	28774
808.749	28850
808.891	28995
809.033	29079
809.174	28957
809.316	28828
809.458	28835
809.6	28816
809.741	29037
809.883	29140
810.025	29048
810.166	29098
810.308	29105
810.45	29128
810.591	29056
810.733	28854
810.875	28839
811.016	28710
811.158	28835
811.299	28843
811.441	29060
811.582	29048
811.724	28809
811.865	28786
812.007	28862
812.148	28885
812.29	28778
812.431	29064
812.573	29299
812.714	29372
812.855	29383
812.997	29490
813.138	29543
813.279	29535
813.421	29330
813.562	29463
813.703	29200
813.845	29033
813.986	28892
814.127	28634
814.268	28451
814.41	28436
814.551	28500
814.692	28489
814.833	28356
814.974	28371
815.115	28538
815.256	28390
815.397	28299
815.539	28394
815.68	28246
815.821	28276
815.962	28154
816.103	28120
816.244	28287
816.385	28044
816.526	27926
816.666	27903
816.807	27816
816.948	27869
817.089	27804
817.23	27751
817.371	27816
817.512	27781
817.653	27652
817.793	27732
817.934	27644
818.075	27717
818.216	27686
818.356	27747
818.497	27682
818.638	27507
818.778	27427
818.919	27469
819.06	27462
819.2	27709
819.341	27690
819.481	27629
819.622	27926
819.762	28101
819.903	27960
820.043	27865
820.184	27880
820.324	27698
820.465	27869
820.605	27743
820.746	27816
820.886	27705
821.026	27751
821.167	27816
821.307	27835
821.447	27739
821.588	27717
821.728	27572
821.868	27329
822.008	27226
822.149	27165
822.289	27077
822.429	26963
822.569	26853
822.709	26739
822.849	26564
822.99	26686
823.13	26682
823.27	26575
823.41	26415
823.55	26495
823.69	26469
823.83	26465
823.97	26400
824.11	26240
824.25	26278
824.389	26347
824.529	26259
824.669	26305
824.809	26343
824.949	26476
825.089	26339
825.228	26290
825.368	26248
825.508	26115
825.648	26168
825.787	26100
825.927	26267
826.067	26069
826.206	26138
826.346	26191
826.485	26050
826.625	26050
826.765	26275
826.904	26138
827.044	25868
827.183	25795
827.323	25719
827.462	25944
827.601	25772
827.741	25723
827.88	25742
828.02	25635
828.159	25689
828.298	25780
828.437	25830
828.577	25696
828.716	25837
828.855	25765
828.994	25502
829.134	25419
829.273	25510
829.412	25525
829.551	25476
829.69	25487
829.829	25514
829.968	25616
830.107	25556
830.246	25369
830.385	25327
830.524	25483
830.663	25228
830.802	25156
830.941	25103
831.08	24981
831.219	25061
831.357	25126
831.496	25282
831.635	24977
831.774	25061
831.913	24863
832.051	24798
832.19	24753
832.329	24738
832.467	24821
832.606	24711
832.744	24555
832.883	24658
833.022	24802
833.16	24692
833.299	24707
833.437	24688
833.576	24715
833.714	24688
833.852	24753
833.991	24829
834.129	24939
834.267	24726
834.406	24753
834.544	24604
834.682	24837
834.821	24703
834.959	24920
835.097	24665
835.235	24677
835.373	24661
835.511	24574
835.65	24441
835.788	24559
835.926	24433
836.064	24319
836.202	24456
836.34	24467
836.478	24642
836.615	24334
836.753	24502
836.891	24563
837.029	24528
837.167	24513
837.305	24391
837.443	24422
837.58	24304
837.718	24513
837.856	24342
837.993	24292
838.131	24243
838.269	24194
838.406	24372
838.544	24228
838.681	24064
838.819	23870
838.956	23790
839.094	23767
839.231	23813
839.369	23973
839.506	24167
839.643	24095
839.781	23809
839.918	23786
840.055	23741
840.193	23661
840.33	23802
840.467	23748
840.604	23783
840.742	23977
840.879	23573
841.016	23642
841.153	23497
841.29	23756
841.427	23581
841.564	23657
841.701	23668
841.838	23585
841.975	23471
842.112	23710
842.249	23566
842.385	23410
842.522	23657
842.659	23516
842.796	23364
842.933	23478
843.069	23395
843.206	23341
843.343	23376
843.479	23467
843.616	23387
843.752	23178
843.889	23284
844.025	23417
844.162	23220
844.298	23227
844.435	23159
844.571	23178
844.708	23193
844.844	23254
844.98	23258
845.117	23200
845.253	23117
845.389	23003
845.525	23124
845.661	22991
845.798	22938
845.934	23033
846.07	22991
846.206	22927
846.342	23067
846.478	22866
846.614	22702
846.75	22596
846.886	22565
847.022	22824
847.158	22630
847.294	22637
847.429	22691
847.565	22443
847.701	22847
847.837	22352
847.972	22215
848.108	22428
848.244	22409
848.379	22253
848.515	22177
848.65	22181
848.786	22177
848.921	22143
849.057	22261
849.192	22303
849.328	22329
849.463	22044
849.598	22173
849.734	22051
849.869	22032
850.004	21926
850.14	21994
850.275	21915
850.41	21774
850.545	21854
850.68	21789
850.815	21934
850.95	21907
851.085	22249
851.22	22025
851.355	22040
851.49	22036
851.625	21816
851.76	21922
851.895	21778
852.03	21816
852.165	21918
852.299	21968
852.434	21968
852.569	21975
852.703	21880
852.838	21987
852.973	22082
853.107	21945
853.242	21918
853.376	21755
853.511	21751
853.645	21606
853.78	21804
853.914	21755
854.048	21671
854.183	21751
854.317	21652
854.451	21888
854.585	21679
854.72	21808
854.854	21728
854.988	21656
855.122	21747
855.256	21557
855.39	21720
855.524	21793
855.658	21755
855.792	21644
855.926	21751
856.06	21724
856.194	21804
856.327	21835
856.461	21591
856.595	21625
856.729	21709
856.862	21835
856.996	21720
857.13	21903
857.263	21861
857.397	21861
857.53	21629
857.664	21865
857.797	21755
857.931	21800
858.064	21698
858.197	21873
858.331	21614
858.464	21549
858.597	21477
858.731	21660
858.864	21698
858.997	21587
859.13	21675
859.263	21732
859.396	21728
859.529	21736
859.662	21755
859.795	21701
859.928	21595
860.061	21880
860.194	21907
860.327	21838
860.46	21580
860.592	21854
860.725	21998
860.858	21831
860.99	21679
861.123	21622
861.256	21656
861.388	21724
861.521	22337
861.653	21477
861.786	21500
861.918	21568
862.05	21542
862.183	21667
862.315	21648
862.447	21724
862.58	21717
862.712	21485
862.844	21401
862.976	21534
863.108	21473
863.24	21892
863.372	21370
863.504	21374
863.636	21462
863.768	21340
863.9	21477
864.032	21279
864.164	21431
864.296	21435
864.428	21473
864.559	21523
864.691	21466
864.823	21428
864.954	21386
865.086	21412
865.217	21351
865.349	21279
865.48	21279
865.612	21462
865.743	21443
865.875	21275
866.006	21252
866.137	21237
866.269	21374
866.4	21260
866.531	21211
866.662	21199
866.793	21283
866.924	21332
867.055	21214
867.186	21146
867.317	21226
867.448	21192
867.579	21093
867.71	21256
867.841	21218
867.972	21336
868.103	21317
868.233	21264
868.364	21268
868.495	21412
868.625	21466
868.756	21660
868.886	21481
869.017	21492
869.147	21526
869.278	21660
869.408	21488
869.539	21485
869.669	21542
869.799	21618
869.929	21671
870.06	21519
870.19	21895
870.32	21720
870.45	21747
870.58	21934
870.71	21907
870.84	21766
870.97	21945
871.1	21800
871.23	21972
871.36	22021
871.489	21964
871.619	21987
871.749	22032
871.879	22067
872.008	22215
872.138	22086
872.267	22090
872.397	21949
872.526	21835
872.656	21987
872.785	21880
872.915	22128
873.044	22124
873.173	22021
873.303	22082
873.432	22143
873.561	22253
873.69	22120
873.819	22139
873.948	22063
874.077	22200
874.206	21987
874.335	22082
874.464	22253
874.593	22295
874.722	22257
874.851	22535
874.979	22356
875.108	22348
875.237	22188
875.365	22120
875.494	22417
875.623	22402
875.751	22306
875.88	22348
876.008	22382
876.136	22573
876.265	22774
876.393	22809
876.521	22748
876.65	22717
876.778	22790
876.906	22577
877.034	22519
877.162	22618
877.29	22546
877.418	22771
877.546	22634
877.674	22733
877.802	22588
877.93	22611
878.058	22577
878.185	22546
878.313	22637
878.441	22653
878.568	22523
878.696	22637
878.824	22755
878.951	22828
879.079	22782
879.206	23044
879.333	22649
879.461	22744
879.588	22831
879.715	22782
879.842	22786
879.97	22748
880.097	22504
880.224	22462
880.351	22504
880.478	22455
880.605	22421
880.732	22504
880.859	22736
880.986	22402
881.112	22550
881.239	22348
881.366	22200
881.493	22150
881.619	22032
881.746	22059
881.872	21953
881.999	22029
882.125	21941
882.252	22131
882.378	22101
882.505	22234
882.631	22067
882.757	21724
882.883	21880
883.01	21854
883.136	21739
883.262	21660
883.388	21534
883.514	21774
883.64	21831
883.766	21644
883.892	21633
884.018	21561
884.143	21644
884.269	21895
884.395	21447
884.52	21420
884.646	21363
884.772	21397
884.897	21275
885.023	21401
885.148	21397
885.274	21443
885.399	21428
885.524	21443
885.65	21389
885.775	21439
885.9	21424
886.025	21534
886.15	21606
886.275	21397
886.4	21226
886.525	21317
886.65	21329
886.775	21359
886.9	21576
887.025	21603
887.149	21291
887.274	21192
887.399	21195
887.523	21180
887.648	21142
887.773	21195
887.897	21138
888.021	21192
888.146	21207
888.27	21283
888.395	21222
888.519	21150
888.643	21055
888.767	21230
888.891	21085
889.015	20933
889.139	20956
889.263	20861
889.387	21062
889.511	21207
889.635	20990
889.759	20914
889.883	20925
890.006	20967
890.13	20925
890.254	20804
890.377	20864
890.501	20765
890.624	20693
890.748	20655
890.871	20625
890.995	20575
891.118	20465
891.241	20488
891.364	20530
891.488	20697
891.611	20381
891.734	20507
891.857	20613
891.98	20560
892.103	20720
892.226	20549
892.349	20412
892.471	20370
892.594	20552
892.717	20545
892.839	20431
892.962	20457
893.085	20503
893.207	20507
893.33	20339
893.452	20313
893.575	20431
893.697	20389
893.819	20473
893.941	20606
894.064	20629
894.186	20503
894.308	20377
894.43	20431
894.552	20609
894.674	20549
894.796	20275
894.918	20503
895.04	20370
895.161	20431
895.283	20366
895.405	20370
895.526	20351
895.648	20332
895.769	20408
895.891	20636
896.012	20541
896.134	20404
896.255	20362
896.376	20469
896.498	20366
896.619	20396
896.74	20431
896.861	20632
896.982	20777
897.103	20880
897.224	20765
897.345	20746
897.466	20564
897.587	20552
897.708	20735
897.828	20526
897.949	20648
898.07	20541
898.19	20518
898.311	20697
898.431	20655
898.552	20724
898.672	20788
898.792	20682
898.913	20693
899.033	20579
899.153	20412
899.273	20396
899.393	20408
899.513	20336
899.633	20309
899.753	20339
899.873	20267
899.993	20400
900.113	20229
900.232	20290
900.352	20206
900.472	20183
900.591	20005
900.711	20077
900.83	20046
900.95	20195
901.069	20347
901.189	20046
901.308	19788
901.427	19658
901.546	19719
901.665	19674
901.784	19734
901.904	19556
902.023	19525
902.141	19365
902.26	19304
902.379	19327
902.498	19263
902.617	19183
902.735	19236
902.854	19152
902.973	19129
903.091	18935
903.21	18829
903.328	18806
903.446	18703
903.565	18722
903.683	18639
903.801	18635
903.919	18734
904.038	18616
904.156	18608
904.274	18547
904.392	18403
904.51	18410
904.627	18521
904.745	18578
904.863	18391
904.981	18254
905.098	18110
905.216	18110
905.334	18125
905.451	18102
905.569	18019
905.686	18098
905.803	18030
905.921	17790
906.038	17904
906.155	17901
906.272	17748
906.389	17836
906.506	17646
906.623	17699
906.74	17596
906.857	17539
906.974	17589
907.091	17699
907.208	17752
907.324	17581
907.441	17566
907.557	17356
907.674	17220
907.79	17261
907.907	17212
908.023	17337
908.139	17356
908.256	17356
908.372	17204
908.488	17189
908.604	17098
908.72	16987
908.836	17136
908.952	16968
909.068	17048
909.184	17121
909.3	17067
909.415	17025
909.531	17037
909.647	16763
909.762	16744
909.878	16694
909.993	16717
910.108	16706
910.224	16710
910.339	16713
910.454	16672
910.57	16443
910.685	16424
910.8	16752
910.915	16588
911.03	16474
911.145	16344
911.259	16371
911.374	16325
911.489	16268
911.604	16143
911.718	16055
911.833	16082
911.947	15998
912.062	15968
912.176	15994
912.291	16051
912.405	16097
912.519	16284
912.633	16230
912.748	16071
912.862	16021
912.976	15816
913.09	15793
913.204	15816
913.318	15865
913.431	15907
913.545	15941
913.659	15884
913.772	15812
913.886	15812
914	15599
914.113	15774
914.226	15739
914.34	15705
914.453	15564
914.566	15793
914.68	15526
914.793	15572
914.906	15332
915.019	15313
915.132	15302
915.245	15260
915.358	15310
915.47	15317
915.583	15222
915.696	15268
915.809	15283
915.921	15401
916.034	15195
916.146	15264
916.259	15150
916.371	15154
916.483	15146
916.595	15100
916.708	14994
916.82	15043
916.932	15013
917.044	15013
917.156	14998
917.268	14914
917.38	14914
917.491	14872
917.603	14857
917.715	14899
917.826	15036
917.938	14845
918.049	14663
918.161	14781
918.272	15009
918.384	14914
918.495	14845
918.606	14705
918.717	14571
918.828	14743
918.939	14746
919.05	14511
919.161	14617
919.272	14564
919.383	14541
919.494	14625
919.604	14910
919.715	14556
919.826	14556
919.936	14686
920.047	14674
920.157	14701
920.267	14769
920.378	14640
920.488	14522
920.598	14765
920.708	14910
920.818	14842
920.928	14819
921.038	14914
921.148	14788
921.258	14537
921.368	14457
921.477	14374
921.587	14294
921.697	14100
921.806	14347
921.916	14199
922.025	14134
922.134	14058
922.244	13890
922.353	14001
922.462	13925
922.571	13761
922.68	13578
922.789	13613
922.898	13632
923.007	13658
923.116	13575
923.224	13559
923.333	13590
923.442	13476
923.55	13540
923.659	13540
923.767	13563
923.876	13377
923.984	13316
924.092	13369
924.201	13411
924.309	13343
924.417	13320
924.525	13228
924.633	13179
924.741	14054
924.849	13114
924.956	13285
925.064	13008
925.172	12905
925.279	12981
925.387	13031
925.494	12951
925.602	13118
925.709	13012
925.816	12943
925.924	12962
926.031	13084
926.138	13019
926.245	13008
926.352	12825
926.459	13027
926.566	13004
926.673	12947
926.779	12726
926.886	12722
926.993	12719
927.099	12536
927.206	12456
927.312	12570
927.419	12620
927.525	12574
927.631	12658
927.737	12506
927.843	12486
927.95	12353
928.056	12372
928.162	12456
928.267	12445
928.373	13072
928.479	12532
928.585	12262
928.69	12308
928.796	12319
928.901	12311
929.007	12125
929.112	12311
929.218	12205
929.323	12159
929.428	12186
929.533	12247
929.638	12098
929.743	12133
929.848	12186
929.953	12129
930.058	11950
930.163	11817
930.267	11802
930.372	11980
930.477	11775
930.581	12041
930.685	11851
930.79	11680
930.894	11672
930.998	11668
931.103	11817
931.207	11501
931.311	11383
931.415	11254
931.519	11155
931.623	11045
