Data from test_V78500241_68.txt Node
Date: Fri Mar 25 15:42:16 CST 2022
User: usil
Spectrometer: V785-0024
Trigger mode: 0
Integration Time (sec): 4.000000E-1
Scans to average: 1
Nonlinearity correction enabled: false
Boxcar width: 0
Storing dark spectrum: false
XAxis mode: Wavelengths
Number of Pixels in Spectrum: 1024
>>>>>Begin Spectral Data<<<<<
801.071	29927
801.214	29950
801.356	29623
801.499	29505
801.641	29535
801.783	29353
801.926	29402
802.068	29197
802.211	29353
802.353	29273
802.496	29140
802.638	29033
802.78	28972
802.923	28908
803.065	28866
803.208	28843
803.35	29086
803.492	29162
803.635	29284
803.777	29025
803.919	29185
804.061	29474
804.204	29269
804.346	29075
804.488	28965
804.63	29010
804.773	28976
804.915	29090
805.057	29284
805.199	29109
805.341	29197
805.483	29299
805.626	29132
805.768	29067
805.91	29231
806.052	29341
806.194	29162
806.336	29235
806.478	29292
806.62	29212
806.762	29364
806.904	29356
807.046	29775
807.188	29551
807.33	29520
807.472	29733
807.614	29501
807.756	29562
807.898	29482
808.04	29258
808.182	29341
808.324	29436
808.465	29364
808.607	29573
808.749	29604
808.891	29824
809.033	29912
809.174	29904
809.316	29722
809.458	29809
809.6	29836
809.741	29904
809.883	29695
810.025	29984
810.166	29996
810.308	30068
810.45	30034
810.591	29961
810.733	29566
810.875	29691
811.016	29562
811.158	29665
811.299	29802
811.441	29923
811.582	29882
811.724	29775
811.865	29691
812.007	29661
812.148	29859
812.29	29779
812.431	29828
812.573	29874
812.714	30201
812.855	30148
812.997	30311
813.138	30178
813.279	30098
813.421	30121
813.562	30125
813.703	30068
813.845	29733
813.986	29501
814.127	29341
814.268	29368
814.41	29414
814.551	29425
814.692	29406
814.833	29181
814.974	29284
815.115	29254
815.256	29056
815.397	29003
815.539	29151
815.68	29064
815.821	28919
815.962	29010
816.103	29128
816.244	28949
816.385	28828
816.526	28816
816.666	28645
816.807	28246
816.948	28451
817.089	28554
817.23	28557
817.371	28470
817.512	28299
817.653	28394
817.793	28348
817.934	28379
818.075	28489
818.216	28265
818.356	28344
818.497	28204
818.638	28112
818.778	27964
818.919	28128
819.06	28147
819.2	28082
819.341	28230
819.481	28424
819.622	28299
819.762	28573
819.903	28500
820.043	28478
820.184	28584
820.324	28451
820.465	28447
820.605	28356
820.746	28325
820.886	28128
821.026	28306
821.167	28386
821.307	28318
821.447	28322
821.588	28219
821.728	27987
821.868	27941
822.008	27793
822.149	27827
822.289	27637
822.429	27530
822.569	27462
822.709	27435
822.849	27222
822.99	27180
823.13	27226
823.27	27119
823.41	27104
823.55	26963
823.69	27146
823.83	26902
823.97	27017
824.11	26864
824.25	26678
824.389	26769
824.529	26853
824.669	26659
824.809	26861
824.949	26781
825.089	26826
825.228	26758
825.368	26530
825.508	26484
825.648	26602
825.787	26609
825.927	26667
826.067	26450
826.206	26663
826.346	26613
826.485	26598
826.625	26446
826.765	26651
826.904	26632
827.044	26290
827.183	26271
827.323	26142
827.462	26248
827.601	26142
827.741	26202
827.88	26282
828.02	26100
828.159	26161
828.298	26172
828.437	26195
828.577	26103
828.716	26244
828.855	25982
828.994	25822
829.134	25780
829.273	25856
829.412	25959
829.551	25769
829.69	25890
829.829	25879
829.968	26008
830.107	25909
830.246	25883
830.385	25746
830.524	25708
830.663	25662
830.802	25434
830.941	25392
831.08	25316
831.219	25506
831.357	25327
831.496	25548
831.635	25278
831.774	25270
831.913	25236
832.051	25209
832.19	25160
832.329	25088
832.467	24981
832.606	24814
832.744	25019
832.883	25015
833.022	25072
833.16	24951
833.299	25019
833.437	25015
833.576	25061
833.714	25133
833.852	25031
833.991	25095
834.129	25118
834.267	24947
834.406	24943
834.544	24943
834.682	24985
834.821	25019
834.959	24970
835.097	24810
835.235	24943
835.373	24901
835.511	25008
835.65	24935
835.788	24703
835.926	24703
836.064	24711
836.202	24585
836.34	24787
836.478	24916
836.615	24707
836.753	24772
836.891	24787
837.029	24840
837.167	24703
837.305	24654
837.443	24608
837.58	24604
837.718	24612
837.856	24688
837.993	24551
838.131	24707
838.269	24490
838.406	24502
838.544	24422
838.681	24319
838.819	24273
838.956	24159
839.094	24079
839.231	24144
839.369	24114
839.506	24414
839.643	24300
839.781	23977
839.918	24011
840.055	23988
840.193	23999
840.33	23927
840.467	23901
840.604	24018
840.742	24220
840.879	23824
841.016	23901
841.153	23748
841.29	24049
841.427	23866
841.564	23878
841.701	23836
841.838	23931
841.975	23802
842.112	23805
842.249	23684
842.385	23642
842.522	23775
842.659	23771
842.796	23543
842.933	23619
843.069	23414
843.206	23516
843.343	23665
843.479	23589
843.616	23520
843.752	23303
843.889	23417
844.025	23444
844.162	23349
844.298	23349
844.435	23387
844.571	23337
844.708	23337
844.844	23497
844.98	23387
845.117	23265
845.253	23193
845.389	23121
845.525	23151
845.661	23109
845.798	23041
845.934	22980
846.07	23010
846.206	22987
846.342	23117
846.478	22927
846.614	22805
846.75	22729
846.886	22763
847.022	22740
847.158	22713
847.294	22717
847.429	22778
847.565	22596
847.701	22900
847.837	22390
847.972	22375
848.108	22382
848.244	22459
848.379	22371
848.515	22268
848.65	22192
848.786	22223
848.921	22196
849.057	22428
849.192	22409
849.328	22322
849.463	22272
849.598	22234
849.734	22200
849.869	22147
850.004	22040
850.14	22036
850.275	21876
850.41	21922
850.545	21823
850.68	21956
850.815	21953
850.95	21918
851.085	22025
851.22	22044
851.355	21857
851.49	22006
851.625	21964
851.76	21816
851.895	21781
852.03	21831
852.165	21888
852.299	22059
852.434	21953
852.569	21926
852.703	21884
852.838	21991
852.973	21953
853.107	22040
853.242	21857
853.376	21720
853.511	21595
853.645	21720
853.78	21842
853.914	21728
854.048	21641
854.183	21812
854.317	21701
854.451	21918
854.585	21724
854.72	21667
854.854	21903
854.988	21545
855.122	21648
855.256	21652
855.39	21644
855.524	21774
855.658	21816
855.792	21690
855.926	21789
856.06	21915
856.194	21846
856.327	21701
856.461	21690
856.595	21648
856.729	21709
856.862	21816
856.996	21644
857.13	21793
857.263	21808
857.397	21781
857.53	21804
857.664	21709
857.797	21709
857.931	21857
858.064	21618
858.197	21816
858.331	21625
858.464	21553
858.597	21523
858.731	21656
858.864	21519
858.997	21606
859.13	21618
859.263	21606
859.396	21648
859.529	21625
859.662	21469
859.795	21500
859.928	21652
860.061	21698
860.194	21816
860.327	21652
860.46	21561
860.592	21717
860.725	21739
860.858	21641
860.99	21625
861.123	21462
861.256	21538
861.388	21656
861.521	22223
861.653	21408
861.786	21458
861.918	21587
862.05	21568
862.183	21751
862.315	21800
862.447	21778
862.58	21679
862.712	21336
862.844	21405
862.976	21481
863.108	21435
863.24	21762
863.372	21272
863.504	21393
863.636	21310
863.768	21435
863.9	21321
864.032	21279
864.164	21180
864.296	21226
864.428	21447
864.559	21450
864.691	21367
864.823	21237
864.954	21230
865.086	21264
865.217	21203
865.349	21123
865.48	21085
865.612	21173
865.743	21374
865.875	21241
866.006	21165
866.137	21249
866.269	21157
866.4	21180
866.531	21222
866.662	21108
866.793	21093
866.924	21199
867.055	21032
867.186	21173
867.317	21066
867.448	21017
867.579	21077
867.71	21062
867.841	21089
867.972	21203
868.103	21127
868.233	21081
868.364	21066
868.495	21241
868.625	21287
868.756	21386
868.886	21214
869.017	21268
869.147	21397
869.278	21378
869.408	21485
869.539	21355
869.669	21450
869.799	21393
869.929	21545
870.06	21416
870.19	21606
870.32	21557
870.45	21637
870.58	21747
870.71	21774
870.84	21857
870.97	21709
871.1	21671
871.23	21895
871.36	21953
871.489	21808
871.619	21895
871.749	21930
871.879	21956
872.008	22051
872.138	21972
872.267	21956
872.397	21789
872.526	21842
872.656	21732
872.785	21675
872.915	21975
873.044	22059
873.173	21994
873.303	21972
873.432	21831
873.561	22223
873.69	22010
873.819	21876
873.948	22044
874.077	22086
874.206	21987
874.335	21941
874.464	22078
874.593	22116
874.722	22135
874.851	22192
874.979	22306
875.108	22299
875.237	22078
875.365	22032
875.494	22082
875.623	22356
875.751	22211
875.88	22109
876.008	22424
876.136	22436
876.265	22603
876.393	22607
876.521	22687
876.65	22615
876.778	22622
876.906	22508
877.034	22504
877.162	22626
877.29	22451
877.418	22466
877.546	22519
877.674	22538
877.802	22535
877.93	22573
878.058	22462
878.185	22474
878.313	22409
878.441	22588
878.568	22398
878.696	22447
878.824	22626
878.951	22561
879.079	22824
879.206	22847
879.333	22698
879.461	22588
879.588	22573
879.715	22759
879.842	22797
879.97	22618
880.097	22329
880.224	22303
880.351	22344
880.478	22421
880.605	22363
880.732	22249
880.859	22603
880.986	22413
881.112	22459
881.239	22097
881.366	21998
881.493	22006
881.619	21926
881.746	21895
881.872	22021
881.999	22021
882.125	21960
882.252	22162
882.378	22070
882.505	22139
882.631	21850
882.757	21667
882.883	21762
883.01	21682
883.136	21644
883.262	21564
883.388	21534
883.514	21732
883.64	21629
883.766	21599
883.892	21389
884.018	21435
884.143	21705
884.269	21720
884.395	21351
884.52	21287
884.646	21370
884.772	21230
884.897	21211
885.023	21188
885.148	21492
885.274	21435
885.399	21500
885.524	21363
885.65	21336
885.775	21283
885.9	21169
886.025	21355
886.15	21268
886.275	21275
886.4	21188
886.525	21176
886.65	21123
886.775	21249
886.9	21370
887.025	21564
887.149	21256
887.274	20990
887.399	20998
887.523	21036
887.648	20868
887.773	21047
887.897	21032
888.021	21085
888.146	20864
888.27	21051
888.395	21169
888.519	21024
888.643	21161
888.767	21070
888.891	20971
889.015	20727
889.139	20800
889.263	20830
889.387	21001
889.511	20956
889.635	20971
889.759	20746
889.883	20914
890.006	20746
890.13	20788
890.254	20727
890.377	20693
890.501	20579
890.624	20465
890.748	20564
890.871	20423
890.995	20381
891.118	20263
891.241	20343
891.364	20374
891.488	20492
891.611	20355
891.734	20328
891.857	20412
891.98	20438
892.103	20454
892.226	20355
892.349	20252
892.471	20275
892.594	20252
892.717	20305
892.839	20240
892.962	20275
893.085	20370
893.207	20282
893.33	20218
893.452	20199
893.575	20309
893.697	20351
893.819	20320
893.941	20484
894.064	20438
894.186	20309
894.308	20180
894.43	20305
894.552	20480
894.674	20305
894.796	20145
894.918	20259
895.04	20294
895.161	20294
895.283	20214
895.405	20214
895.526	20233
895.648	20252
895.769	20263
895.891	20423
896.012	20290
896.134	20431
896.255	20271
896.376	20408
896.498	20313
896.619	20347
896.74	20370
896.861	20309
896.982	20560
897.103	20769
897.224	20663
897.345	20613
897.466	20560
897.587	20526
897.708	20682
897.828	20545
897.949	20450
898.07	20374
898.19	20366
898.311	20632
898.431	20484
898.552	20530
898.672	20465
898.792	20533
898.913	20461
899.033	20252
899.153	20298
899.273	20062
899.393	20161
899.513	20221
899.633	20122
899.753	20161
899.873	20195
899.993	20267
900.113	20103
900.232	20126
900.352	20027
900.472	19883
900.591	19909
900.711	19982
900.83	19986
900.95	20073
901.069	20103
901.189	19761
901.308	19689
901.427	19533
901.546	19533
901.665	19533
901.784	19601
901.904	19335
902.023	19472
902.141	19160
902.26	19008
902.379	19122
902.498	19088
902.617	19069
902.735	19027
902.854	18947
902.973	18886
903.091	18745
903.21	18681
903.328	18658
903.446	18658
903.565	18559
903.683	18582
903.801	18525
903.919	18555
904.038	18441
904.156	18422
904.274	18452
904.392	18205
904.51	18106
904.627	18190
904.745	18300
904.863	18289
904.981	18034
905.098	17920
905.216	17904
905.334	17954
905.451	17988
905.569	17939
905.686	17969
905.803	17961
905.921	17752
906.038	17893
906.155	17798
906.272	17570
906.389	17554
906.506	17452
906.623	17455
906.74	17406
906.857	17273
906.974	17284
907.091	17486
907.208	17547
907.324	17395
907.441	17402
907.557	17216
907.674	17128
907.79	17094
907.907	17117
908.023	17113
908.139	17094
908.256	17014
908.372	16987
908.488	16892
908.604	16828
908.72	16797
908.836	16736
908.952	16744
909.068	16767
909.184	16767
909.3	16725
909.415	16790
909.531	16733
909.647	16535
909.762	16531
909.878	16436
909.993	16436
910.108	16424
910.224	16535
910.339	16455
910.454	16295
910.57	16333
910.685	16166
910.8	16497
910.915	16436
911.03	16223
911.145	16090
911.259	16112
911.374	16021
911.489	16044
911.604	15915
911.718	15800
911.833	15926
911.947	15778
912.062	15739
912.176	15816
912.291	15850
912.405	15888
912.519	16093
912.633	15934
912.748	15934
912.862	15720
912.976	15580
913.09	15496
913.204	15504
913.318	15625
913.431	15682
913.545	15637
913.659	15591
913.772	15652
913.886	15416
914	15321
914.113	15526
914.226	15469
914.34	15481
914.453	15302
914.566	15401
914.68	15275
914.793	15348
914.906	15066
915.019	15066
915.132	15051
915.245	15070
915.358	15001
915.47	15070
915.583	14982
915.696	15009
915.809	15173
915.921	15150
916.034	15036
916.146	14899
916.259	14830
916.371	14986
916.483	15001
916.595	14785
916.708	14902
916.82	14823
916.932	14788
917.044	14739
917.156	14701
917.268	14754
917.38	14705
917.491	14686
917.603	14667
917.715	14716
917.826	14651
917.938	14598
918.049	14621
918.161	14632
918.272	14788
918.384	14697
918.495	14552
918.606	14461
918.717	14332
918.828	14434
918.939	14438
919.05	14317
919.161	14374
919.272	14145
919.383	14218
919.494	14370
919.604	14564
919.715	14355
919.826	14256
919.936	14351
920.047	14419
920.157	14294
920.267	14537
920.378	14374
920.488	14423
920.598	14526
920.708	14621
920.818	14442
920.928	14461
921.038	14579
921.148	14625
921.258	14305
921.368	14199
921.477	14126
921.587	14077
921.697	13986
921.806	14054
921.916	13894
922.025	13833
922.134	13776
922.244	13719
922.353	13803
922.462	13632
922.571	13578
922.68	13358
922.789	13343
922.898	13343
923.007	13228
923.116	13362
923.224	13358
923.333	13240
923.442	13114
923.55	13179
923.659	13152
923.767	13228
923.876	13118
923.984	13221
924.092	13012
924.201	13065
924.309	13065
924.417	13103
924.525	12989
924.633	13053
924.741	13940
924.849	12719
924.956	12977
925.064	12871
925.172	12795
925.279	12749
925.387	12802
925.494	12749
925.602	12863
925.709	12802
925.816	12654
925.924	12681
926.031	12840
926.138	12669
926.245	12757
926.352	12525
926.459	12738
926.566	12867
926.673	12669
926.779	12555
926.886	12464
926.993	12372
927.099	12327
927.206	12251
927.312	12239
927.419	12311
927.525	12376
927.631	12342
927.737	12155
927.843	12205
927.95	12129
928.056	12163
928.162	12129
928.267	12171
928.373	12810
928.479	12216
928.585	12053
928.69	12140
928.796	12140
928.901	12053
929.007	11794
929.112	12003
929.218	11996
929.323	11866
929.428	11786
929.533	11965
929.638	11737
929.743	11847
929.848	11855
929.953	11855
930.058	11703
930.163	11509
930.267	11474
930.372	11710
930.477	11463
930.581	11783
930.685	11653
930.79	11459
930.894	11471
930.998	11417
931.103	11493
931.207	11151
931.311	11041
931.415	11052
931.519	10911
931.623	10923
