Data from test_V78500241_2995.txt Node
Date: Fri Mar 25 16:02:32 CST 2022
User: usil
Spectrometer: V785-0024
Trigger mode: 0
Integration Time (sec): 4.000000E-1
Scans to average: 1
Nonlinearity correction enabled: false
Boxcar width: 0
Storing dark spectrum: false
XAxis mode: Wavelengths
Number of Pixels in Spectrum: 1024
>>>>>Begin Spectral Data<<<<<
801.071	28752
801.214	28592
801.356	28497
801.499	28382
801.641	28344
801.783	28322
801.926	28352
802.068	28276
802.211	28128
802.353	28177
802.496	28109
802.638	27918
802.78	28029
802.923	28086
803.065	27857
803.208	28093
803.35	28010
803.492	28158
803.635	28173
803.777	28188
803.919	28325
804.061	28603
804.204	28356
804.346	28352
804.488	28067
804.63	28272
804.773	28143
804.915	28352
805.057	28405
805.199	28139
805.341	28508
805.483	28363
805.626	28352
805.768	28303
805.91	28440
806.052	28459
806.194	28272
806.336	28584
806.478	28398
806.62	28398
806.762	28622
806.904	28748
807.046	29075
807.188	28820
807.33	28911
807.472	28976
807.614	28824
807.756	28824
807.898	28668
808.04	28755
808.182	28634
808.324	28759
808.465	28774
808.607	28938
808.749	29128
808.891	29242
809.033	29280
809.174	29204
809.316	29170
809.458	29166
809.6	29056
809.741	29254
809.883	29254
810.025	29493
810.166	29391
810.308	29436
810.45	29368
810.591	29345
810.733	29227
810.875	29303
811.016	29083
811.158	28987
811.299	29124
811.441	29345
811.582	29299
811.724	29212
811.865	28911
812.007	29200
812.148	29098
812.29	29212
812.431	29353
812.573	29493
812.714	29531
812.855	29668
812.997	29684
813.138	29916
813.279	29817
813.421	29695
813.562	29600
813.703	29330
813.845	29315
813.986	29025
814.127	29075
814.268	28816
814.41	28900
814.551	28786
814.692	29003
814.833	28683
814.974	28949
815.115	28927
815.256	28805
815.397	28717
815.539	28706
815.68	28679
815.821	28630
815.962	28588
816.103	28649
816.244	28615
816.385	28398
816.526	28447
816.666	28242
816.807	28048
816.948	28234
817.089	28238
817.23	28238
817.371	28246
817.512	28363
817.653	28154
817.793	28044
817.934	28093
818.075	28242
818.216	28185
818.356	28059
818.497	28093
818.638	27918
818.778	27903
818.919	27983
819.06	28032
819.2	28029
819.341	28040
819.481	28109
819.622	28371
819.762	28531
819.903	28379
820.043	28344
820.184	28291
820.324	28478
820.465	28363
820.605	28318
820.746	28272
820.886	28002
821.026	28333
821.167	28207
821.307	28337
821.447	28185
821.588	28226
821.728	28044
821.868	27926
822.008	27660
822.149	27633
822.289	27583
822.429	27443
822.569	27443
822.709	27469
822.849	27131
822.99	27157
823.13	27066
823.27	27161
823.41	27146
823.55	26933
823.69	27028
823.83	27039
823.97	26956
824.11	26876
824.25	26804
824.389	26853
824.529	26792
824.669	26887
824.809	26902
824.949	26971
825.089	27001
825.228	26895
825.368	26701
825.508	26750
825.648	26549
825.787	26750
825.927	26796
826.067	26602
826.206	26845
826.346	26804
826.485	26636
826.625	26724
826.765	26845
826.904	26792
827.044	26495
827.183	26423
827.323	26393
827.462	26415
827.601	26408
827.741	26476
827.88	26575
828.02	26305
828.159	26495
828.298	26412
828.437	26396
828.577	26442
828.716	26465
828.855	26366
828.994	26240
829.134	26214
829.273	26077
829.412	26084
829.551	26084
829.69	26126
829.829	26153
829.968	26142
830.107	26298
830.246	25986
830.385	26161
830.524	25959
830.663	25795
830.802	25852
830.941	25635
831.08	25719
831.219	25856
831.357	25811
831.496	25951
831.635	25715
831.774	25571
831.913	25613
832.051	25552
832.19	25529
832.329	25521
832.467	25339
832.606	25362
832.744	25293
832.883	25373
833.022	25449
833.16	25419
833.299	25438
833.437	25479
833.576	25472
833.714	25426
833.852	25556
833.991	25460
834.129	25533
834.267	25525
834.406	25597
834.544	25540
834.682	25426
834.821	25487
834.959	25647
835.097	25491
835.235	25586
835.373	25476
835.511	25403
835.65	25247
835.788	25289
835.926	25244
836.064	24966
836.202	25137
836.34	25411
836.478	25525
836.615	25293
836.753	25289
836.891	25247
837.029	25164
837.167	25088
837.305	25091
837.443	25148
837.58	25206
837.718	25152
837.856	25152
837.993	25019
838.131	25152
838.269	24897
838.406	25046
838.544	24882
838.681	24673
838.819	24673
838.956	24639
839.094	24692
839.231	24574
839.369	24817
839.506	25008
839.643	24867
839.781	24631
839.918	24513
840.055	24582
840.193	24486
840.33	24464
840.467	24433
840.604	24631
840.742	24688
840.879	24376
841.016	24604
841.153	24228
841.29	24483
841.427	24483
841.564	24483
841.701	24342
841.838	24456
841.975	24308
842.112	24414
842.249	24239
842.385	24186
842.522	24369
842.659	24201
842.796	24201
842.933	24178
843.069	24220
843.206	24232
843.343	24353
843.479	24361
843.616	24285
843.752	23958
843.889	24152
844.025	24098
844.162	24152
844.298	24174
844.435	23999
844.571	23988
844.708	24091
844.844	24224
844.98	23999
845.117	24018
845.253	23973
845.389	23908
845.525	23809
845.661	23859
845.798	23745
845.934	23779
846.07	23752
846.206	23661
846.342	23832
846.478	23630
846.614	23638
846.75	23463
846.886	23417
847.022	23505
847.158	23482
847.294	23474
847.429	23463
847.565	23486
847.701	23695
847.837	23216
847.972	23231
848.108	23269
848.244	23261
848.379	23128
848.515	23208
848.65	23033
848.786	23006
848.921	23102
849.057	23136
849.192	23079
849.328	23147
849.463	23155
849.598	23025
849.734	22949
849.869	22923
850.004	22847
850.14	22953
850.275	22831
850.41	22683
850.545	22896
850.68	22767
850.815	22691
850.95	22835
851.085	23010
851.22	22934
851.355	22820
851.49	22843
851.625	22816
851.76	22908
851.895	22812
852.03	22774
852.165	22790
852.299	22801
852.434	22965
852.569	22793
852.703	22763
852.838	22858
852.973	22869
853.107	22972
853.242	22752
853.376	22721
853.511	22599
853.645	22630
853.78	22759
853.914	22664
854.048	22626
854.183	22653
854.317	22733
854.451	22824
854.585	22683
854.72	22603
854.854	22573
854.988	22569
855.122	22687
855.256	22447
855.39	22538
855.524	22702
855.658	22607
855.792	22580
855.926	22702
856.06	22725
856.194	22668
856.327	22516
856.461	22618
856.595	22637
856.729	22694
856.862	22774
856.996	22759
857.13	22778
857.263	22774
857.397	22763
857.53	22645
857.664	22729
857.797	22687
857.931	22786
858.064	22702
858.197	22687
858.331	22580
858.464	22535
858.597	22588
858.731	22694
858.864	22440
858.997	22660
859.13	22694
859.263	22649
859.396	22649
859.529	22611
859.662	22466
859.795	22577
859.928	22618
860.061	22801
860.194	22736
860.327	22702
860.46	22694
860.592	22801
860.725	22866
860.858	22801
860.99	22679
861.123	22649
861.256	22630
861.388	22607
861.521	23539
861.653	22542
861.786	22455
861.918	22538
862.05	22550
862.183	22550
862.315	22557
862.447	22702
862.58	22679
862.712	22284
862.844	22246
862.976	22432
863.108	22394
863.24	22911
863.372	22310
863.504	22322
863.636	22481
863.768	22386
863.9	22398
864.032	22337
864.164	22280
864.296	22386
864.428	22466
864.559	22394
864.691	22382
864.823	22413
864.954	22272
865.086	22265
865.217	22162
865.349	22215
865.48	22162
865.612	22188
865.743	22451
865.875	22147
866.006	22124
866.137	22306
866.269	22246
866.4	22131
866.531	22055
866.662	22109
866.793	22101
866.924	22162
867.055	22219
867.186	22177
867.317	22223
867.448	22101
867.579	22177
867.71	22112
867.841	21979
867.972	22109
868.103	22169
868.233	22120
868.364	22082
868.495	22329
868.625	22428
868.756	22512
868.886	22234
869.017	22421
869.147	22405
869.278	22447
869.408	22417
869.539	22428
869.669	22413
869.799	22481
869.929	22462
870.06	22466
870.19	22752
870.32	22645
870.45	22694
870.58	22778
870.71	23029
870.84	22793
870.97	22889
871.1	22824
871.23	22881
871.36	22984
871.489	22934
871.619	22873
871.749	22995
871.879	23014
872.008	23102
872.138	22957
872.267	23044
872.397	22869
872.526	22858
872.656	22892
872.785	22919
872.915	23067
873.044	23136
873.173	23033
873.303	23075
873.432	23166
873.561	23155
873.69	22957
873.819	23083
873.948	23052
874.077	23056
874.206	22934
874.335	23029
874.464	23048
874.593	23212
874.722	23117
874.851	23239
874.979	23258
875.108	23402
875.237	23220
875.365	23147
875.494	23231
875.623	23360
875.751	23189
875.88	23277
876.008	23261
876.136	23402
876.265	23661
876.393	23760
876.521	23646
876.65	23634
876.778	23646
876.906	23573
877.034	23566
877.162	23562
877.29	23581
877.418	23596
877.546	23425
877.674	23668
877.802	23535
877.93	23577
878.058	23535
878.185	23493
878.313	23577
878.441	23490
878.568	23372
878.696	23531
878.824	23467
878.951	23661
879.079	23661
879.206	23927
879.333	23672
879.461	23668
879.588	23653
879.715	23783
879.842	23821
879.97	23642
880.097	23280
880.224	23433
880.351	23459
880.478	23497
880.605	23258
880.732	23459
880.859	23615
880.986	23379
881.112	23353
881.239	23311
881.366	22991
881.493	23056
881.619	22934
881.746	23003
881.872	22976
881.999	23048
882.125	22968
882.252	22972
882.378	22934
882.505	22995
882.631	22736
882.757	22675
882.883	22755
883.01	22527
883.136	22485
883.262	22481
883.388	22382
883.514	22668
883.64	22656
883.766	22523
883.892	22398
884.018	22409
884.143	22459
884.269	22634
884.395	22249
884.52	22226
884.646	22246
884.772	22200
884.897	22169
885.023	22246
885.148	22337
885.274	22303
885.399	22405
885.524	22329
885.65	22276
885.775	22234
885.9	22223
886.025	22421
886.15	22306
886.275	22207
886.4	21987
886.525	22257
886.65	22105
886.775	22147
886.9	22386
887.025	22390
887.149	22120
887.274	22074
887.399	21945
887.523	22013
887.648	21895
887.773	21888
887.897	22219
888.021	22025
888.146	21975
888.27	22082
888.395	22010
888.519	22044
888.643	22021
888.767	21975
888.891	21915
889.015	21831
889.139	21907
889.263	21789
889.387	21823
889.511	21835
889.635	21876
889.759	21804
889.883	21880
890.006	21747
890.13	21846
890.254	21838
890.377	21812
890.501	21466
890.624	21450
890.748	21713
890.871	21504
890.995	21355
891.118	21275
891.241	21367
891.364	21336
891.488	21428
891.611	21287
891.734	21355
891.857	21370
891.98	21272
892.103	21393
892.226	21294
892.349	21382
892.471	21203
892.594	21264
892.717	21226
892.839	21230
892.962	21226
893.085	21275
893.207	21302
893.33	21089
893.452	21055
893.575	21313
893.697	21199
893.819	21272
893.941	21439
894.064	21374
894.186	21207
894.308	21173
894.43	21233
894.552	21401
894.674	21454
894.796	21138
894.918	21180
895.04	21188
895.161	21230
895.283	21237
895.405	21199
895.526	21116
895.648	21146
895.769	21211
895.891	21344
896.012	21268
896.134	21260
896.255	21336
896.376	21222
896.498	21157
896.619	21142
896.74	21272
896.861	21104
896.982	21473
897.103	21625
897.224	21329
897.345	21401
897.466	21336
897.587	21367
897.708	21466
897.828	21492
897.949	21313
898.07	21131
898.19	21370
898.311	21447
898.431	21374
898.552	21367
898.672	21507
898.792	21408
898.913	21397
899.033	21321
899.153	21268
899.273	21058
899.393	21089
899.513	21207
899.633	21173
899.753	21169
899.873	21127
899.993	21207
900.113	21112
900.232	21127
900.352	21112
900.472	20971
900.591	20842
900.711	20872
900.83	20857
900.95	20944
901.069	21039
901.189	20834
901.308	20469
901.427	20469
901.546	20480
901.665	20518
901.784	20465
901.904	20278
902.023	20301
902.141	19989
902.26	20046
902.379	20077
902.498	20035
902.617	19860
902.735	20081
902.854	20035
902.973	19830
903.091	19643
903.21	19628
903.328	19578
903.446	19559
903.565	19499
903.683	19415
903.801	19365
903.919	19331
904.038	19354
904.156	19217
904.274	19221
904.392	19133
904.51	19000
904.627	19255
904.745	19183
904.863	19263
904.981	19053
905.098	18840
905.216	18943
905.334	18806
905.451	18806
905.569	18753
905.686	18863
905.803	18837
905.921	18570
906.038	18688
906.155	18650
906.272	18388
906.389	18544
906.506	18414
906.623	18410
906.74	18426
906.857	18144
906.974	18311
907.091	18433
907.208	18490
907.324	18369
907.441	18292
907.557	18117
907.674	18110
907.79	18015
907.907	18068
908.023	18083
908.139	18121
908.256	18125
908.372	17999
908.488	18030
908.604	17805
908.72	17851
908.836	17851
908.952	17718
909.068	17809
909.184	17863
909.3	17813
909.415	17802
909.531	17843
909.647	17604
909.762	17589
909.878	17482
909.993	17486
910.108	17486
910.224	17341
910.339	17467
910.454	17345
910.57	17478
910.685	17143
910.8	17486
910.915	17532
911.03	17220
911.145	17090
911.259	17098
911.374	17083
911.489	17025
911.604	17003
911.718	16774
911.833	16850
911.947	16687
912.062	16645
912.176	16771
912.291	16900
912.405	16854
912.519	16801
912.633	17041
912.748	16820
912.862	16733
912.976	16618
913.09	16478
913.204	16554
913.318	16641
913.431	16687
913.545	16630
913.659	16584
913.772	16626
913.886	16390
914	16390
914.113	16481
914.226	16489
914.34	16466
914.453	16272
914.566	16352
914.68	16253
914.793	16322
914.906	16109
915.019	15918
915.132	15956
915.245	15987
915.358	15972
915.47	16048
915.583	16044
915.696	15937
915.809	16010
915.921	16173
916.034	15964
916.146	15850
916.259	15755
916.371	15922
916.483	15884
916.595	15831
916.708	15762
916.82	15682
916.932	15793
917.044	15717
917.156	15713
917.268	15648
917.38	15739
917.491	15663
917.603	15679
917.715	15591
917.826	15793
917.938	15568
918.049	15466
918.161	15492
918.272	15618
918.384	15652
918.495	15492
918.606	15374
918.717	15237
918.828	15424
918.939	15336
919.05	15264
919.161	15348
919.272	15135
919.383	15138
919.494	15393
919.604	15534
919.715	15351
919.826	15173
919.936	15302
920.047	15344
920.157	15260
920.267	15443
920.378	15370
920.488	15176
920.598	15492
920.708	15530
920.818	15420
920.928	15359
921.038	15507
921.148	15378
921.258	15195
921.368	15104
921.477	14944
921.587	15123
921.697	14998
921.806	15017
921.916	14944
922.025	14735
922.134	14602
922.244	14610
922.353	14716
922.462	14522
922.571	14590
922.68	14446
922.789	14355
922.898	14332
923.007	14199
923.116	14275
923.224	14324
923.333	14161
923.442	14100
923.55	14062
923.659	14149
923.767	14088
923.876	14008
923.984	14142
924.092	13970
924.201	14008
924.309	13997
924.417	13963
924.525	13833
924.633	13902
924.741	14693
924.849	13757
924.956	13788
925.064	13753
925.172	13666
925.279	13594
925.387	13647
925.494	13597
925.602	13693
925.709	13624
925.816	13620
925.924	13514
926.031	13712
926.138	13582
926.245	13613
926.352	13487
926.459	13708
926.566	13636
926.673	13472
926.779	13301
926.886	13327
926.993	13164
927.099	13160
927.206	13202
927.312	13118
927.419	13213
927.525	13053
927.631	13137
927.737	13110
927.843	13057
927.95	12890
928.056	13027
928.162	12966
928.267	12981
928.373	13620
928.479	12970
928.585	12825
928.69	12878
928.796	12970
928.901	12916
929.007	12662
929.112	12878
929.218	12867
929.323	12776
929.428	12658
929.533	12852
929.638	12525
929.743	12620
929.848	12654
929.953	12646
930.058	12452
930.163	12388
930.267	12418
930.372	12479
930.477	12311
930.581	12555
930.685	12445
930.79	12254
930.894	12338
930.998	12228
931.103	12429
931.207	12011
931.311	11954
931.415	11828
931.519	11642
931.623	11596
