Data from test_V78500241_3096.txt Node
Date: Fri Mar 25 16:03:14 CST 2022
User: usil
Spectrometer: V785-0024
Trigger mode: 0
Integration Time (sec): 4.000000E-1
Scans to average: 1
Nonlinearity correction enabled: false
Boxcar width: 0
Storing dark spectrum: false
XAxis mode: Wavelengths
Number of Pixels in Spectrum: 1024
>>>>>Begin Spectral Data<<<<<
801.071	28542
801.214	28531
801.356	28322
801.499	28234
801.641	28067
801.783	28101
801.926	28356
802.068	28093
802.211	28211
802.353	28013
802.496	27968
802.638	27964
802.78	27724
802.923	27732
803.065	27739
803.208	27804
803.35	27850
803.492	27869
803.635	28006
803.777	28002
803.919	27998
804.061	28398
804.204	28021
804.346	27964
804.488	27930
804.63	28059
804.773	28040
804.915	28074
805.057	28249
805.199	28173
805.341	28158
805.483	28249
805.626	28192
805.768	28173
805.91	28310
806.052	28363
806.194	28002
806.336	28398
806.478	28158
806.62	28128
806.762	28284
806.904	28508
807.046	28805
807.188	28546
807.33	28599
807.472	28744
807.614	28664
807.756	28554
807.898	28607
808.04	28557
808.182	28417
808.324	28538
808.465	28485
808.607	28835
808.749	29136
808.891	29083
809.033	29064
809.174	28885
809.316	28877
809.458	28908
809.6	28713
809.741	28923
809.883	29044
810.025	29200
810.166	29136
810.308	29159
810.45	29170
810.591	29071
810.733	29048
810.875	28896
811.016	28717
811.158	28790
811.299	29010
811.441	29113
811.582	28930
811.724	28915
811.865	28934
812.007	28968
812.148	28805
812.29	29037
812.431	29231
812.573	29345
812.714	29360
812.855	29436
812.997	29463
813.138	29665
813.279	29566
813.421	29429
813.562	29387
813.703	29109
813.845	29109
813.986	28744
814.127	28615
814.268	28542
814.41	28683
814.551	28542
814.692	28649
814.833	28626
814.974	28531
815.115	28645
815.256	28516
815.397	28390
815.539	28519
815.68	28375
815.821	28333
815.962	28329
816.103	28325
816.244	28386
816.385	28242
816.526	28230
816.666	28032
816.807	27953
816.948	27945
817.089	27956
817.23	27960
817.371	27846
817.512	27876
817.653	27884
817.793	27854
817.934	27816
818.075	27884
818.216	28006
818.356	27873
818.497	27701
818.638	27690
818.778	27633
818.919	27762
819.06	27694
819.2	27816
819.341	27808
819.481	27918
819.622	28139
819.762	28196
819.903	28196
820.043	28032
820.184	28090
820.324	27930
820.465	28188
820.605	28029
820.746	27972
820.886	27831
821.026	27960
821.167	28048
821.307	28006
821.447	27949
821.588	27846
821.728	27789
821.868	27496
822.008	27553
822.149	27363
822.289	27351
822.429	27119
822.569	27169
822.709	27066
822.849	26906
822.99	26975
823.13	26937
823.27	26948
823.41	26781
823.55	26571
823.69	26716
823.83	26864
823.97	26568
824.11	26499
824.25	26408
824.389	26511
824.529	26621
824.669	26484
824.809	26689
824.949	26590
825.089	26667
825.228	26663
825.368	26400
825.508	26389
825.648	26423
825.787	26385
825.927	26571
826.067	26381
826.206	26423
826.346	26438
826.485	26495
826.625	26419
826.765	26438
826.904	26541
827.044	26229
827.183	26161
827.323	26081
827.462	26252
827.601	26149
827.741	26096
827.88	26271
828.02	26111
828.159	26031
828.298	26138
828.437	26252
828.577	25966
828.716	26282
828.855	26168
828.994	25936
829.134	25864
829.273	25898
829.412	25788
829.551	25666
829.69	25883
829.829	25856
829.968	26088
830.107	25944
830.246	25826
830.385	25738
830.524	25791
830.663	25685
830.802	25548
830.941	25403
831.08	25464
831.219	25559
831.357	25460
831.496	25681
831.635	25415
831.774	25430
831.913	25270
832.051	25183
832.19	25339
832.329	25365
832.467	25213
832.606	24954
832.744	25042
832.883	25114
833.022	24954
833.16	25069
833.299	25099
833.437	25225
833.576	25202
833.714	25217
833.852	25255
833.991	25217
834.129	25297
834.267	25247
834.406	25141
834.544	25244
834.682	25206
834.821	25122
834.959	25350
835.097	25095
835.235	25304
835.373	25202
835.511	25126
835.65	25069
835.788	25069
835.926	24970
836.064	24932
836.202	24947
836.34	24977
836.478	25084
836.615	25004
836.753	25061
836.891	25038
837.029	25038
837.167	24894
837.305	24928
837.443	24886
837.58	24791
837.718	24905
837.856	24844
837.993	24749
838.131	24795
838.269	24677
838.406	24772
838.544	24776
838.681	24426
838.819	24384
838.956	24350
839.094	24388
839.231	24308
839.369	24570
839.506	24608
839.643	24612
839.781	24235
839.918	24209
840.055	24308
840.193	24182
840.33	24148
840.467	24144
840.604	24350
840.742	24479
840.879	24060
841.016	24190
841.153	24194
841.29	24228
841.427	24201
841.564	24380
841.701	24163
841.838	24155
841.975	24159
842.112	24095
842.249	24060
842.385	23973
842.522	24235
842.659	24068
842.796	23999
842.933	24057
843.069	23866
843.206	23961
843.343	24060
843.479	23961
843.616	23916
843.752	23752
843.889	23684
844.025	23817
844.162	23722
844.298	23863
844.435	23767
844.571	23627
844.708	23809
844.844	23885
844.98	23824
845.117	23859
845.253	23764
845.389	23642
845.525	23710
845.661	23531
845.798	23425
845.934	23531
846.07	23501
846.206	23501
846.342	23627
846.478	23455
846.614	23334
846.75	23109
846.886	23220
847.022	23280
847.158	23277
847.294	23170
847.429	23197
847.565	23208
847.701	23455
847.837	22953
847.972	22927
848.108	23044
848.244	23121
848.379	22702
848.515	22755
848.65	22835
848.786	22820
848.921	22687
849.057	22930
849.192	22843
849.328	22820
849.463	22812
849.598	22793
849.734	22626
849.869	22656
850.004	22569
850.14	22675
850.275	22584
850.41	22485
850.545	22344
850.68	22500
850.815	22717
850.95	22592
851.085	22793
851.22	22569
851.355	22702
851.49	22489
851.625	22573
851.76	22527
851.895	22474
852.03	22557
852.165	22481
852.299	22565
852.434	22615
852.569	22519
852.703	22622
852.838	22664
852.973	22504
853.107	22717
853.242	22493
853.376	22325
853.511	22272
853.645	22295
853.78	22493
853.914	22360
854.048	22261
854.183	22360
854.317	22432
854.451	22645
854.585	22409
854.72	22329
854.854	22428
854.988	22306
855.122	22329
855.256	22211
855.39	22413
855.524	22322
855.658	22504
855.792	22314
855.926	22329
856.06	22440
856.194	22421
856.327	22428
856.461	22306
856.595	22226
856.729	22405
856.862	22592
856.996	22443
857.13	22402
857.263	22500
857.397	22352
857.53	22390
857.664	22489
857.797	22531
857.931	22470
858.064	22485
858.197	22615
858.331	22337
858.464	22329
858.597	22287
858.731	22356
858.864	22272
858.997	22363
859.13	22508
859.263	22287
859.396	22413
859.529	22322
859.662	22333
859.795	22268
859.928	22379
860.061	22459
860.194	22675
860.327	22413
860.46	22344
860.592	22561
860.725	22565
860.858	22573
860.99	22421
861.123	22341
861.256	22367
861.388	22356
861.521	22972
861.653	22185
861.786	22177
861.918	22249
862.05	22257
862.183	22363
862.315	22306
862.447	22405
862.58	22318
862.712	22093
862.844	22036
862.976	22173
863.108	22120
863.24	22398
863.372	21876
863.504	22211
863.636	22135
863.768	22185
863.9	22086
864.032	21975
864.164	22124
864.296	22158
864.428	22204
864.559	22105
864.691	22169
864.823	22074
864.954	22006
865.086	22082
865.217	21926
865.349	21937
865.48	21907
865.612	22070
865.743	22147
865.875	21975
866.006	21778
866.137	21956
866.269	21880
866.4	21991
866.531	21781
866.662	21816
866.793	21937
866.924	21918
867.055	21915
867.186	21819
867.317	21789
867.448	21812
867.579	21907
867.71	21831
867.841	21842
867.972	21930
868.103	21903
868.233	21911
868.364	21869
868.495	22044
868.625	22040
868.756	22200
868.886	22097
869.017	22150
869.147	22272
869.278	22150
869.408	22230
869.539	22177
869.669	22188
869.799	22261
869.929	22238
870.06	22257
870.19	22424
870.32	22413
870.45	22519
870.58	22531
870.71	22660
870.84	22672
870.97	22584
871.1	22508
871.23	22740
871.36	22786
871.489	22710
871.619	22687
871.749	22786
871.879	22820
872.008	22752
872.138	22634
872.267	22706
872.397	22660
872.526	22584
872.656	22516
872.785	22618
872.915	22831
873.044	22835
873.173	22801
873.303	22892
873.432	22793
873.561	22824
873.69	22759
873.819	22717
873.948	22759
874.077	22706
874.206	22755
874.335	22736
874.464	22934
874.593	22850
874.722	22968
874.851	23014
874.979	23052
875.108	22980
875.237	22957
875.365	22965
875.494	22911
875.623	22946
875.751	22847
875.88	22976
876.008	23117
876.136	23162
876.265	23345
876.393	23406
876.521	23448
876.65	23436
876.778	23299
876.906	23273
877.034	23208
877.162	23368
877.29	23208
877.418	23296
877.546	23231
877.674	23459
877.802	23326
877.93	23307
878.058	23326
878.185	23136
878.313	23379
878.441	23223
878.568	23246
878.696	23277
878.824	23292
878.951	23410
879.079	23516
879.206	23570
879.333	23551
879.461	23280
879.588	23429
879.715	23436
879.842	23509
879.97	23372
880.097	23060
880.224	23159
880.351	23189
880.478	23193
880.605	23136
880.732	23231
880.859	23368
880.986	23151
881.112	23109
881.239	22896
881.366	22850
881.493	22809
881.619	22736
881.746	22786
881.872	22706
881.999	22592
882.125	22596
882.252	22740
882.378	22599
882.505	22694
882.631	22500
882.757	22466
882.883	22356
883.01	22451
883.136	22306
883.262	22169
883.388	22249
883.514	22257
883.64	22363
883.766	22325
883.892	22223
884.018	22147
884.143	22333
884.269	22500
884.395	21991
884.52	21994
884.646	22036
884.772	21941
884.897	21899
885.023	21922
885.148	22082
885.274	22116
885.399	22055
885.524	21960
885.65	21998
885.775	22025
885.9	21937
886.025	22086
886.15	22150
886.275	21949
886.4	21968
886.525	21926
886.65	22002
886.775	21907
886.9	22116
887.025	22166
887.149	21934
887.274	21835
887.399	21751
887.523	21728
887.648	21800
887.773	21629
887.897	21781
888.021	21751
888.146	21778
888.27	21888
888.395	21945
888.519	21816
888.643	21880
888.767	21751
888.891	21724
889.015	21660
889.139	21663
889.263	21488
889.387	21576
889.511	21701
889.635	21629
889.759	21462
889.883	21469
890.006	21587
890.13	21629
890.254	21408
890.377	21325
890.501	21340
890.624	21279
890.748	21332
890.871	21249
890.995	21146
891.118	21142
891.241	21184
891.364	20990
891.488	21150
891.611	21116
891.734	21214
891.857	21214
891.98	21074
892.103	21108
892.226	21043
892.349	21077
892.471	20982
892.594	21074
892.717	20998
892.839	20933
892.962	20986
893.085	20948
893.207	21039
893.33	20842
893.452	20815
893.575	21116
893.697	21039
893.819	21085
893.941	21093
894.064	21058
894.186	21039
894.308	20811
894.43	21009
894.552	21237
894.674	21169
894.796	20921
894.918	21009
895.04	21100
895.161	21100
895.283	21020
895.405	20925
895.526	21024
895.648	21070
895.769	20944
895.891	20868
896.012	21062
896.134	21032
896.255	20891
896.376	20979
896.498	20944
896.619	20956
896.74	20918
896.861	20994
896.982	21256
897.103	21386
897.224	21268
897.345	21176
897.466	21089
897.587	21192
897.708	21344
897.828	21332
897.949	21028
898.07	20849
898.19	21081
898.311	21233
898.431	21184
898.552	21256
898.672	21279
898.792	21283
898.913	21138
899.033	21089
899.153	20963
899.273	20880
899.393	20876
899.513	21123
899.633	20933
899.753	20990
899.873	20830
899.993	20849
900.113	20765
900.232	20887
900.352	20876
900.472	20773
900.591	20629
900.711	20720
900.83	20629
900.95	20800
901.069	20762
901.189	20495
901.308	20336
901.427	20339
901.546	20305
901.665	20275
901.784	20225
901.904	20138
902.023	20130
902.141	19799
902.26	19841
902.379	19852
902.498	19833
902.617	19734
902.735	19742
902.854	19799
902.973	19734
903.091	19544
903.21	19480
903.328	19377
903.446	19346
903.565	19213
903.683	19198
903.801	19042
903.919	19194
904.038	19118
904.156	19019
904.274	19008
904.392	19008
904.51	18909
904.627	18916
904.745	18886
904.863	18943
904.981	18875
905.098	18722
905.216	18696
905.334	18696
905.451	18745
905.569	18593
905.686	18696
905.803	18627
905.921	18479
906.038	18635
906.155	18460
906.272	18350
906.389	18323
906.506	18220
906.623	18178
906.74	18178
906.857	18114
906.974	18034
907.091	18235
907.208	18281
907.324	18144
907.441	18174
907.557	17889
907.674	17897
907.79	17893
907.907	17832
908.023	18019
908.139	17855
908.256	17859
908.372	17840
908.488	17889
908.604	17691
908.72	17676
908.836	17680
908.952	17474
909.068	17695
909.184	17752
909.3	17695
909.415	17642
909.531	17577
909.647	17368
909.762	17273
909.878	17318
909.993	17383
910.108	17383
910.224	17181
910.339	17337
910.454	17189
910.57	17200
910.685	17071
910.8	17356
910.915	17250
911.03	17159
911.145	16820
911.259	16934
911.374	16854
911.489	16805
911.604	16717
911.718	16664
911.833	16599
911.947	16577
912.062	16512
912.176	16641
912.291	16668
912.405	16523
912.519	16862
912.633	16862
912.748	16618
912.862	16645
912.976	16447
913.09	16306
913.204	16462
913.318	16466
913.431	16565
913.545	16535
913.659	16558
913.772	16405
913.886	16322
914	16356
914.113	16348
914.226	16348
914.34	16325
914.453	16150
914.566	16234
914.68	16139
914.793	16036
914.906	15895
915.019	15873
915.132	15660
915.245	15785
915.358	15835
915.47	15861
915.583	15903
915.696	15861
915.809	15854
915.921	15838
916.034	15751
916.146	15770
916.259	15717
916.371	15739
916.483	15785
916.595	15641
916.708	15648
916.82	15724
916.932	15667
917.044	15629
917.156	15614
917.268	15416
917.38	15481
917.491	15412
917.603	15488
917.715	15622
917.826	15523
917.938	15340
918.049	15264
918.161	15397
918.272	15545
918.384	15485
918.495	15321
918.606	15245
918.717	15108
918.828	15252
918.939	15222
919.05	15135
919.161	15119
919.272	15001
919.383	15066
919.494	15192
919.604	15336
919.715	15184
919.826	15127
919.936	15195
920.047	15260
920.157	15188
920.267	15279
920.378	15176
920.488	15043
920.598	15374
920.708	15443
920.818	15336
920.928	15275
921.038	15424
921.148	15344
921.258	15039
921.368	15028
921.477	14918
921.587	14921
921.697	14777
921.806	14876
921.916	14659
922.025	14602
922.134	14560
922.244	14488
922.353	14480
922.462	14324
922.571	14339
922.68	14115
922.789	14134
922.898	14183
923.007	14145
923.116	14180
923.224	14092
923.333	14115
923.442	13970
923.55	13902
923.659	14008
923.767	14058
923.876	13963
923.984	13925
924.092	13837
924.201	13978
924.309	13841
924.417	13887
924.525	13715
924.633	13818
924.741	14503
924.849	13556
924.956	13689
925.064	13639
925.172	13453
925.279	13506
925.387	13552
925.494	13514
925.602	13639
925.709	13605
925.816	13407
925.924	13514
926.031	13453
926.138	13476
926.245	13563
926.352	13320
926.459	13476
926.566	13544
926.673	13438
926.779	13244
926.886	13270
926.993	13183
927.099	13114
927.206	13000
927.312	13023
927.419	13114
927.525	13095
927.631	13072
927.737	12981
927.843	12939
927.95	12779
928.056	12867
928.162	12989
928.267	12901
928.373	13548
928.479	12810
928.585	12665
928.69	12798
928.796	12901
928.901	12802
929.007	12559
929.112	12738
929.218	12650
929.323	12623
929.428	12620
929.533	12696
929.638	12604
929.743	12551
929.848	12509
929.953	12559
930.058	12422
930.163	12254
930.267	12296
930.372	12426
930.477	12239
930.581	12490
930.685	12350
930.79	12194
930.894	12106
930.998	12121
931.103	12342
931.207	11855
931.311	11764
931.415	11688
931.519	11535
931.623	11509
