Data from test_V78500241_2455.txt Node
Date: Fri Mar 25 15:58:48 CST 2022
User: usil
Spectrometer: V785-0024
Trigger mode: 0
Integration Time (sec): 4.000000E-1
Scans to average: 1
Nonlinearity correction enabled: false
Boxcar width: 0
Storing dark spectrum: false
XAxis mode: Wavelengths
Number of Pixels in Spectrum: 1024
>>>>>Begin Spectral Data<<<<<
801.071	29022
801.214	28980
801.356	28706
801.499	28736
801.641	28713
801.783	28710
801.926	28664
802.068	28538
802.211	28519
802.353	28759
802.496	28394
802.638	28367
802.78	28246
802.923	28280
803.065	28204
803.208	28238
803.35	28417
803.492	28405
803.635	28706
803.777	28432
803.919	28592
804.061	28873
804.204	28691
804.346	28607
804.488	28466
804.63	28634
804.773	28546
804.915	28694
805.057	28854
805.199	28618
805.341	28702
805.483	28801
805.626	28637
805.768	28664
805.91	28721
806.052	28748
806.194	28805
806.336	28930
806.478	28725
806.62	28752
806.762	29022
806.904	29079
807.046	29223
807.188	29151
807.33	29322
807.472	29360
807.614	29052
807.756	29254
807.898	29140
808.04	29067
808.182	29178
808.324	29174
808.465	29155
808.607	29421
808.749	29440
808.891	29535
809.033	29615
809.174	29493
809.316	29448
809.458	29455
809.6	29395
809.741	29615
809.883	29615
810.025	29889
810.166	29802
810.308	29805
810.45	29859
810.591	29798
810.733	29589
810.875	29497
811.016	29258
811.158	29471
811.299	29653
811.441	29790
811.582	29672
811.724	29478
811.865	29528
812.007	29558
812.148	29444
812.29	29566
812.431	29547
812.573	29726
812.714	29988
812.855	30007
812.997	30300
813.138	30182
813.279	30243
813.421	30095
813.562	30007
813.703	29942
813.845	29745
813.986	29448
814.127	29307
814.268	29273
814.41	29299
814.551	29079
814.692	29231
814.833	29075
814.974	29235
815.115	29197
815.256	29025
815.397	28942
815.539	29235
815.68	28965
815.821	28957
815.962	28995
816.103	29083
816.244	29014
816.385	28896
816.526	28717
816.666	28649
816.807	28637
816.948	28679
817.089	28687
817.23	28641
817.371	28565
817.512	28565
817.653	28481
817.793	28630
817.934	28550
818.075	28500
818.216	28466
818.356	28645
818.497	28428
818.638	28268
818.778	28230
818.919	28234
819.06	28459
819.2	28542
819.341	28641
819.481	28436
819.622	28824
819.762	28930
819.903	28835
820.043	28820
820.184	28763
820.324	28565
820.465	28778
820.605	28767
820.746	28721
820.886	28611
821.026	28664
821.167	28634
821.307	28668
821.447	28611
821.588	28542
821.728	28401
821.868	28185
822.008	28128
822.149	28063
822.289	27956
822.429	27846
822.569	27732
822.709	27808
822.849	27557
822.99	27603
823.13	27660
823.27	27481
823.41	27370
823.55	27184
823.69	27427
823.83	27275
823.97	27325
824.11	27226
824.25	27154
824.389	27089
824.529	27233
824.669	27245
824.809	27363
824.949	27427
825.089	27184
825.228	27321
825.368	26963
825.508	27066
825.648	27024
825.787	27077
825.927	27195
826.067	27081
826.206	27116
826.346	27127
826.485	27222
826.625	27066
826.765	27260
826.904	27188
827.044	26853
827.183	26868
827.323	26739
827.462	26887
827.601	26906
827.741	26807
827.88	26724
828.02	26602
828.159	26811
828.298	26834
828.437	26758
828.577	26701
828.716	26788
828.855	26659
828.994	26579
829.134	26434
829.273	26476
829.412	26476
829.551	26347
829.69	26381
829.829	26511
829.968	26526
830.107	26480
830.246	26446
830.385	26484
830.524	26328
830.663	26294
830.802	26240
830.941	26172
831.08	25947
831.219	26168
831.357	26069
831.496	26370
831.635	26043
831.774	25974
831.913	26046
832.051	25887
832.19	25856
832.329	25833
832.467	25662
832.606	25651
832.744	25712
832.883	25826
833.022	25563
833.16	25814
833.299	25909
833.437	25700
833.576	25795
833.714	25856
833.852	26016
833.991	25921
834.129	25860
834.267	25864
834.406	25795
834.544	25879
834.682	25803
834.821	25875
834.959	26024
835.097	25784
835.235	25738
835.373	25906
835.511	25894
835.65	25639
835.788	25696
835.926	25578
836.064	25373
836.202	25457
836.34	25628
836.478	25791
836.615	25658
836.753	25742
836.891	25727
837.029	25601
837.167	25441
837.305	25525
837.443	25438
837.58	25457
837.718	25552
837.856	25392
837.993	25388
838.131	25468
838.269	25411
838.406	25362
838.544	25308
838.681	25194
838.819	25099
838.956	24878
839.094	24973
839.231	25004
839.369	25038
839.506	25304
839.643	25175
839.781	24909
839.918	24882
840.055	24817
840.193	24890
840.33	24905
840.467	24802
840.604	24696
840.742	25114
840.879	24665
841.016	24749
841.153	24867
841.29	24920
841.427	24825
841.564	24719
841.701	24730
841.838	24772
841.975	24665
842.112	24764
842.249	24715
842.385	24532
842.522	24821
842.659	24673
842.796	24681
842.933	24505
843.069	24688
843.206	24418
843.343	24677
843.479	24673
843.616	24486
843.752	24369
843.889	24498
844.025	24521
844.162	24254
844.298	24311
844.435	24277
844.571	24266
844.708	24407
844.844	24456
844.98	24631
845.117	24369
845.253	24369
845.389	24114
845.525	24251
845.661	24194
845.798	24026
845.934	24155
846.07	24076
846.206	24095
846.342	24262
846.478	24007
846.614	23878
846.75	23817
846.886	23866
847.022	23840
847.158	23824
847.294	23767
847.429	23790
847.565	23729
847.701	24129
847.837	23577
847.972	23414
848.108	23577
848.244	23634
848.379	23474
848.515	23322
848.65	23220
848.786	23425
848.921	23395
849.057	23417
849.192	23436
849.328	23273
849.463	23356
849.598	23383
849.734	23318
849.869	23029
850.004	23140
850.14	23216
850.275	23189
850.41	23014
850.545	23003
850.68	23147
850.815	23067
850.95	23140
851.085	23292
851.22	23398
851.355	23067
851.49	23189
851.625	23121
851.76	23113
851.895	23018
852.03	23075
852.165	23124
852.299	23094
852.434	23185
852.569	23216
852.703	23105
852.838	23280
852.973	23181
853.107	23288
853.242	23086
853.376	23079
853.511	22843
853.645	22889
853.78	23185
853.914	22934
854.048	22839
854.183	22976
854.317	22850
854.451	23261
854.585	22968
854.72	22850
854.854	22961
854.988	22984
855.122	22968
855.256	22786
855.39	22976
855.524	22850
855.658	22942
855.792	23003
855.926	22995
856.06	23060
856.194	22980
856.327	22839
856.461	22854
856.595	22885
856.729	22919
856.862	23166
856.996	22980
857.13	22980
857.263	23086
857.397	23025
857.53	22934
857.664	23029
857.797	22915
857.931	22995
858.064	22908
858.197	23124
858.331	22995
858.464	22885
858.597	22908
858.731	22911
858.864	22957
858.997	23041
859.13	22942
859.263	22919
859.396	22946
859.529	22805
859.662	22976
859.795	22976
859.928	22953
860.061	23113
860.194	23200
860.327	23094
860.46	22919
860.592	23037
860.725	23273
860.858	23064
860.99	22946
861.123	23014
861.256	22984
861.388	22927
861.521	23847
861.653	22755
861.786	22793
861.918	22755
862.05	22900
862.183	22904
862.315	22919
862.447	23025
862.58	22793
862.712	22713
862.844	22554
862.976	22828
863.108	22744
863.24	22908
863.372	22584
863.504	22660
863.636	22565
863.768	22588
863.9	22679
864.032	22618
864.164	22683
864.296	22584
864.428	22809
864.559	22683
864.691	22862
864.823	22535
864.954	22580
865.086	22550
865.217	22531
865.349	22390
865.48	22615
865.612	22527
865.743	22550
865.875	22630
866.006	22569
866.137	22516
866.269	22440
866.4	22645
866.531	22367
866.662	22291
866.793	22409
866.924	22561
867.055	22379
867.186	22462
867.317	22440
867.448	22413
867.579	22447
867.71	22382
867.841	22295
867.972	22493
868.103	22352
868.233	22424
868.364	22447
868.495	22557
868.625	22656
868.756	22744
868.886	22744
869.017	22603
869.147	22637
869.278	22869
869.408	22740
869.539	22687
869.669	22596
869.799	22809
869.929	22774
870.06	22930
870.19	22949
870.32	22987
870.45	22999
870.58	23098
870.71	23086
870.84	23140
870.97	23124
871.1	22949
871.23	23273
871.36	23280
871.489	23162
871.619	23254
871.749	23212
871.879	23353
872.008	23288
872.138	23417
872.267	23277
872.397	23102
872.526	23170
872.656	23170
872.785	23067
872.915	23341
873.044	23299
873.173	23326
873.303	23239
873.432	23429
873.561	23528
873.69	23296
873.819	23239
873.948	23353
874.077	23315
874.206	23246
874.335	23292
874.464	23368
874.593	23463
874.722	23444
874.851	23581
874.979	23459
875.108	23604
875.237	23455
875.365	23334
875.494	23528
875.623	23558
875.751	23493
875.88	23570
876.008	23558
876.136	23798
876.265	23984
876.393	24030
876.521	24018
876.65	24064
876.778	23901
876.906	24003
877.034	24030
877.162	23821
877.29	23752
877.418	23783
877.546	23870
877.674	23954
877.802	23840
877.93	23893
878.058	23775
878.185	23726
878.313	23786
878.441	23863
878.568	23630
878.696	23916
878.824	23866
878.951	23961
879.079	24045
879.206	24106
879.333	23946
879.461	23790
879.588	24049
879.715	23980
879.842	24163
879.97	23916
880.097	23687
880.224	23520
880.351	23726
880.478	23634
880.605	23589
880.732	23596
880.859	23927
880.986	23634
881.112	23680
881.239	23429
881.366	23429
881.493	23410
881.619	23208
881.746	23330
881.872	23170
881.999	23143
882.125	23261
882.252	23239
882.378	23261
882.505	23372
882.631	23029
882.757	22854
882.883	22946
883.01	22839
883.136	22923
883.262	22828
883.388	22782
883.514	22892
883.64	22991
883.766	22759
883.892	22637
884.018	22733
884.143	22816
884.269	22908
884.395	22523
884.52	22489
884.646	22603
884.772	22531
884.897	22424
885.023	22504
885.148	22729
885.274	22653
885.399	22618
885.524	22382
885.65	22523
885.775	22497
885.9	22443
886.025	22573
886.15	22500
886.275	22531
886.4	22398
886.525	22516
886.65	22478
886.775	22516
886.9	22561
887.025	22672
887.149	22386
887.274	22306
887.399	22268
887.523	22348
887.648	22196
887.773	22169
887.897	22379
888.021	22257
888.146	22238
888.27	22356
888.395	22295
888.519	22322
888.643	22402
888.767	22398
888.891	22223
889.015	22150
889.139	22219
889.263	22090
889.387	22078
889.511	22287
889.635	22215
889.759	22097
889.883	22116
890.006	22059
890.13	22230
890.254	21953
890.377	21899
890.501	21865
890.624	21728
890.748	21865
890.871	21705
890.995	21564
891.118	21431
891.241	21698
891.364	21568
891.488	21743
891.611	21610
891.734	21595
891.857	21724
891.98	21625
892.103	21622
892.226	21603
892.349	21454
892.471	21496
892.594	21523
892.717	21549
892.839	21454
892.962	21469
893.085	21530
893.207	21492
893.33	21428
893.452	21428
893.575	21515
893.697	21549
893.819	21648
893.941	21629
894.064	21572
894.186	21481
894.308	21469
894.43	21603
894.552	21576
894.674	21435
894.796	21401
894.918	21416
895.04	21462
895.161	21481
895.283	21526
895.405	21420
895.526	21530
895.648	21469
895.769	21515
895.891	21500
896.012	21443
896.134	21447
896.255	21428
896.376	21412
896.498	21443
896.619	21481
896.74	21568
896.861	21485
896.982	21690
897.103	21835
897.224	21701
897.345	21717
897.466	21610
897.587	21652
897.708	21743
897.828	21644
897.949	21462
898.07	21500
898.19	21511
898.311	21751
898.431	21629
898.552	21614
898.672	21675
898.792	21766
898.913	21663
899.033	21625
899.153	21431
899.273	21389
899.393	21306
899.513	21458
899.633	21431
899.753	21370
899.873	21260
899.993	21355
900.113	21275
900.232	21260
900.352	21207
900.472	21249
900.591	21127
900.711	21245
900.83	20994
900.95	21317
901.069	21199
901.189	21066
901.308	20682
901.427	20693
901.546	20686
901.665	20727
901.784	20800
901.904	20465
902.023	20564
902.141	20317
902.26	20301
902.379	20381
902.498	20221
902.617	20122
902.735	20244
902.854	20161
902.973	20035
903.091	19978
903.21	19780
903.328	19837
903.446	19784
903.565	19586
903.683	19632
903.801	19620
903.919	19548
904.038	19658
904.156	19422
904.274	19457
904.392	19430
904.51	19407
904.627	19282
904.745	19415
904.863	19430
904.981	19190
905.098	19095
905.216	19061
905.334	19160
905.451	18993
905.569	19042
905.686	19072
905.803	19004
905.921	18700
906.038	18977
906.155	18798
906.272	18722
906.389	18779
906.506	18551
906.623	18635
906.74	18760
906.857	18540
906.974	18471
907.091	18658
907.208	18669
907.324	18544
907.441	18407
907.557	18323
907.674	18277
907.79	18232
907.907	18296
908.023	18228
908.139	18403
908.256	18330
908.372	18060
908.488	18167
908.604	18076
908.72	17885
908.836	18072
908.952	17958
909.068	18034
909.184	18155
909.3	18030
909.415	17984
909.531	17984
909.647	17775
909.762	17764
909.878	17608
909.993	17699
910.108	17619
910.224	17653
910.339	17707
910.454	17638
910.57	17452
910.685	17478
910.8	17783
910.915	17672
911.03	17387
911.145	17372
911.259	17269
911.374	17315
911.489	17151
911.604	17181
911.718	17025
911.833	17048
911.947	16892
912.062	16854
912.176	17090
912.291	16919
912.405	17022
912.519	17189
912.633	17307
912.748	16972
912.862	16854
912.976	16774
913.09	16702
913.204	16752
913.318	16793
913.431	16843
913.545	16805
913.659	16885
913.772	16675
913.886	16664
914	16580
914.113	16626
914.226	16702
914.34	16649
914.453	16474
914.566	16538
914.68	16451
914.793	16436
914.906	16223
915.019	16265
915.132	16063
915.245	16093
915.358	16116
915.47	16158
915.583	16093
915.696	16112
915.809	16306
915.921	16276
916.034	16074
916.146	16051
916.259	16002
916.371	16093
916.483	16101
916.595	16036
916.708	16082
916.82	15907
916.932	16002
917.044	15956
917.156	15869
917.268	15770
917.38	15895
917.491	15797
917.603	15793
917.715	15831
917.826	15953
917.938	15656
918.049	15584
918.161	15656
918.272	15861
918.384	15842
918.495	15743
918.606	15568
918.717	15610
918.828	15485
918.939	15614
919.05	15450
919.161	15393
919.272	15313
919.383	15306
919.494	15473
919.604	15739
919.715	15462
919.826	15401
919.936	15447
920.047	15500
920.157	15389
920.267	15625
920.378	15485
920.488	15450
920.598	15595
920.708	15732
920.818	15568
920.928	15587
921.038	15800
921.148	15633
921.258	15367
921.368	15378
921.477	15173
921.587	15127
921.697	15085
921.806	15184
921.916	15058
922.025	14857
922.134	14769
922.244	14735
922.353	14872
922.462	14697
922.571	14674
922.68	14545
922.789	14366
922.898	14415
923.007	14423
923.116	14427
923.224	14488
923.333	14438
923.442	14259
923.55	14282
923.659	14248
923.767	14389
923.876	14176
923.984	14271
924.092	14195
924.201	14130
924.309	14210
924.417	14084
924.525	14145
924.633	14088
924.741	14872
924.849	13871
924.956	13993
925.064	13944
925.172	13807
925.279	13887
925.387	13841
925.494	13894
925.602	14054
925.709	13837
925.816	13689
925.924	13750
926.031	13746
926.138	13750
926.245	13769
926.352	13689
926.459	13807
926.566	13704
926.673	13658
926.779	13502
926.886	13480
926.993	13449
927.099	13327
927.206	13327
927.312	13316
927.419	13415
927.525	13320
927.631	13274
927.737	13247
927.843	13194
927.95	13012
928.056	13133
928.162	13221
928.267	13225
928.373	13887
928.479	13171
928.585	12924
928.69	13084
928.796	13156
928.901	12859
929.007	12935
929.112	12962
929.218	12863
929.323	12913
929.428	12878
929.533	12928
929.638	12802
929.743	12787
929.848	12871
929.953	12802
930.058	12684
930.163	12498
930.267	12597
930.372	12741
930.477	12445
930.581	12627
930.685	12582
930.79	12395
930.894	12467
930.998	12407
931.103	12555
931.207	12106
931.311	12064
931.415	11912
931.519	11813
931.623	11764
