Data from test_V78500241_1623.txt Node
Date: Fri Mar 25 15:53:02 CST 2022
User: usil
Spectrometer: V785-0024
Trigger mode: 0
Integration Time (sec): 4.000000E-1
Scans to average: 1
Nonlinearity correction enabled: false
Boxcar width: 0
Storing dark spectrum: false
XAxis mode: Wavelengths
Number of Pixels in Spectrum: 1024
>>>>>Begin Spectral Data<<<<<
801.071	28299
801.214	28135
801.356	27987
801.499	27998
801.641	27797
801.783	27899
801.926	27911
802.068	27778
802.211	27698
802.353	27751
802.496	27637
802.638	27466
802.78	27431
802.923	27534
803.065	27226
803.208	27526
803.35	27576
803.492	27679
803.635	27656
803.777	27686
803.919	27492
804.061	28055
804.204	27759
804.346	27690
804.488	27606
804.63	27709
804.773	27504
804.915	27736
805.057	27728
805.199	27694
805.341	27850
805.483	27808
805.626	27827
805.768	27717
805.91	27926
806.052	27850
806.194	27736
806.336	28029
806.478	27880
806.62	27892
806.762	27918
806.904	28006
807.046	28295
807.188	28219
807.33	28257
807.472	28333
807.614	28188
807.756	28268
807.898	28196
808.04	28196
808.182	28063
808.324	28112
808.465	28318
808.607	28588
808.749	28478
808.891	28599
809.033	28668
809.174	28489
809.316	28401
809.458	28611
809.6	28508
809.741	28706
809.883	28538
810.025	28790
810.166	28733
810.308	28896
810.45	28786
810.591	28664
810.733	28538
810.875	28584
811.016	28268
811.158	28443
811.299	28508
811.441	28691
811.582	28691
811.724	28527
811.865	28401
812.007	28447
812.148	28481
812.29	28656
812.431	28683
812.573	28923
812.714	28930
812.855	29018
812.997	29178
813.138	29193
813.279	29189
813.421	29025
813.562	28980
813.703	28854
813.845	28809
813.986	28470
814.127	28341
814.268	28280
814.41	28272
814.551	28276
814.692	28341
814.833	28276
814.974	28147
815.115	28131
815.256	28112
815.397	28063
815.539	28105
815.68	28013
815.821	28048
815.962	27975
816.103	28013
816.244	27972
816.385	27778
816.526	27641
816.666	27622
816.807	27523
816.948	27583
817.089	27618
817.23	27545
817.371	27534
817.512	27367
817.653	27694
817.793	27466
817.934	27568
818.075	27511
818.216	27504
818.356	27420
818.497	27447
818.638	27154
818.778	27363
818.919	27408
819.06	27310
819.2	27450
819.341	27542
819.481	27515
819.622	27667
819.762	27720
819.903	27606
820.043	27736
820.184	27804
820.324	27583
820.465	27618
820.605	27610
820.746	27603
820.886	27443
821.026	27568
821.167	27656
821.307	27648
821.447	27507
821.588	27348
821.728	27249
821.868	27207
822.008	26975
822.149	26834
822.289	27100
822.429	26686
822.569	26777
822.709	26636
822.849	26511
822.99	26473
823.13	26511
823.27	26389
823.41	26252
823.55	26320
823.69	26393
823.83	26286
823.97	26381
824.11	26062
824.25	26107
824.389	26058
824.529	26138
824.669	26130
824.809	26282
824.949	26290
825.089	26210
825.228	26225
825.368	26062
825.508	25989
825.648	26027
825.787	26119
825.927	25932
826.067	25887
826.206	26027
826.346	25986
826.485	26050
826.625	25913
826.765	26115
826.904	25883
827.044	25803
827.183	25746
827.323	25761
827.462	25738
827.601	25719
827.741	25708
827.88	25761
828.02	25613
828.159	25635
828.298	25849
828.437	25791
828.577	25742
828.716	25822
828.855	25681
828.994	25407
829.134	25293
829.273	25434
829.412	25304
829.551	25419
829.69	25324
829.829	25422
829.968	25476
830.107	25419
830.246	25460
830.385	25297
830.524	25209
830.663	25133
830.802	25015
830.941	25069
831.08	25057
831.219	24954
831.357	25145
831.496	25251
831.635	25034
831.774	24772
831.913	24909
832.051	24859
832.19	24707
832.329	24757
832.467	24825
832.606	24760
832.744	24692
832.883	24764
833.022	24639
833.16	24745
833.299	24681
833.437	24646
833.576	24772
833.714	24719
833.852	24913
833.991	24783
834.129	24791
834.267	24760
834.406	24802
834.544	24867
834.682	24760
834.821	24753
834.959	25023
835.097	24779
835.235	24707
835.373	24696
835.511	24707
835.65	24559
835.788	24646
835.926	24380
836.064	24353
836.202	24418
836.34	24681
836.478	24616
836.615	24536
836.753	24513
836.891	24563
837.029	24623
837.167	24536
837.305	24407
837.443	24479
837.58	24376
837.718	24517
837.856	24437
837.993	24426
838.131	24308
838.269	24277
838.406	24330
838.544	24315
838.681	24015
838.819	24079
838.956	24121
839.094	23920
839.231	23901
839.369	24087
839.506	24194
839.643	24106
839.781	23874
839.918	23805
840.055	23866
840.193	23843
840.33	23882
840.467	23756
840.604	23767
840.742	23885
840.879	23767
841.016	23695
841.153	23741
841.29	23920
841.427	23874
841.564	23821
841.701	23680
841.838	23668
841.975	23638
842.112	23710
842.249	23653
842.385	23585
842.522	23764
842.659	23611
842.796	23425
842.933	23509
843.069	23493
843.206	23524
843.343	23539
843.479	23459
843.616	23634
843.752	23383
843.889	23368
844.025	23421
844.162	23261
844.298	23410
844.435	23242
844.571	23284
844.708	23296
844.844	23452
844.98	23554
845.117	23482
845.253	23254
845.389	23223
845.525	23269
845.661	23071
845.798	23041
845.934	23071
846.07	22930
846.206	23067
846.342	23174
846.478	23003
846.614	22809
846.75	22668
846.886	22809
847.022	22885
847.158	22755
847.294	22736
847.429	22831
847.565	22763
847.701	22995
847.837	22470
847.972	22470
848.108	22626
848.244	22637
848.379	22424
848.515	22421
848.65	22303
848.786	22322
848.921	22325
849.057	22508
849.192	22390
849.328	22382
849.463	22337
849.598	22287
849.734	22238
849.869	22219
850.004	22135
850.14	22051
850.275	22139
850.41	22093
850.545	22067
850.68	22002
850.815	22150
850.95	22097
851.085	22276
851.22	22139
851.355	22109
851.49	22112
851.625	22101
851.76	22173
851.895	22131
852.03	22090
852.165	22051
852.299	22120
852.434	22211
852.569	22207
852.703	22040
852.838	22200
852.973	22284
853.107	22150
853.242	22025
853.376	21987
853.511	21789
853.645	21930
853.78	21983
853.914	21911
854.048	21926
854.183	21926
854.317	21975
854.451	22112
854.585	21926
854.72	21987
854.854	21998
854.988	21865
855.122	21956
855.256	21850
855.39	21991
855.524	21983
855.658	21991
855.792	21972
855.926	21937
856.06	21994
856.194	21964
856.327	21987
856.461	21930
856.595	21949
856.729	21823
856.862	21979
856.996	21956
857.13	22036
857.263	22017
857.397	21983
857.53	21945
857.664	21911
857.797	21873
857.931	21983
858.064	22067
858.197	22181
858.331	21850
858.464	21949
858.597	21880
858.731	21930
858.864	21979
858.997	21911
859.13	21884
859.263	22169
859.396	22032
859.529	21880
859.662	21869
859.795	21907
859.928	21956
860.061	21991
860.194	22082
860.327	21998
860.46	21907
860.592	21991
860.725	22017
860.858	22128
860.99	22017
861.123	21804
861.256	21895
861.388	21873
861.521	22584
861.653	21911
861.786	21728
861.918	21816
862.05	21857
862.183	21899
862.315	21793
862.447	21804
862.58	21762
862.712	21648
862.844	21675
862.976	21682
863.108	21694
863.24	21903
863.372	21557
863.504	21675
863.636	21606
863.768	21671
863.9	21637
864.032	21652
864.164	21641
864.296	21652
864.428	21701
864.559	21747
864.691	21713
864.823	21656
864.954	21610
865.086	21732
865.217	21473
865.349	21408
865.48	21545
865.612	21538
865.743	21580
865.875	21530
866.006	21496
866.137	21519
866.269	21542
866.4	21526
866.531	21568
866.662	21488
866.793	21481
866.924	21408
867.055	21587
867.186	21511
867.317	21428
867.448	21481
867.579	21450
867.71	21374
867.841	21428
867.972	21450
868.103	21447
868.233	21386
868.364	21488
868.495	21583
868.625	21633
868.756	21873
868.886	21515
869.017	21599
869.147	21774
869.278	21641
869.408	21679
869.539	21663
869.669	21861
869.799	21641
869.929	21857
870.06	21835
870.19	22032
870.32	21899
870.45	22166
870.58	22131
870.71	22200
870.84	22181
870.97	21983
871.1	22169
871.23	22375
871.36	22356
871.489	22196
871.619	22188
871.749	22234
871.879	22234
872.008	22314
872.138	22287
872.267	22363
872.397	22223
872.526	22032
872.656	22211
872.785	22192
872.915	22447
873.044	22325
873.173	22314
873.303	22299
873.432	22413
873.561	22538
873.69	22379
873.819	22299
873.948	22382
874.077	22325
874.206	22322
874.335	22253
874.464	22436
874.593	22580
874.722	22580
874.851	22485
874.979	22462
875.108	22729
875.237	22402
875.365	22538
875.494	22523
875.623	22630
875.751	22531
875.88	22508
876.008	22649
876.136	22736
876.265	22976
876.393	23037
876.521	23086
876.65	23041
876.778	22961
876.906	22797
877.034	22896
877.162	22923
877.29	22843
877.418	22900
877.546	22900
877.674	22873
877.802	22991
877.93	22805
878.058	22847
878.185	22892
878.313	22946
878.441	22892
878.568	22710
878.696	22759
878.824	22774
878.951	22946
879.079	23079
879.206	23204
879.333	23014
879.461	22984
879.588	22949
879.715	23071
879.842	23147
879.97	22930
880.097	22725
880.224	22664
880.351	22672
880.478	22786
880.605	22687
880.732	22733
880.859	22934
880.986	22717
881.112	22809
881.239	22626
881.366	22516
881.493	22341
881.619	22329
881.746	22162
881.872	22337
881.999	22306
882.125	22181
882.252	22223
882.378	22287
882.505	22413
882.631	22120
882.757	22006
882.883	22116
883.01	21930
883.136	21823
883.262	21812
883.388	21800
883.514	22021
883.64	22105
883.766	21873
883.892	21751
884.018	21751
884.143	21956
884.269	21975
884.395	21618
884.52	21679
884.646	21580
884.772	21542
884.897	21671
885.023	21523
885.148	21720
885.274	21854
885.399	21667
885.524	21538
885.65	21625
885.775	21553
885.9	21648
886.025	21724
886.15	21675
886.275	21504
886.4	21431
886.525	21652
886.65	21557
886.775	21526
886.9	21724
887.025	21918
887.149	21481
887.274	21473
887.399	21313
887.523	21355
887.648	21367
887.773	21359
887.897	21408
888.021	21336
888.146	21439
888.27	21420
888.395	21420
888.519	21439
888.643	21363
888.767	21454
888.891	21329
889.015	21275
889.139	21207
889.263	21085
889.387	21184
889.511	21401
889.635	21249
889.759	21020
889.883	21188
890.006	21252
890.13	21340
890.254	21195
890.377	21077
890.501	20933
890.624	20868
890.748	21001
890.871	20807
890.995	20708
891.118	20674
891.241	20746
891.364	20663
891.488	20807
891.611	20743
891.734	20682
891.857	20838
891.98	20670
892.103	20796
892.226	20758
892.349	20609
892.471	20526
892.594	20640
892.717	20667
892.839	20644
892.962	20644
893.085	20769
893.207	20625
893.33	20541
893.452	20533
893.575	20625
893.697	20587
893.819	20735
893.941	20750
894.064	20674
894.186	20511
894.308	20473
894.43	20663
894.552	20800
894.674	20735
894.796	20564
894.918	20545
895.04	20575
895.161	20613
895.283	20530
895.405	20503
895.526	20621
895.648	20530
895.769	20632
895.891	20727
896.012	20686
896.134	20689
896.255	20533
896.376	20655
896.498	20663
896.619	20705
896.74	20552
896.861	20716
896.982	20887
897.103	21062
897.224	20975
897.345	20864
897.466	20712
897.587	20842
897.708	20933
897.828	20807
897.949	20785
898.07	20602
898.19	20800
898.311	20849
898.431	20689
898.552	20872
898.672	20880
898.792	20853
898.913	20823
899.033	20800
899.153	20617
899.273	20545
899.393	20629
899.513	20663
899.633	20556
899.753	20552
899.873	20609
899.993	20606
900.113	20492
900.232	20431
900.352	20412
900.472	20442
900.591	20301
900.711	20366
900.83	20294
900.95	20412
901.069	20511
901.189	20309
901.308	19982
901.427	19947
901.546	19909
901.665	19841
901.784	19917
901.904	19940
902.023	19670
902.141	19464
902.26	19415
902.379	19540
902.498	19556
902.617	19324
902.735	19453
902.854	19400
902.973	19362
903.091	19175
903.21	19038
903.328	19061
903.446	19107
903.565	18856
903.683	18856
903.801	18768
903.919	18840
904.038	18852
904.156	18734
904.274	18783
904.392	18669
904.51	18642
904.627	18601
904.745	18650
904.863	18730
904.981	18376
905.098	18414
905.216	18308
905.334	18350
905.451	18369
905.569	18357
905.686	18350
905.803	18205
905.921	18114
906.038	18201
906.155	18098
906.272	18102
906.389	18102
906.506	17908
906.623	17958
906.74	17836
906.857	17752
906.974	17726
907.091	17889
907.208	17923
907.324	17927
907.441	17764
907.557	17687
907.674	17562
907.79	17596
907.907	17509
908.023	17573
908.139	17585
908.256	17535
908.372	17471
908.488	17410
908.604	17315
908.72	17174
908.836	17318
908.952	17242
909.068	17284
909.184	17349
909.3	17231
909.415	17299
909.531	17143
909.647	16972
909.762	17010
909.878	16938
909.993	16991
910.108	16953
910.224	16858
910.339	16976
910.454	16835
910.57	16759
910.685	16755
910.8	16953
910.915	16927
911.03	16694
911.145	16653
911.259	16664
911.374	16523
911.489	16440
911.604	16405
911.718	16379
911.833	16371
911.947	16200
912.062	16112
912.176	16211
912.291	16363
912.405	16204
912.519	16466
912.633	16436
912.748	16398
912.862	16306
912.976	16097
913.09	16029
913.204	16097
913.318	16059
913.431	16246
913.545	16204
913.659	16204
913.772	16032
913.886	15884
914	15892
914.113	15964
914.226	16105
914.34	15911
914.453	15785
914.566	15884
914.68	15743
914.793	15774
914.906	15485
915.019	15515
915.132	15428
915.245	15477
915.358	15492
915.47	15584
915.583	15462
915.696	15542
915.809	15530
915.921	15564
916.034	15329
916.146	15355
916.259	15435
916.371	15469
916.483	15340
916.595	15298
916.708	15416
916.82	15241
916.932	15298
917.044	15291
917.156	15268
917.268	15241
917.38	15211
917.491	15017
917.603	15093
917.715	15218
917.826	15207
917.938	15135
918.049	14952
918.161	15051
918.272	15131
918.384	15188
918.495	14998
918.606	14910
918.717	14914
918.828	14929
918.939	14921
919.05	14712
919.161	14834
919.272	14640
919.383	14701
919.494	14967
919.604	15070
919.715	14857
919.826	14667
919.936	14918
920.047	14998
920.157	14910
920.267	15043
920.378	14845
920.488	14830
920.598	15009
920.708	15169
920.818	15051
920.928	14921
921.038	15165
921.148	15024
921.258	14796
921.368	14686
921.477	14632
921.587	14648
921.697	14438
921.806	14617
921.916	14473
922.025	14256
922.134	14225
922.244	14092
922.353	14301
922.462	14142
922.571	14092
922.68	13925
922.789	13826
922.898	13894
923.007	13753
923.116	13932
923.224	13875
923.333	13795
923.442	13715
923.55	13681
923.659	13693
923.767	13700
923.876	13563
923.984	13784
924.092	13556
924.201	13643
924.309	13586
924.417	13643
924.525	13601
924.633	13544
924.741	14522
924.849	13362
924.956	13464
925.064	13346
925.172	13266
925.279	13225
925.387	13285
925.494	13289
925.602	13453
925.709	13331
925.816	13187
925.924	13255
926.031	13316
926.138	13141
926.245	13266
926.352	13095
926.459	13293
926.566	13266
926.673	13202
926.779	13095
926.886	12962
926.993	12810
927.099	12890
927.206	12829
927.312	12768
927.419	12905
927.525	12829
927.631	12856
927.737	12623
927.843	12696
927.95	12578
928.056	12681
928.162	12696
928.267	12791
928.373	13358
928.479	12772
928.585	12437
928.69	12559
928.796	12635
928.901	12597
929.007	12372
929.112	12563
929.218	12544
929.323	12403
929.428	12372
929.533	12528
929.638	12277
929.743	12365
929.848	12330
929.953	12235
930.058	12323
930.163	12076
930.267	12022
930.372	12114
930.477	11954
930.581	12190
930.685	12125
930.79	11999
930.894	12003
930.998	11950
931.103	12064
931.207	11615
931.311	11585
931.415	11478
931.519	11337
931.623	11223
