Data from test_V78500241_591.txt Node
Date: Fri Mar 25 15:45:53 CST 2022
User: usil
Spectrometer: V785-0024
Trigger mode: 0
Integration Time (sec): 4.000000E-1
Scans to average: 1
Nonlinearity correction enabled: false
Boxcar width: 0
Storing dark spectrum: false
XAxis mode: Wavelengths
Number of Pixels in Spectrum: 1024
>>>>>Begin Spectral Data<<<<<
801.071	27523
801.214	27549
801.356	27283
801.499	27233
801.641	27047
801.783	27127
801.926	27195
802.068	27123
802.211	27089
802.353	26963
802.496	26792
802.638	26724
802.78	26845
802.923	26819
803.065	26724
803.208	26640
803.35	26750
803.492	26902
803.635	26895
803.777	26864
803.919	27024
804.061	27066
804.204	27043
804.346	26792
804.488	26716
804.63	26804
804.773	26708
804.915	26918
805.057	27009
805.199	26842
805.341	26910
805.483	27074
805.626	27089
805.768	26944
805.91	27146
806.052	26967
806.194	26921
806.336	27329
806.478	27203
806.62	27192
806.762	27150
806.904	27302
807.046	27557
807.188	27389
807.33	27359
807.472	27496
807.614	27408
807.756	27496
807.898	27382
808.04	27150
808.182	27310
808.324	27389
808.465	27370
808.607	27553
808.749	27606
808.891	27793
809.033	27861
809.174	27698
809.316	27641
809.458	27701
809.6	27682
809.741	27816
809.883	27781
810.025	28002
810.166	27861
810.308	27880
810.45	27975
810.591	27884
810.733	27625
810.875	27682
811.016	27701
811.158	27583
811.299	27770
811.441	27850
811.582	27743
811.724	27595
811.865	27568
812.007	27682
812.148	27606
812.29	27755
812.431	27895
812.573	28192
812.714	28044
812.855	28310
812.997	28219
813.138	28367
813.279	28295
813.421	28257
813.562	28200
813.703	28101
813.845	27842
813.986	27625
814.127	27488
814.268	27344
814.41	27378
814.551	27332
814.692	27351
814.833	27298
814.974	27249
815.115	27416
815.256	27100
815.397	27176
815.539	27222
815.68	27184
815.821	27146
815.962	27184
816.103	27157
816.244	26956
816.385	26807
816.526	26895
816.666	26659
816.807	26697
816.948	26686
817.089	26769
817.23	26716
817.371	26594
817.512	26579
817.653	26667
817.793	26507
817.934	26590
818.075	26526
818.216	26762
818.356	26514
818.497	26598
818.638	26294
818.778	26351
818.919	26389
819.06	26473
819.2	26526
819.341	26731
819.481	26503
819.622	26724
819.762	26887
819.903	26937
820.043	26746
820.184	26765
820.324	26811
820.465	26743
820.605	26830
820.746	26644
820.886	26609
821.026	26724
821.167	26769
821.307	26746
821.447	26716
821.588	26606
821.728	26453
821.868	26313
822.008	26168
822.149	26062
822.289	26145
822.429	25928
822.569	25723
822.709	25689
822.849	25704
822.99	25582
823.13	25670
823.27	25624
823.41	25514
823.55	25293
823.69	25453
823.83	25369
823.97	25388
824.11	25107
824.25	25171
824.389	25293
824.529	25308
824.669	25255
824.809	25240
824.949	25403
825.089	25331
825.228	25289
825.368	25023
825.508	25164
825.648	25107
825.787	25183
825.927	25164
826.067	25198
826.206	25023
826.346	25213
826.485	25133
826.625	25202
826.765	25148
826.904	25027
827.044	24840
827.183	24848
827.323	24783
827.462	24715
827.601	24863
827.741	24745
827.88	24848
828.02	24639
828.159	24798
828.298	24909
828.437	24878
828.577	24730
828.716	25027
828.855	24772
828.994	24517
829.134	24467
829.273	24608
829.412	24471
829.551	24467
829.69	24429
829.829	24566
829.968	24574
830.107	24525
830.246	24555
830.385	24433
830.524	24483
830.663	24289
830.802	24296
830.941	24220
831.08	24163
831.219	24205
831.357	24209
831.496	24281
831.635	24079
831.774	24182
831.913	23999
832.051	24140
832.19	23805
832.329	23935
832.467	23923
832.606	23794
832.744	23729
832.883	23729
833.022	23684
833.16	23760
833.299	23927
833.437	23866
833.576	23969
833.714	23885
833.852	23893
833.991	23882
834.129	23980
834.267	23859
834.406	23874
834.544	23866
834.682	23908
834.821	23760
834.959	23939
835.097	23760
835.235	23885
835.373	23866
835.511	23927
835.65	23642
835.788	23764
835.926	23627
836.064	23627
836.202	23547
836.34	23707
836.478	23722
836.615	23676
836.753	23604
836.891	23836
837.029	23737
837.167	23687
837.305	23566
837.443	23615
837.58	23691
837.718	23497
837.856	23558
837.993	23512
838.131	23516
838.269	23326
838.406	23509
838.544	23296
838.681	23212
838.819	23140
838.956	23041
839.094	22919
839.231	23140
839.369	23056
839.506	23398
839.643	23311
839.781	23037
839.918	22782
840.055	23010
840.193	22850
840.33	22805
840.467	23018
840.604	23003
840.742	23216
840.879	22847
841.016	22892
841.153	22740
841.29	22968
841.427	22953
841.564	23010
841.701	23006
841.838	22908
841.975	22797
842.112	22866
842.249	22801
842.385	22733
842.522	22961
842.659	22721
842.796	22577
842.933	22679
843.069	22656
843.206	22592
843.343	22687
843.479	22611
843.616	22698
843.752	22546
843.889	22428
844.025	22481
844.162	22417
844.298	22497
844.435	22440
844.571	22390
844.708	22519
844.844	22535
844.98	22405
845.117	22455
845.253	22379
845.389	22322
845.525	22455
845.661	22318
845.798	22093
845.934	22169
846.07	22116
846.206	22306
846.342	22390
846.478	22181
846.614	21884
846.75	21918
846.886	21869
847.022	21987
847.158	21934
847.294	21987
847.429	22006
847.565	21857
847.701	22063
847.837	21599
847.972	21545
848.108	21663
848.244	21743
848.379	21542
848.515	21526
848.65	21477
848.786	21561
848.921	21557
849.057	21660
849.192	21595
849.328	21587
849.463	21504
849.598	21435
849.734	21389
849.869	21431
850.004	21230
850.14	21283
850.275	21245
850.41	21195
850.545	21211
850.68	21192
850.815	21325
850.95	21195
851.085	21458
851.22	21374
851.355	21249
851.49	21370
851.625	21294
851.76	21264
851.895	21142
852.03	21180
852.165	21256
852.299	21302
852.434	21367
852.569	21340
852.703	21237
852.838	21317
852.973	21405
853.107	21325
853.242	21291
853.376	21116
853.511	21017
853.645	21108
853.78	21241
853.914	21081
854.048	20998
854.183	21157
854.317	21020
854.451	21154
854.585	21032
854.72	21028
854.854	21108
854.988	21066
855.122	21100
855.256	20990
855.39	21119
855.524	20998
855.658	21043
855.792	21096
855.926	21165
856.06	21116
856.194	21180
856.327	20956
856.461	21001
856.595	21070
856.729	21039
856.862	21218
856.996	21096
857.13	21066
857.263	21165
857.397	21214
857.53	21093
857.664	21313
857.797	21199
857.931	21287
858.064	21119
858.197	21199
858.331	20994
858.464	21062
858.597	21058
858.731	21116
858.864	21077
858.997	20998
859.13	21074
859.263	21131
859.396	21161
859.529	21085
859.662	21089
859.795	21047
859.928	21032
860.061	21237
860.194	21325
860.327	21123
860.46	21116
860.592	21302
860.725	21275
860.858	21173
860.99	21112
861.123	21005
861.256	20960
861.388	21176
861.521	21656
861.653	20990
861.786	20979
861.918	20979
862.05	21055
862.183	20979
862.315	20986
862.447	21100
862.58	20967
862.712	20910
862.844	20861
862.976	20887
863.108	20921
863.24	21321
863.372	20644
863.504	20777
863.636	20712
863.768	20880
863.9	20925
864.032	20815
864.164	20811
864.296	20956
864.428	20944
864.559	20929
864.691	20826
864.823	20910
864.954	20785
865.086	20800
865.217	20743
865.349	20769
865.48	20785
865.612	20834
865.743	20826
865.875	20914
866.006	20693
866.137	20701
866.269	20804
866.4	20724
866.531	20758
866.662	20720
866.793	20705
866.924	20693
867.055	20739
867.186	20655
867.317	20689
867.448	20606
867.579	20560
867.71	20598
867.841	20530
867.972	20602
868.103	20667
868.233	20724
868.364	20697
868.495	20819
868.625	20777
868.756	20944
868.886	20788
869.017	20876
869.147	21043
869.278	21028
869.408	21024
869.539	21024
869.669	20990
869.799	21066
869.929	21077
870.06	21013
870.19	21211
870.32	21123
870.45	21222
870.58	21332
870.71	21416
870.84	21416
870.97	21344
871.1	21211
871.23	21507
871.36	21507
871.489	21447
871.619	21462
871.749	21416
871.879	21587
872.008	21564
872.138	21511
872.267	21515
872.397	21363
872.526	21348
872.656	21370
872.785	21313
872.915	21496
873.044	21671
873.173	21500
873.303	21496
873.432	21507
873.561	21622
873.69	21504
873.819	21652
873.948	21614
874.077	21553
874.206	21523
874.335	21511
874.464	21637
874.593	21956
874.722	21751
874.851	21747
874.979	21736
875.108	21819
875.237	21724
875.365	21663
875.494	21762
875.623	21861
875.751	21720
875.88	21770
876.008	21945
876.136	21911
876.265	22131
876.393	22295
876.521	22207
876.65	22363
876.778	22154
876.906	22074
877.034	22021
877.162	22200
877.29	22063
877.418	22074
877.546	22177
877.674	22131
877.802	22078
877.93	22090
878.058	22070
878.185	22059
878.313	22051
878.441	22044
878.568	21873
878.696	22101
878.824	22204
878.951	22238
879.079	22169
879.206	22459
879.333	22204
879.461	22112
879.588	22223
879.715	22306
879.842	22398
879.97	22215
880.097	21869
880.224	22021
880.351	21945
880.478	21934
880.605	21918
880.732	21816
880.859	22173
880.986	21994
881.112	21972
881.239	21648
881.366	21698
881.493	21641
881.619	21523
881.746	21492
881.872	21561
881.999	21515
882.125	21378
882.252	21542
882.378	21481
882.505	21709
882.631	21313
882.757	21283
882.883	21256
883.01	21237
883.136	21249
883.262	21116
883.388	20998
883.514	21272
883.64	21313
883.766	21062
883.892	20895
884.018	21047
884.143	21192
884.269	21195
884.395	20952
884.52	20815
884.646	20910
884.772	20861
884.897	20712
885.023	20800
885.148	20910
885.274	20929
885.399	20845
885.524	20864
885.65	20891
885.775	20891
885.9	20777
886.025	21028
886.15	20948
886.275	20838
886.4	20739
886.525	20838
886.65	20712
886.775	20842
886.9	21005
887.025	21036
887.149	20830
887.274	20640
887.399	20625
887.523	20674
887.648	20514
887.773	20537
887.897	20765
888.021	20689
888.146	20541
888.27	20651
888.395	20739
888.519	20655
888.643	20724
888.767	20720
888.891	20522
889.015	20450
889.139	20454
889.263	20389
889.387	20492
889.511	20541
889.635	20568
889.759	20332
889.883	20450
890.006	20377
890.13	20514
890.254	20385
890.377	20355
890.501	20240
890.624	20138
890.748	20248
890.871	20058
890.995	19986
891.118	19967
891.241	19967
891.364	19993
891.488	20088
891.611	20024
891.734	19970
891.857	20027
891.98	20115
892.103	20111
892.226	19883
892.349	19925
892.471	19928
892.594	19944
892.717	19860
892.839	19871
892.962	19902
893.085	19932
893.207	19852
893.33	19936
893.452	19791
893.575	19932
893.697	19909
893.819	20024
893.941	20176
894.064	20096
894.186	19890
894.308	19875
894.43	20027
894.552	20107
894.674	20024
894.796	19803
894.918	19791
895.04	19909
895.161	20012
895.283	19928
895.405	19868
895.526	19856
895.648	19826
895.769	19944
895.891	20001
896.012	19909
896.134	20027
896.255	19932
896.376	19841
896.498	19925
896.619	19967
896.74	19925
896.861	19921
896.982	20294
897.103	20450
897.224	20180
897.345	20187
897.466	20153
897.587	20134
897.708	20229
897.828	20115
897.949	19997
898.07	20183
898.19	20115
898.311	20275
898.431	20153
898.552	20130
898.672	20229
898.792	20199
898.913	20248
899.033	20058
899.153	20084
899.273	19852
899.393	19837
899.513	19993
899.633	19864
899.753	19940
899.873	19921
899.993	19944
900.113	19837
900.232	19826
900.352	19811
900.472	19727
900.591	19575
900.711	19647
900.83	19620
900.95	19681
901.069	19795
901.189	19525
901.308	19365
901.427	19270
901.546	19373
901.665	19339
901.784	19350
901.904	19145
902.023	19004
902.141	18863
902.26	18848
902.379	18833
902.498	18753
902.617	18681
902.735	18958
902.854	18719
902.973	18692
903.091	18555
903.21	18384
903.328	18494
903.446	18254
903.565	18213
903.683	18273
903.801	18057
903.919	18129
904.038	18174
904.156	18049
904.274	18068
904.392	18045
904.51	17969
904.627	17992
904.745	18022
904.863	18091
904.981	17870
905.098	17745
905.216	17718
905.334	17695
905.451	17600
905.569	17524
905.686	17710
905.803	17619
905.921	17528
906.038	17493
906.155	17497
906.272	17402
906.389	17379
906.506	17208
906.623	17330
906.74	17189
906.857	17178
906.974	17178
907.091	17360
907.208	17299
907.324	17204
907.441	17090
907.557	17014
907.674	16923
907.79	16858
907.907	16908
908.023	17037
908.139	16965
908.256	16919
908.372	16782
908.488	16805
908.604	16710
908.72	16523
908.836	16729
908.952	16592
909.068	16759
909.184	16790
909.3	16660
909.415	16672
909.531	16691
909.647	16382
909.762	16310
909.878	16306
909.993	16421
910.108	16306
910.224	16344
910.339	16402
910.454	16219
910.57	16234
910.685	16109
910.8	16333
910.915	16207
911.03	16192
911.145	16010
911.259	16010
911.374	15975
911.489	15937
911.604	15918
911.718	15739
911.833	15808
911.947	15690
912.062	15603
912.176	15713
912.291	15717
912.405	15724
912.519	15899
912.633	15937
912.748	15762
912.862	15717
912.976	15507
913.09	15473
913.204	15424
913.318	15587
913.431	15610
913.545	15603
913.659	15682
913.772	15511
913.886	15397
914	15317
914.113	15332
914.226	15340
914.34	15408
914.453	15237
914.566	15397
914.68	15249
914.793	15176
914.906	15100
915.019	14960
915.132	14887
915.245	14872
915.358	14952
915.47	14891
915.583	14982
915.696	14933
915.809	14979
915.921	15043
916.034	14899
916.146	14880
916.259	14842
916.371	14975
916.483	14941
916.595	14815
916.708	14800
916.82	14864
916.932	14667
917.044	14746
917.156	14678
917.268	14632
917.38	14575
917.491	14636
917.603	14682
917.715	14716
917.826	14769
917.938	14617
918.049	14446
918.161	14564
918.272	14648
918.384	14651
918.495	14461
918.606	14434
918.717	14286
918.828	14442
918.939	14457
919.05	14339
919.161	14362
919.272	14130
919.383	14263
919.494	14355
919.604	14625
919.715	14389
919.826	14252
919.936	14278
920.047	14290
920.157	14355
920.267	14552
920.378	14355
920.488	14305
920.598	14469
920.708	14621
920.818	14503
920.928	14492
921.038	14640
921.148	14598
921.258	14256
921.368	14221
921.477	14161
921.587	14157
921.697	13955
921.806	14088
921.916	13917
922.025	13719
922.134	13769
922.244	13609
922.353	13757
922.462	13529
922.571	13559
922.68	13407
922.789	13343
922.898	13384
923.007	13331
923.116	13422
923.224	13346
923.333	13304
923.442	13259
923.55	13221
923.659	13232
923.767	13247
923.876	13183
923.984	13206
924.092	13053
924.201	13095
924.309	13110
924.417	13076
924.525	13107
924.633	13023
924.741	14065
924.849	12817
924.956	13019
925.064	12875
925.172	12745
925.279	12791
925.387	12844
925.494	12776
925.602	12856
925.709	12886
925.816	12688
925.924	12722
926.031	12760
926.138	12817
926.245	12722
926.352	12646
926.459	12772
926.566	12760
926.673	12700
926.779	12578
926.886	12517
926.993	12441
927.099	12418
927.206	12270
927.312	12376
927.419	12395
927.525	12372
927.631	12388
927.737	12251
927.843	12163
927.95	12148
928.056	12220
928.162	12209
928.267	12247
928.373	12985
928.479	12308
928.585	12076
928.69	12182
928.796	12243
928.901	12057
929.007	11885
929.112	12098
929.218	12064
929.323	11996
929.428	11988
929.533	12140
929.638	11855
929.743	11977
929.848	11927
929.953	11866
930.058	11729
930.163	11726
930.267	11642
930.372	11760
930.477	11623
930.581	11889
930.685	11672
930.79	11490
930.894	11592
930.998	11471
931.103	11646
931.207	11254
931.311	11220
931.415	11124
931.519	10930
931.623	10919
