Data from test_V78500241_836.txt Node
Date: Fri Mar 25 15:47:35 CST 2022
User: usil
Spectrometer: V785-0024
Trigger mode: 0
Integration Time (sec): 4.000000E-1
Scans to average: 1
Nonlinearity correction enabled: false
Boxcar width: 0
Storing dark spectrum: false
XAxis mode: Wavelengths
Number of Pixels in Spectrum: 1024
>>>>>Begin Spectral Data<<<<<
801.071	27325
801.214	27321
801.356	27135
801.499	26956
801.641	26883
801.783	26967
801.926	27024
802.068	26864
802.211	26834
802.353	26602
802.496	26655
802.638	26537
802.78	26503
802.923	26526
803.065	26526
803.208	26431
803.35	26640
803.492	26564
803.635	26697
803.777	26598
803.919	26674
804.061	27055
804.204	26670
804.346	26651
804.488	26552
804.63	26583
804.773	26473
804.915	26727
805.057	26842
805.199	26708
805.341	26682
805.483	26918
805.626	26689
805.768	26686
805.91	26762
806.052	26952
806.194	26765
806.336	27013
806.478	26880
806.62	26906
806.762	26929
806.904	27116
807.046	27310
807.188	27313
807.33	27154
807.472	27287
807.614	27245
807.756	27199
807.898	27093
808.04	27096
808.182	27043
808.324	26979
808.465	27173
808.607	27291
808.749	27370
808.891	27526
809.033	27701
809.174	27450
809.316	27496
809.458	27473
809.6	27351
809.741	27606
809.883	27667
810.025	27690
810.166	27736
810.308	27644
810.45	27675
810.591	27808
810.733	27648
810.875	27526
811.016	27450
811.158	27283
811.299	27427
811.441	27523
811.582	27641
811.724	27603
811.865	27431
812.007	27435
812.148	27397
812.29	27450
812.431	27622
812.573	27682
812.714	27918
812.855	27857
812.997	28032
813.138	28230
813.279	28048
813.421	28032
813.562	27987
813.703	27686
813.845	27720
813.986	27439
814.127	27199
814.268	27051
814.41	27150
814.551	27142
814.692	27207
814.833	26979
814.974	27036
815.115	27131
815.256	27028
815.397	26891
815.539	26971
815.68	26796
815.821	26739
815.962	26910
816.103	26845
816.244	26815
816.385	26746
816.526	26617
816.666	26484
816.807	26404
816.948	26423
817.089	26530
817.23	26461
817.371	26412
817.512	26324
817.653	26332
817.793	26374
817.934	26442
818.075	26446
818.216	26495
818.356	26237
818.497	26256
818.638	26161
818.778	26081
818.919	26157
819.06	26092
819.2	26214
819.341	26400
819.481	26461
819.622	26488
819.762	26781
819.903	26636
820.043	26526
820.184	26522
820.324	26575
820.465	26526
820.605	26514
820.746	26495
820.886	26313
821.026	26514
821.167	26480
821.307	26533
821.447	26362
821.588	26355
821.728	26210
821.868	25944
822.008	25902
822.149	25830
822.289	25841
822.429	25586
822.569	25666
822.709	25502
822.849	25285
822.99	25312
823.13	25381
823.27	25453
823.41	25190
823.55	25190
823.69	25179
823.83	25152
823.97	25206
824.11	24958
824.25	24924
824.389	25118
824.529	25160
824.669	25152
824.809	25145
824.949	25057
825.089	25019
825.228	24954
825.368	24973
825.508	24837
825.648	24886
825.787	25000
825.927	25057
826.067	24787
826.206	24894
826.346	24970
826.485	24890
826.625	24871
826.765	24954
826.904	24852
827.044	24677
827.183	24585
827.323	24620
827.462	24665
827.601	24467
827.741	24620
827.88	24563
828.02	24532
828.159	24635
828.298	24612
828.437	24665
828.577	24540
828.716	24772
828.855	24513
828.994	24304
829.134	24350
829.273	24464
829.412	24190
829.551	24114
829.69	24388
829.829	24235
829.968	24296
830.107	24323
830.246	24308
830.385	24174
830.524	24079
830.663	24209
830.802	24098
830.941	23916
831.08	23882
831.219	23939
831.357	23916
831.496	24152
831.635	23882
831.774	23847
831.913	23699
832.051	23790
832.19	23695
832.329	23646
832.467	23558
832.606	23570
832.744	23566
832.883	23562
833.022	23531
833.16	23684
833.299	23554
833.437	23600
833.576	23520
833.714	23665
833.852	23672
833.991	23726
834.129	23661
834.267	23726
834.406	23668
834.544	23691
834.682	23619
834.821	23627
834.959	23843
835.097	23585
835.235	23627
835.373	23570
835.511	23611
835.65	23512
835.788	23417
835.926	23303
836.064	23250
836.202	23356
836.34	23516
836.478	23600
836.615	23417
836.753	23379
836.891	23554
837.029	23417
837.167	23444
837.305	23258
837.443	23326
837.58	23273
837.718	23337
837.856	23353
837.993	23250
838.131	23345
838.269	23212
838.406	23258
838.544	23029
838.681	22961
838.819	22869
838.956	22790
839.094	22664
839.231	22767
839.369	22801
839.506	23113
839.643	22957
839.781	22656
839.918	22668
840.055	22797
840.193	22672
840.33	22615
840.467	22740
840.604	22828
840.742	22957
840.879	22611
841.016	22653
841.153	22542
841.29	22809
841.427	22683
841.564	22675
841.701	22717
841.838	22634
841.975	22531
842.112	22672
842.249	22698
842.385	22504
842.522	22687
842.659	22535
842.796	22523
842.933	22436
843.069	22436
843.206	22428
843.343	22443
843.479	22470
843.616	22466
843.752	22219
843.889	22299
844.025	22333
844.162	22265
844.298	22352
844.435	22257
844.571	22166
844.708	22230
844.844	22394
844.98	22500
845.117	22322
845.253	22196
845.389	22017
845.525	22078
845.661	22101
845.798	21994
845.934	21975
846.07	21865
846.206	21956
846.342	22109
846.478	21941
846.614	21800
846.75	21568
846.886	21663
847.022	21686
847.158	21762
847.294	21732
847.429	21641
847.565	21656
847.701	21998
847.837	21530
847.972	21389
848.108	21553
848.244	21519
848.379	21351
848.515	21450
848.65	21256
848.786	21431
848.921	21363
849.057	21454
849.192	21431
849.328	21245
849.463	21298
849.598	21294
849.734	21264
849.869	21199
850.004	21184
850.14	21081
850.275	21108
850.41	21131
850.545	21112
850.68	21135
850.815	21032
850.95	20994
851.085	21096
851.22	21180
851.355	21100
851.49	20929
851.625	20948
851.76	21104
851.895	20880
852.03	21017
852.165	21032
852.299	20963
852.434	21188
852.569	20963
852.703	21135
852.838	21058
852.973	21321
853.107	21317
853.242	21028
853.376	20880
853.511	20731
853.645	20842
853.78	21077
853.914	21055
854.048	20708
854.183	20819
854.317	20895
854.451	21192
854.585	21047
854.72	20781
854.854	21009
854.988	20845
855.122	20876
855.256	20788
855.39	21020
855.524	20830
855.658	20941
855.792	20861
855.926	20944
856.06	20994
856.194	20906
856.327	20899
856.461	20807
856.595	20891
856.729	20982
856.862	21013
856.996	20842
857.13	20902
857.263	21024
857.397	20979
857.53	20895
857.664	20956
857.797	20921
857.931	20948
858.064	20834
858.197	20956
858.331	20872
858.464	20815
858.597	20765
858.731	20785
858.864	20914
858.997	20823
859.13	20933
859.263	20891
859.396	20941
859.529	20895
859.662	20773
859.795	20845
859.928	20815
860.061	20994
860.194	21150
860.327	20986
860.46	20933
860.592	21043
860.725	21116
860.858	20982
860.99	20933
861.123	20861
861.256	20864
861.388	20838
861.521	21610
861.653	20697
861.786	20632
861.918	20682
862.05	20842
862.183	20746
862.315	20861
862.447	20861
862.58	20834
862.712	20499
862.844	20454
862.976	20788
863.108	20659
863.24	21070
863.372	20541
863.504	20495
863.636	20469
863.768	20659
863.9	20556
864.032	20476
864.164	20533
864.296	20727
864.428	20739
864.559	20583
864.691	20606
864.823	20518
864.954	20575
865.086	20583
865.217	20598
865.349	20393
865.48	20473
865.612	20465
865.743	20693
865.875	20492
866.006	20575
866.137	20488
866.269	20480
866.4	20381
866.531	20514
866.662	20480
866.793	20419
866.924	20446
867.055	20514
867.186	20480
867.317	20442
867.448	20305
867.579	20461
867.71	20393
867.841	20301
867.972	20393
868.103	20499
868.233	20518
868.364	20393
868.495	20495
868.625	20697
868.756	20693
868.886	20613
869.017	20636
869.147	20735
869.278	20731
869.408	20842
869.539	20651
869.669	20800
869.799	20697
869.929	20750
870.06	20815
870.19	21013
870.32	21127
870.45	20941
870.58	21062
870.71	21237
870.84	21138
870.97	21028
871.1	20979
871.23	21249
871.36	21195
871.489	21195
871.619	21348
871.749	21264
871.879	21374
872.008	21492
872.138	21332
872.267	21245
872.397	21047
872.526	21085
872.656	21131
872.785	21131
872.915	21272
873.044	21332
873.173	21340
873.303	21439
873.432	21370
873.561	21405
873.69	21389
873.819	21367
873.948	21401
874.077	21207
874.206	21393
874.335	21336
874.464	21416
874.593	21507
874.722	21485
874.851	21652
874.979	21648
875.108	21576
875.237	21439
875.365	21405
875.494	21462
875.623	21572
875.751	21515
875.88	21488
876.008	21774
876.136	21713
876.265	21949
876.393	21968
876.521	21968
876.65	21926
876.778	22010
876.906	21838
877.034	21778
877.162	21838
877.29	21789
877.418	21873
877.546	21922
877.674	21789
877.802	21903
877.93	21918
878.058	21895
878.185	21728
878.313	21831
878.441	21850
878.568	21743
878.696	21888
878.824	21918
878.951	21941
879.079	22135
879.206	22143
879.333	22051
879.461	22010
879.588	21892
879.715	21953
879.842	22090
879.97	21994
880.097	21747
880.224	21633
880.351	21713
880.478	21728
880.605	21774
880.732	21663
880.859	22063
880.986	21846
881.112	21720
881.239	21526
881.366	21549
881.493	21492
881.619	21302
881.746	21291
881.872	21298
881.999	21321
882.125	21218
882.252	21367
882.378	21245
882.505	21370
882.631	21184
882.757	21051
882.883	21199
883.01	21043
883.136	20849
883.262	20834
883.388	20727
883.514	21123
883.64	20975
883.766	20849
883.892	20781
884.018	20773
884.143	20899
884.269	20914
884.395	20689
884.52	20606
884.646	20750
884.772	20560
884.897	20571
885.023	20674
885.148	20754
885.274	20697
885.399	20807
885.524	20693
885.65	20663
885.775	20602
885.9	20708
886.025	20826
886.15	20743
886.275	20530
886.4	20537
886.525	20556
886.65	20511
886.775	20526
886.9	20674
887.025	20804
887.149	20594
887.274	20442
887.399	20434
887.523	20396
887.648	20286
887.773	20389
887.897	20522
888.021	20434
888.146	20423
888.27	20473
888.395	20530
888.519	20473
888.643	20488
888.767	20499
888.891	20393
889.015	20134
889.139	20271
889.263	20210
889.387	20267
889.511	20404
889.635	20377
889.759	20191
889.883	20119
890.006	20233
890.13	20408
890.254	20164
890.377	20134
890.501	20115
890.624	19917
890.748	20039
890.871	19974
890.995	19788
891.118	19757
891.241	19788
891.364	19833
891.488	19822
891.611	19742
891.734	19734
891.857	19974
891.98	19818
892.103	19830
892.226	19818
892.349	19799
892.471	19529
892.594	19791
892.717	19807
892.839	19677
892.962	19674
893.085	19841
893.207	19769
893.33	19548
893.452	19601
893.575	19757
893.697	19590
893.819	19833
893.941	19841
894.064	19864
894.186	19582
894.308	19632
894.43	19841
894.552	19715
894.674	19723
894.796	19639
894.918	19696
895.04	19658
895.161	19750
895.283	19738
895.405	19655
895.526	19822
895.648	19772
895.769	19780
895.891	19765
896.012	19807
896.134	19803
896.255	19757
896.376	19753
896.498	19753
896.619	19719
896.74	19780
896.861	19807
896.982	20054
897.103	20183
897.224	20062
897.345	20001
897.466	19871
897.587	19856
897.708	20134
897.828	20008
897.949	19856
898.07	19822
898.19	19928
898.311	20020
898.431	19928
898.552	19959
898.672	19902
898.792	19978
898.913	19890
899.033	19753
899.153	19784
899.273	19731
899.393	19681
899.513	19662
899.633	19723
899.753	19651
899.873	19700
899.993	19761
900.113	19605
900.232	19647
900.352	19605
900.472	19548
900.591	19411
900.711	19685
900.83	19354
900.95	19556
901.069	19571
901.189	19377
901.308	19137
901.427	19084
901.546	19110
901.665	19019
901.784	19110
901.904	19000
902.023	18844
902.141	18711
902.26	18639
902.379	18612
902.498	18601
902.617	18688
902.735	18616
902.854	18563
902.973	18559
903.091	18350
903.21	18300
903.328	18254
903.446	18148
903.565	18076
903.683	18136
903.801	17958
903.919	18038
904.038	18011
904.156	17783
904.274	17889
904.392	17809
904.51	17726
904.627	17870
904.745	17893
904.863	17851
904.981	17630
905.098	17497
905.216	17535
905.334	17577
905.451	17577
905.569	17516
905.686	17474
905.803	17516
905.921	17277
906.038	17478
906.155	17303
906.272	17189
906.389	17261
906.506	17048
906.623	17098
906.74	17094
906.857	17045
906.974	17006
907.091	17067
907.208	17227
907.324	17178
907.441	17045
907.557	16900
907.674	16797
907.79	16698
907.907	16744
908.023	16839
908.139	16797
908.256	16634
908.372	16717
908.488	16744
908.604	16550
908.72	16402
908.836	16565
908.952	16531
909.068	16535
909.184	16713
909.3	16500
909.415	16542
909.531	16478
909.647	16188
909.762	16192
909.878	16230
909.993	16272
910.108	16249
910.224	16131
910.339	16246
910.454	16044
910.57	16116
910.685	15941
910.8	16230
910.915	16093
911.03	16032
911.145	15937
911.259	15781
911.374	15854
911.489	15869
911.604	15679
911.718	15618
911.833	15656
911.947	15469
912.062	15485
912.176	15538
912.291	15633
912.405	15591
912.519	15762
912.633	15808
912.748	15606
912.862	15504
912.976	15405
913.09	15272
913.204	15393
913.318	15294
913.431	15458
913.545	15424
913.659	15488
913.772	15321
913.886	15241
914	15036
914.113	15218
914.226	15332
914.34	15214
914.453	15009
914.566	15119
914.68	15157
914.793	15081
914.906	14929
915.019	14864
915.132	14750
915.245	14838
915.358	14796
915.47	14792
915.583	14823
915.696	14849
915.809	14921
915.921	15001
916.034	14750
916.146	14823
916.259	14724
916.371	14887
916.483	14754
916.595	14640
916.708	14575
916.82	14735
916.932	14663
917.044	14575
917.156	14621
917.268	14473
917.38	14537
917.491	14583
917.603	14438
917.715	14499
917.826	14571
917.938	14393
918.049	14317
918.161	14408
918.272	14514
918.384	14549
918.495	14480
918.606	14252
918.717	14123
918.828	14267
918.939	14339
919.05	14138
919.161	14195
919.272	14081
919.383	14107
919.494	14256
919.604	14434
919.715	14278
919.826	14100
919.936	14153
920.047	14244
920.157	14206
920.267	14362
920.378	14176
920.488	14168
920.598	14358
920.708	14579
920.818	14290
920.928	14328
921.038	14450
921.148	14511
921.258	14107
921.368	14103
921.477	13970
921.587	13944
921.697	13860
921.806	13982
921.916	13860
922.025	13628
922.134	13590
922.244	13639
922.353	13674
922.462	13514
922.571	13384
922.68	13221
922.789	13293
922.898	13213
923.007	13171
923.116	13244
923.224	13217
923.333	13225
923.442	13126
923.55	13061
923.659	13175
923.767	13133
923.876	13046
923.984	13141
924.092	13034
924.201	13023
924.309	12985
924.417	12981
924.525	12985
924.633	12973
924.741	13906
924.849	12669
924.956	12802
925.064	12662
925.172	12757
925.279	12681
925.387	12776
925.494	12711
925.602	12730
925.709	12726
925.816	12525
925.924	12692
926.031	12684
926.138	12654
926.245	12608
926.352	12494
926.459	12741
926.566	12688
926.673	12608
926.779	12456
926.886	12429
926.993	12273
927.099	12205
927.206	12251
927.312	12247
927.419	12384
927.525	12292
927.631	12258
927.737	12220
927.843	12201
927.95	12026
928.056	12102
928.162	12072
928.267	12114
928.373	12707
928.479	12178
928.585	11885
928.69	11992
928.796	12110
928.901	11950
929.007	11863
929.112	11942
929.218	11927
929.323	11916
929.428	11798
929.533	12045
929.638	11802
929.743	11840
929.848	11809
929.953	11710
930.058	11657
930.163	11486
930.267	11551
930.372	11653
930.477	11463
930.581	11710
930.685	11600
930.79	11330
930.894	11406
930.998	11406
931.103	11478
931.207	11178
931.311	11048
931.415	10984
931.519	10733
931.623	10828
