Data from test_V78500241_712.txt Node
Date: Fri Mar 25 15:46:44 CST 2022
User: usil
Spectrometer: V785-0024
Trigger mode: 0
Integration Time (sec): 4.000000E-1
Scans to average: 1
Nonlinearity correction enabled: false
Boxcar width: 0
Storing dark spectrum: false
XAxis mode: Wavelengths
Number of Pixels in Spectrum: 1024
>>>>>Begin Spectral Data<<<<<
801.071	27580
801.214	27363
801.356	27104
801.499	26963
801.641	26937
801.783	26967
801.926	27070
802.068	26944
802.211	26937
802.353	26864
802.496	26575
802.638	26724
802.78	26594
802.923	26404
803.065	26438
803.208	26393
803.35	26556
803.492	26659
803.635	26720
803.777	26758
803.919	26777
804.061	27051
804.204	26883
804.346	26644
804.488	26556
804.63	26731
804.773	26606
804.915	26849
805.057	26883
805.199	26811
805.341	26902
805.483	26815
805.626	26880
805.768	26750
805.91	26800
806.052	26849
806.194	26815
806.336	26963
806.478	26880
806.62	27028
806.762	26868
806.904	27104
807.046	27408
807.188	27272
807.33	27355
807.472	27397
807.614	27260
807.756	27355
807.898	27192
808.04	27081
808.182	27127
808.324	27116
808.465	27074
808.607	27458
808.749	27454
808.891	27625
809.033	27652
809.174	27564
809.316	27393
809.458	27405
809.6	27644
809.741	27568
809.883	27595
810.025	27751
810.166	27736
810.308	27732
810.45	27713
810.591	27603
810.733	27515
810.875	27351
811.016	27485
811.158	27374
811.299	27698
811.441	27705
811.582	27682
811.724	27439
811.865	27431
812.007	27427
812.148	27306
812.29	27515
812.431	27732
812.573	27759
812.714	27876
812.855	28040
812.997	28181
813.138	28090
813.279	28200
813.421	28032
813.562	27998
813.703	27842
813.845	27713
813.986	27450
814.127	27241
814.268	27051
814.41	27306
814.551	27214
814.692	27214
814.833	27028
814.974	27100
815.115	27081
815.256	26963
815.397	27058
815.539	27146
815.68	27001
815.821	26864
815.962	26937
816.103	26838
816.244	26952
816.385	26758
816.526	26716
816.666	26347
816.807	26358
816.948	26488
817.089	26613
817.23	26488
817.371	26374
817.512	26488
817.653	26473
817.793	26415
817.934	26328
818.075	26552
818.216	26415
818.356	26183
818.497	26202
818.638	26157
818.778	26214
818.919	26214
819.06	26195
819.2	26374
819.341	26347
819.481	26320
819.622	26632
819.762	26826
819.903	26682
820.043	26609
820.184	26560
820.324	26571
820.465	26731
820.605	26533
820.746	26495
820.886	26377
821.026	26492
821.167	26374
821.307	26648
821.447	26499
821.588	26412
821.728	26389
821.868	26027
822.008	25887
822.149	25811
822.289	25978
822.429	25639
822.569	25578
822.709	25567
822.849	25445
822.99	25343
823.13	25285
823.27	25324
823.41	25160
823.55	25031
823.69	25247
823.83	25190
823.97	25099
824.11	25038
824.25	24882
824.389	25053
824.529	25080
824.669	25084
824.809	25209
824.949	25133
825.089	25133
825.228	25065
825.368	24973
825.508	24844
825.648	24985
825.787	24886
825.927	24981
826.067	24897
826.206	24909
826.346	24909
826.485	24760
826.625	24814
826.765	24905
826.904	24852
827.044	24654
827.183	24597
827.323	24551
827.462	24639
827.601	24540
827.741	24616
827.88	24585
828.02	24551
828.159	24505
828.298	24536
828.437	24707
828.577	24445
828.716	24673
828.855	24540
828.994	24300
829.134	24475
829.273	24327
829.412	24258
829.551	24133
829.69	24174
829.829	24490
829.968	24357
830.107	24384
830.246	24216
830.385	24228
830.524	24152
830.663	24057
830.802	23946
830.941	24053
831.08	23969
831.219	24018
831.357	24041
831.496	24163
831.635	23874
831.774	23805
831.913	23756
832.051	23680
832.19	23684
832.329	23646
832.467	23665
832.606	23501
832.744	23608
832.883	23596
833.022	23554
833.16	23608
833.299	23570
833.437	23554
833.576	23566
833.714	23707
833.852	23764
833.991	23722
834.129	23726
834.267	23714
834.406	23486
834.544	23703
834.682	23611
834.821	23600
834.959	23790
835.097	23524
835.235	23680
835.373	23649
835.511	23562
835.65	23398
835.788	23566
835.926	23433
836.064	23368
836.202	23360
836.34	23379
836.478	23478
836.615	23315
836.753	23421
836.891	23554
837.029	23547
837.167	23337
837.305	23299
837.443	23265
837.58	23258
837.718	23471
837.856	23178
837.993	23246
838.131	23174
838.269	23273
838.406	23113
838.544	23048
838.681	22923
838.819	22866
838.956	22790
839.094	22835
839.231	22957
839.369	23025
839.506	23109
839.643	23204
839.781	22850
839.918	22664
840.055	22664
840.193	22793
840.33	22565
840.467	22717
840.604	22824
840.742	22850
840.879	22580
841.016	22706
841.153	22561
841.29	22721
841.427	22611
841.564	22740
841.701	22767
841.838	22611
841.975	22550
842.112	22508
842.249	22630
842.385	22504
842.522	22850
842.659	22607
842.796	22447
842.933	22451
843.069	22421
843.206	22440
843.343	22459
843.479	22390
843.616	22440
843.752	22249
843.889	22337
844.025	22276
844.162	22120
844.298	22333
844.435	22139
844.571	22173
844.708	22280
844.844	22432
844.98	22333
845.117	22314
845.253	22166
845.389	22070
845.525	22166
845.661	22128
845.798	21941
845.934	21930
846.07	21994
846.206	21941
846.342	22063
846.478	21857
846.614	21789
846.75	21679
846.886	21572
847.022	21606
847.158	21713
847.294	21667
847.429	21751
847.565	21736
847.701	21922
847.837	21511
847.972	21325
848.108	21561
848.244	21435
848.379	21351
848.515	21374
848.65	21249
848.786	21268
848.921	21340
849.057	21397
849.192	21351
849.328	21226
849.463	21306
849.598	21241
849.734	21005
849.869	21150
850.004	21089
850.14	21176
850.275	20986
850.41	20967
850.545	21047
850.68	20990
850.815	21119
850.95	20895
851.085	21169
851.22	21180
851.355	21096
851.49	21039
851.625	20933
851.76	20925
851.895	20963
852.03	20933
852.165	21028
852.299	21005
852.434	21169
852.569	21108
852.703	21093
852.838	21230
852.973	21275
853.107	21157
853.242	21081
853.376	20864
853.511	20739
853.645	20826
853.78	21020
853.914	20918
854.048	20925
854.183	20773
854.317	20849
854.451	21100
854.585	20819
854.72	20785
854.854	21047
854.988	20807
855.122	20929
855.256	20819
855.39	20902
855.524	21013
855.658	20910
855.792	20864
855.926	20960
856.06	20944
856.194	21119
856.327	20823
856.461	20857
856.595	20819
856.729	20849
856.862	20963
856.996	20914
857.13	21017
857.263	21013
857.397	20902
857.53	20792
857.664	20986
857.797	20941
857.931	21036
858.064	20990
858.197	21005
858.331	20872
858.464	20853
858.597	20739
858.731	20902
858.864	20849
858.997	20883
859.13	20979
859.263	20845
859.396	20960
859.529	20902
859.662	20857
859.795	20876
859.928	20956
860.061	21062
860.194	21150
860.327	20982
860.46	20963
860.592	20998
860.725	21089
860.858	20929
860.99	20921
861.123	20762
861.256	20883
861.388	20929
861.521	21492
861.653	20906
861.786	20689
861.918	20724
862.05	20727
862.183	20891
862.315	20868
862.447	20804
862.58	20727
862.712	20621
862.844	20636
862.976	20670
863.108	20629
863.24	21074
863.372	20533
863.504	20667
863.636	20613
863.768	20644
863.9	20617
864.032	20419
864.164	20571
864.296	20632
864.428	20765
864.559	20701
864.691	20686
864.823	20693
864.954	20693
865.086	20587
865.217	20476
865.349	20431
865.48	20587
865.612	20507
865.743	20598
865.875	20568
866.006	20499
866.137	20438
866.269	20507
866.4	20625
866.531	20431
866.662	20473
866.793	20530
866.924	20522
867.055	20419
867.186	20609
867.317	20476
867.448	20374
867.579	20396
867.71	20381
867.841	20256
867.972	20469
868.103	20385
868.233	20552
868.364	20446
868.495	20556
868.625	20762
868.756	20769
868.886	20636
869.017	20625
869.147	20758
869.278	20815
869.408	20621
869.539	20629
869.669	20724
869.799	20785
869.929	20796
870.06	20842
870.19	20982
870.32	21005
870.45	21036
870.58	21005
870.71	21138
870.84	21108
870.97	21116
871.1	21108
871.23	21264
871.36	21268
871.489	21325
871.619	21203
871.749	21150
871.879	21336
872.008	21481
872.138	21367
872.267	21279
872.397	21066
872.526	21203
872.656	21104
872.785	21199
872.915	21530
873.044	21439
873.173	21306
873.303	21214
873.432	21332
873.561	21428
873.69	21313
873.819	21264
873.948	21344
874.077	21393
874.206	21252
874.335	21340
874.464	21370
874.593	21686
874.722	21450
874.851	21686
874.979	21564
875.108	21473
875.237	21580
875.365	21408
875.494	21663
875.623	21618
875.751	21580
875.88	21587
876.008	21663
876.136	21724
876.265	21895
876.393	22177
876.521	22021
876.65	22078
876.778	21880
876.906	21789
877.034	21888
877.162	21892
877.29	21850
877.418	21960
877.546	21869
877.674	21861
877.802	21884
877.93	21751
878.058	21888
878.185	21835
878.313	21865
878.441	21987
878.568	21717
878.696	21880
878.824	21876
878.951	22120
879.079	22131
879.206	22215
879.333	22101
879.461	21876
879.588	22040
879.715	22029
879.842	22276
879.97	21892
880.097	21671
880.224	21561
880.351	21759
880.478	21637
880.605	21732
880.732	21656
880.859	21941
880.986	21743
881.112	21854
881.239	21591
881.366	21443
881.493	21401
881.619	21408
881.746	21393
881.872	21443
881.999	21302
882.125	21161
882.252	21386
882.378	21268
882.505	21325
882.631	21154
882.757	20998
882.883	21093
883.01	20975
883.136	20944
883.262	20853
883.388	20883
883.514	21077
883.64	20994
883.766	20937
883.892	20891
884.018	20887
884.143	21039
884.269	21024
884.395	20697
884.52	20682
884.646	20762
884.772	20594
884.897	20545
885.023	20712
885.148	20701
885.274	20773
885.399	20883
885.524	20689
885.65	20648
885.775	20682
885.9	20625
886.025	20564
886.15	20769
886.275	20743
886.4	20571
886.525	20697
886.65	20682
886.775	20533
886.9	20682
887.025	20857
887.149	20731
887.274	20400
887.399	20400
887.523	20419
887.648	20438
887.773	20358
887.897	20518
888.021	20427
888.146	20347
888.27	20511
888.395	20469
888.519	20396
888.643	20377
888.767	20446
888.891	20267
889.015	20282
889.139	20248
889.263	20317
889.387	20374
889.511	20412
889.635	20332
889.759	20294
889.883	20142
890.006	20263
890.13	20415
890.254	20126
890.377	20218
890.501	20001
890.624	19871
890.748	20027
890.871	19807
890.995	19917
891.118	19712
891.241	19830
891.364	19868
891.488	19932
891.611	19898
891.734	19700
891.857	19769
891.98	19890
892.103	19936
892.226	19818
892.349	19597
892.471	19556
892.594	19609
892.717	19784
892.839	19620
892.962	19860
893.085	19708
893.207	19727
893.33	19537
893.452	19677
893.575	19845
893.697	19674
893.819	19906
893.941	19925
894.064	19898
894.186	19696
894.308	19723
894.43	19750
894.552	19868
894.674	19761
894.796	19582
894.918	19696
895.04	19746
895.161	19731
895.283	19761
895.405	19544
895.526	19772
895.648	19696
895.769	19879
895.891	19784
896.012	19856
896.134	19803
896.255	19776
896.376	19791
896.498	19734
896.619	19727
896.74	19734
896.861	19871
896.982	20050
897.103	20195
897.224	20012
897.345	19925
897.466	19967
897.587	19936
897.708	20210
897.828	19993
897.949	19997
898.07	19799
898.19	19887
898.311	20062
898.431	19997
898.552	20054
898.672	20065
898.792	20050
898.913	19986
899.033	19750
899.153	19685
899.273	19662
899.393	19769
899.513	19837
899.633	19677
899.753	19662
899.873	19704
899.993	19624
900.113	19662
900.232	19715
900.352	19700
900.472	19594
900.591	19445
900.711	19529
900.83	19354
900.95	19556
901.069	19624
901.189	19369
901.308	19145
901.427	19129
901.546	19175
901.665	19057
901.784	19160
901.904	19015
902.023	18787
902.141	18726
902.26	18791
902.379	18738
902.498	18536
902.617	18566
902.735	18574
902.854	18582
902.973	18555
903.091	18243
903.21	18243
903.328	18273
903.446	18129
903.565	18041
903.683	18174
903.801	17939
903.919	17992
904.038	18003
904.156	17961
904.274	17912
904.392	17843
904.51	17893
904.627	17840
904.745	17999
904.863	17870
904.981	17684
905.098	17497
905.216	17573
905.334	17570
905.451	17463
905.569	17493
905.686	17566
905.803	17562
905.921	17227
906.038	17444
906.155	17402
906.272	17242
906.389	17337
906.506	17071
906.623	17056
906.74	17151
906.857	16927
906.974	16965
907.091	17079
907.208	17242
907.324	17143
907.441	16987
907.557	16752
907.674	16889
907.79	16778
907.907	16710
908.023	16828
908.139	16797
908.256	16729
908.372	16725
908.488	16664
908.604	16535
908.72	16386
908.836	16508
908.952	16527
909.068	16622
909.184	16660
909.3	16569
909.415	16470
909.531	16607
909.647	16265
909.762	16386
909.878	16143
909.993	16268
910.108	16204
910.224	16158
910.339	16204
910.454	16074
910.57	16082
910.685	15975
910.8	16287
910.915	16173
911.03	15895
911.145	15819
911.259	15934
911.374	15880
911.489	15823
911.604	15747
911.718	15500
911.833	15443
911.947	15504
912.062	15454
912.176	15564
912.291	15549
912.405	15549
912.519	15831
912.633	15755
912.748	15625
912.862	15603
912.976	15408
913.09	15268
913.204	15321
913.318	15412
913.431	15496
913.545	15443
913.659	15378
913.772	15370
913.886	15249
914	15157
914.113	15195
914.226	15329
914.34	15291
914.453	15161
914.566	15207
914.68	15135
914.793	15135
914.906	14880
915.019	14773
915.132	14758
915.245	14716
915.358	14720
915.47	14830
915.583	14842
915.696	14792
915.809	14902
915.921	14925
916.034	14762
916.146	14830
916.259	14689
916.371	14781
916.483	14739
916.595	14602
916.708	14655
916.82	14640
916.932	14606
917.044	14514
917.156	14606
917.268	14537
917.38	14442
917.491	14427
917.603	14495
917.715	14442
917.826	14514
917.938	14385
918.049	14404
918.161	14446
918.272	14545
918.384	14518
918.495	14507
918.606	14282
918.717	14153
918.828	14214
918.939	14305
919.05	14180
919.161	14237
919.272	14001
919.383	14153
919.494	14282
919.604	14499
919.715	14237
919.826	14077
919.936	14180
920.047	14317
920.157	14240
920.267	14366
920.378	14176
920.488	14191
920.598	14351
920.708	14484
920.818	14419
920.928	14343
921.038	14579
921.148	14408
921.258	14256
921.368	14081
921.477	13928
921.587	13989
921.697	13833
921.806	13986
921.916	13769
922.025	13620
922.134	13666
922.244	13628
922.353	13613
922.462	13487
922.571	13384
922.68	13327
922.789	13270
922.898	13228
923.007	13149
923.116	13240
923.224	13221
923.333	13171
923.442	13091
923.55	13118
923.659	13065
923.767	13187
923.876	12996
923.984	13065
924.092	12939
924.201	13076
924.309	12951
924.417	13065
924.525	12977
924.633	12954
924.741	13841
924.849	12722
924.956	12875
925.064	12726
925.172	12681
925.279	12700
925.387	12757
925.494	12696
925.602	12730
925.709	12711
925.816	12574
925.924	12658
926.031	12753
926.138	12585
926.245	12650
926.352	12452
926.459	12692
926.566	12612
926.673	12536
926.779	12445
926.886	12407
926.993	12353
927.099	12281
927.206	12178
927.312	12258
927.419	12285
927.525	12247
927.631	12216
927.737	12117
927.843	12076
927.95	11977
928.056	12053
928.162	12136
928.267	12148
928.373	12776
928.479	12171
928.585	12007
928.69	12019
928.796	12159
928.901	11980
929.007	11752
929.112	11992
929.218	11954
929.323	11828
929.428	11783
929.533	11893
929.638	11733
929.743	11745
929.848	11775
929.953	11741
930.058	11726
930.163	11566
930.267	11452
930.372	11676
930.477	11467
930.581	11691
930.685	11562
930.79	11448
930.894	11417
930.998	11433
931.103	11493
931.207	11212
931.311	11090
931.415	10991
931.519	10854
931.623	10812
