Data from test_V78500241_525.txt Node
Date: Fri Mar 25 15:45:26 CST 2022
User: usil
Spectrometer: V785-0024
Trigger mode: 0
Integration Time (sec): 4.000000E-1
Scans to average: 1
Nonlinearity correction enabled: false
Boxcar width: 0
Storing dark spectrum: false
XAxis mode: Wavelengths
Number of Pixels in Spectrum: 1024
>>>>>Begin Spectral Data<<<<<
801.071	27975
801.214	27953
801.356	27641
801.499	27614
801.641	27576
801.783	27393
801.926	27538
802.068	27496
802.211	27439
802.353	27329
802.496	27127
802.638	27116
802.78	27131
802.923	27127
803.065	27074
803.208	27199
803.35	27184
803.492	27272
803.635	27218
803.777	27252
803.919	27306
804.061	27583
804.204	27275
804.346	27279
804.488	27135
804.63	27389
804.773	27093
804.915	27241
805.057	27511
805.199	27298
805.341	27370
805.483	27401
805.626	27157
805.768	27252
805.91	27492
806.052	27511
806.194	27370
806.336	27549
806.478	27462
806.62	27424
806.762	27583
806.904	27739
807.046	27937
807.188	27968
807.33	27812
807.472	27861
807.614	27762
807.756	27743
807.898	27846
808.04	27861
808.182	27705
808.324	27717
808.465	27781
808.607	27869
808.749	28078
808.891	28078
809.033	28295
809.174	28234
809.316	28078
809.458	28135
809.6	28101
809.741	28196
809.883	28230
810.025	28310
810.166	28341
810.308	28371
810.45	28421
810.591	28230
810.733	28185
810.875	28040
811.016	27983
811.158	28055
811.299	28226
811.441	28238
811.582	28253
811.724	28059
811.865	28044
812.007	28158
812.148	28048
812.29	28147
812.431	28401
812.573	28401
812.714	28447
812.855	28744
812.997	28706
813.138	28866
813.279	28881
813.421	28596
813.562	28675
813.703	28508
813.845	28322
813.986	27968
814.127	27823
814.268	27865
814.41	27812
814.551	27816
814.692	27759
814.833	27842
814.974	27793
815.115	27895
815.256	27629
815.397	27534
815.539	27622
815.68	27690
815.821	27500
815.962	27580
816.103	27530
816.244	27367
816.385	27355
816.526	27298
816.666	27287
816.807	27123
816.948	27089
817.089	27131
817.23	27165
817.371	27051
817.512	27089
817.653	27066
817.793	27093
817.934	26963
818.075	27214
818.216	27188
818.356	26971
818.497	26891
818.638	26849
818.778	26872
818.919	26845
819.06	26929
819.2	26887
819.341	27081
819.481	27146
819.622	27275
819.762	27443
819.903	27344
820.043	27112
820.184	27214
820.324	27123
820.465	27218
820.605	27256
820.746	27211
820.886	26971
821.026	27154
821.167	27024
821.307	27199
821.447	27135
821.588	27028
821.728	26823
821.868	26754
822.008	26693
822.149	26507
822.289	26499
822.429	26366
822.569	26142
822.709	26286
822.849	26157
822.99	26092
823.13	25955
823.27	25978
823.41	25864
823.55	25738
823.69	25986
823.83	25780
823.97	25814
824.11	25578
824.25	25662
824.389	25715
824.529	25830
824.669	25704
824.809	25746
824.949	25738
825.089	25788
825.228	25852
825.368	25441
825.508	25525
825.648	25647
825.787	25639
825.927	25700
826.067	25567
826.206	25556
826.346	25594
826.485	25639
826.625	25548
826.765	25681
826.904	25597
827.044	25499
827.183	25381
827.323	25381
827.462	25388
827.601	25331
827.741	25255
827.88	25301
828.02	25202
828.159	25331
828.298	25259
828.437	25468
828.577	25236
828.716	25362
828.855	25278
828.994	24939
829.134	24924
829.273	24939
829.412	25076
829.551	24947
829.69	25038
829.829	25034
829.968	25156
830.107	25160
830.246	24977
830.385	24852
830.524	24890
830.663	24856
830.802	24760
830.941	24566
831.08	24669
831.219	24631
831.357	24722
831.496	24867
831.635	24570
831.774	24494
831.913	24525
832.051	24391
832.19	24399
832.329	24380
832.467	24194
832.606	24174
832.744	24251
832.883	24155
833.022	24254
833.16	24266
833.299	24262
833.437	24315
833.576	24273
833.714	24243
833.852	24319
833.991	24194
834.129	24475
834.267	24353
834.406	24311
834.544	24376
834.682	24388
834.821	24266
834.959	24433
835.097	24254
835.235	24346
835.373	24292
835.511	24194
835.65	24281
835.788	24216
835.926	24136
836.064	23912
836.202	24007
836.34	24163
836.478	24235
836.615	24186
836.753	24121
836.891	24342
837.029	24194
837.167	24182
837.305	24057
837.443	24053
837.58	24015
837.718	24076
837.856	24049
837.993	23908
838.131	23984
838.269	23760
838.406	23961
838.544	23824
838.681	23619
838.819	23623
838.956	23345
839.094	23425
839.231	23585
839.369	23619
839.506	23794
839.643	23752
839.781	23463
839.918	23455
840.055	23490
840.193	23429
840.33	23478
840.467	23452
840.604	23467
840.742	23680
840.879	23136
841.016	23185
841.153	23372
841.29	23482
841.427	23337
841.564	23414
841.701	23345
841.838	23265
841.975	23212
842.112	23303
842.249	23189
842.385	23079
842.522	23391
842.659	23208
842.796	23124
842.933	23098
843.069	23048
843.206	23083
843.343	23277
843.479	23117
843.616	23204
843.752	22934
843.889	22949
844.025	23098
844.162	22900
844.298	22995
844.435	22828
844.571	22694
844.708	22839
844.844	23056
844.98	23052
845.117	22968
845.253	22858
845.389	22755
845.525	22900
845.661	22812
845.798	22660
845.934	22752
846.07	22573
846.206	22660
846.342	22694
846.478	22538
846.614	22432
846.75	22367
846.886	22280
847.022	22485
847.158	22299
847.294	22485
847.429	22489
847.565	22287
847.701	22664
847.837	21964
847.972	22124
848.108	22234
848.244	22211
848.379	21975
848.515	21926
848.65	21918
848.786	21934
848.921	21846
849.057	22025
849.192	22070
849.328	22040
849.463	22002
849.598	21861
849.734	21854
849.869	21755
850.004	21671
850.14	21816
850.275	21747
850.41	21682
850.545	21648
850.68	21633
850.815	21812
850.95	21637
851.085	21964
851.22	21751
851.355	21690
851.49	21774
851.625	21781
851.76	21606
851.895	21694
852.03	21564
852.165	21751
852.299	21739
852.434	21838
852.569	21774
852.703	21739
852.838	21755
852.973	21876
853.107	21705
853.242	21663
853.376	21523
853.511	21416
853.645	21397
853.78	21728
853.914	21622
854.048	21557
854.183	21469
854.317	21526
854.451	21671
854.585	21454
854.72	21511
854.854	21549
854.988	21447
855.122	21542
855.256	21450
855.39	21386
855.524	21618
855.658	21530
855.792	21561
855.926	21485
856.06	21576
856.194	21466
856.327	21561
856.461	21481
856.595	21473
856.729	21500
856.862	21698
856.996	21492
857.13	21660
857.263	21690
857.397	21549
857.53	21542
857.664	21561
857.797	21641
857.931	21701
858.064	21477
858.197	21614
858.331	21492
858.464	21481
858.597	21488
858.731	21557
858.864	21473
858.997	21583
859.13	21507
859.263	21488
859.396	21629
859.529	21622
859.662	21420
859.795	21553
859.928	21656
860.061	21663
860.194	21701
860.327	21637
860.46	21629
860.592	21629
860.725	21686
860.858	21667
860.99	21401
861.123	21443
861.256	21439
861.388	21568
861.521	22162
861.653	21393
861.786	21237
861.918	21367
862.05	21492
862.183	21443
862.315	21519
862.447	21473
862.58	21488
862.712	21302
862.844	21241
862.976	21279
863.108	21214
863.24	21774
863.372	21119
863.504	21135
863.636	21256
863.768	21245
863.9	21203
864.032	21169
864.164	21233
864.296	21321
864.428	21268
864.559	21230
864.691	21279
864.823	21279
864.954	21207
865.086	21169
865.217	21329
865.349	21077
865.48	21157
865.612	21207
865.743	21214
865.875	21199
866.006	21024
866.137	21085
866.269	21017
866.4	21089
866.531	21116
866.662	21039
866.793	21039
866.924	21024
867.055	21104
867.186	21020
867.317	21058
867.448	20967
867.579	21020
867.71	21036
867.841	20842
867.972	21055
868.103	20963
868.233	21013
868.364	20994
868.495	21127
868.625	21283
868.756	21447
868.886	21226
869.017	21245
869.147	21447
869.278	21488
869.408	21344
869.539	21332
869.669	21450
869.799	21329
869.929	21363
870.06	21469
870.19	21682
870.32	21633
870.45	21759
870.58	21667
870.71	21762
870.84	21816
870.97	21656
871.1	21663
871.23	21884
871.36	21922
871.489	21808
871.619	21766
871.749	21861
871.879	21888
872.008	22006
872.138	21911
872.267	21854
872.397	21888
872.526	21736
872.656	21690
872.785	21618
872.915	21827
873.044	21994
873.173	21861
873.303	22017
873.432	21903
873.561	22013
873.69	21941
873.819	21949
873.948	22002
874.077	21915
874.206	21934
874.335	21922
874.464	22086
874.593	22181
874.722	22017
874.851	22067
874.979	22192
875.108	22067
875.237	22173
875.365	22120
875.494	22082
875.623	22192
875.751	22128
875.88	22059
876.008	22261
876.136	22318
876.265	22504
876.393	22607
876.521	22592
876.65	22561
876.778	22641
876.906	22519
877.034	22577
877.162	22508
877.29	22485
877.418	22402
877.546	22546
877.674	22424
877.802	22580
877.93	22485
878.058	22466
878.185	22428
878.313	22424
878.441	22409
878.568	22322
878.696	22481
878.824	22508
878.951	22565
879.079	22713
879.206	22755
879.333	22755
879.461	22497
879.588	22512
879.715	22630
879.842	22771
879.97	22603
880.097	22287
880.224	22287
880.351	22268
880.478	22284
880.605	22207
880.732	22371
880.859	22546
880.986	22272
881.112	22173
881.239	22112
881.366	22082
881.493	21903
881.619	21915
881.746	21922
881.872	21934
881.999	21743
882.125	21675
882.252	21827
882.378	21903
882.505	22029
882.631	21667
882.757	21648
882.883	21728
883.01	21648
883.136	21564
883.262	21454
883.388	21412
883.514	21603
883.64	21641
883.766	21481
883.892	21298
884.018	21389
884.143	21443
884.269	21450
884.395	21412
884.52	21123
884.646	21268
884.772	21169
884.897	21074
885.023	21233
885.148	21298
885.274	21389
885.399	21336
885.524	21218
885.65	21241
885.775	21203
885.9	21188
886.025	21363
886.15	21268
886.275	21169
886.4	21112
886.525	21222
886.65	21039
886.775	21119
886.9	21405
887.025	21420
887.149	21108
887.274	20998
887.399	21017
887.523	20963
887.648	20948
887.773	20823
887.897	21093
888.021	21001
888.146	20864
888.27	21051
888.395	20971
888.519	21036
888.643	20986
888.767	21020
888.891	20811
889.015	20716
889.139	20811
889.263	20788
889.387	20883
889.511	20933
889.635	20956
889.759	20735
889.883	20727
890.006	20792
890.13	20819
890.254	20739
890.377	20674
890.501	20556
890.624	20423
890.748	20590
890.871	20476
890.995	20339
891.118	20317
891.241	20412
891.364	20374
891.488	20511
891.611	20438
891.734	20324
891.857	20419
891.98	20408
892.103	20434
892.226	20301
892.349	20294
892.471	20164
892.594	20240
892.717	20218
892.839	20267
892.962	20191
893.085	20362
893.207	20142
893.33	20122
893.452	20115
893.575	20210
893.697	20324
893.819	20275
893.941	20480
894.064	20396
894.186	20248
894.308	20282
894.43	20294
894.552	20377
894.674	20301
894.796	20142
894.918	20332
895.04	20248
895.161	20229
895.283	20317
895.405	20157
895.526	20278
895.648	20199
895.769	20218
895.891	20347
896.012	20313
896.134	20248
896.255	20214
896.376	20362
896.498	20309
896.619	20202
896.74	20233
896.861	20248
896.982	20636
897.103	20796
897.224	20549
897.345	20533
897.466	20339
897.587	20503
897.708	20606
897.828	20526
897.949	20454
898.07	20214
898.19	20480
898.311	20507
898.431	20339
898.552	20518
898.672	20583
898.792	20533
898.913	20514
899.033	20355
899.153	20206
899.273	20111
899.393	20278
899.513	20225
899.633	20385
899.753	20332
899.873	20195
899.993	20126
900.113	20073
900.232	20187
900.352	20096
900.472	20043
900.591	19974
900.711	20065
900.83	19936
900.95	20149
901.069	19970
901.189	19833
901.308	19643
901.427	19506
901.546	19586
901.665	19605
901.784	19563
901.904	19434
902.023	19331
902.141	19114
902.26	19133
902.379	19259
902.498	19187
902.617	19008
902.735	19069
902.854	19057
902.973	19027
903.091	18726
903.21	18677
903.328	18768
903.446	18715
903.565	18544
903.683	18631
903.801	18448
903.919	18566
904.038	18429
904.156	18266
904.274	18334
904.392	18232
904.51	18174
904.627	18380
904.745	18292
904.863	18395
904.981	18171
905.098	18087
905.216	18030
905.334	17946
905.451	17866
905.569	17973
905.686	17942
905.803	18076
905.921	17802
906.038	17912
906.155	17783
906.272	17611
906.389	17767
906.506	17440
906.623	17566
906.74	17532
906.857	17436
906.974	17429
907.091	17646
907.208	17604
907.324	17539
907.441	17429
907.557	17227
907.674	17235
907.79	17235
907.907	17193
908.023	17246
908.139	17223
908.256	17181
908.372	17045
908.488	17041
908.604	16915
908.72	17022
908.836	16946
908.952	16866
909.068	17056
909.184	17094
909.3	16980
909.415	16949
909.531	16877
909.647	16721
909.762	16653
909.878	16694
909.993	16748
910.108	16637
910.224	16584
910.339	16588
910.454	16554
910.57	16447
910.685	16329
910.8	16698
910.915	16577
911.03	16474
911.145	16344
911.259	16200
911.374	16211
911.489	16177
911.604	16093
911.718	15964
911.833	16067
911.947	15865
912.062	15880
912.176	16044
912.291	15922
912.405	16105
912.519	16238
912.633	16131
912.748	16044
912.862	15968
912.976	15842
913.09	15720
913.204	15755
913.318	15789
913.431	15949
913.545	15915
913.659	15918
913.772	15781
913.886	15637
914	15568
914.113	15660
914.226	15759
914.34	15747
914.453	15526
914.566	15629
914.68	15530
914.793	15416
914.906	15275
915.019	15138
915.132	15157
915.245	15279
915.358	15275
915.47	15226
915.583	15211
915.696	15272
915.809	15393
915.921	15279
916.034	15173
916.146	15207
916.259	15093
916.371	15237
916.483	15138
916.595	14986
916.708	15077
916.82	15036
916.932	14929
917.044	15066
917.156	14902
917.268	14876
917.38	14811
917.491	14826
917.603	14853
917.715	14933
917.826	14899
917.938	14754
918.049	14678
918.161	14762
918.272	15028
918.384	14876
918.495	14785
918.606	14613
918.717	14621
918.828	14708
918.939	14583
919.05	14507
919.161	14476
919.272	14366
919.383	14473
919.494	14617
919.604	14785
919.715	14610
919.826	14514
919.936	14530
920.047	14602
920.157	14549
920.267	14796
920.378	14583
920.488	14533
920.598	14735
920.708	14819
920.818	14693
920.928	14712
921.038	14826
921.148	14804
921.258	14454
921.368	14423
921.477	14259
921.587	14393
921.697	14187
921.806	14332
921.916	14073
922.025	14024
922.134	13898
922.244	13875
922.353	13925
922.462	13864
922.571	13860
922.68	13632
922.789	13628
922.898	13662
923.007	13533
923.116	13624
923.224	13567
923.333	13563
923.442	13457
923.55	13430
923.659	13426
923.767	13518
923.876	13396
923.984	13384
924.092	13289
924.201	13396
924.309	13282
924.417	13396
924.525	13274
924.633	13217
924.741	14130
924.849	13031
924.956	13236
925.064	13004
925.172	12993
925.279	13069
925.387	12947
925.494	13076
925.602	13110
925.709	13034
925.816	12954
925.924	12939
926.031	13015
926.138	12913
926.245	12970
926.352	12795
926.459	12996
926.566	13137
926.673	12856
926.779	12768
926.886	12749
926.993	12604
927.099	12540
927.206	12555
927.312	12547
927.419	12688
927.525	12574
927.631	12585
927.737	12460
927.843	12384
927.95	12277
928.056	12376
928.162	12547
928.267	12399
928.373	13015
928.479	12460
928.585	12270
928.69	12422
928.796	12410
928.901	12224
929.007	12087
929.112	12338
929.218	12216
929.323	12125
929.428	12087
929.533	12209
929.638	12053
929.743	12019
929.848	12114
929.953	11958
930.058	11954
930.163	11821
930.267	11798
930.372	11920
930.477	11745
930.581	11980
930.685	11908
930.79	11722
930.894	11752
930.998	11627
931.103	11847
931.207	11486
931.311	11372
931.415	11250
931.519	11140
931.623	11006
