Data from test_V78500241_3599.txt Node
Date: Fri Mar 25 16:06:44 CST 2022
User: usil
Spectrometer: V785-0024
Trigger mode: 0
Integration Time (sec): 4.000000E-1
Scans to average: 1
Nonlinearity correction enabled: false
Boxcar width: 0
Storing dark spectrum: false
XAxis mode: Wavelengths
Number of Pixels in Spectrum: 1024
>>>>>Begin Spectral Data<<<<<
801.071	28771
801.214	28839
801.356	28580
801.499	28489
801.641	28405
801.783	28360
801.926	28352
802.068	28508
802.211	28295
802.353	28352
802.496	28322
802.638	28143
802.78	28067
802.923	28002
803.065	27937
803.208	28086
803.35	28211
803.492	28310
803.635	28234
803.777	28021
803.919	28417
804.061	28485
804.204	28348
804.346	28219
804.488	28169
804.63	28287
804.773	28265
804.915	28367
805.057	28462
805.199	28325
805.341	28478
805.483	28523
805.626	28557
805.768	28470
805.91	28500
806.052	28607
806.194	28428
806.336	28637
806.478	28512
806.62	28470
806.762	28580
806.904	28885
807.046	29033
807.188	28942
807.33	28908
807.472	28957
807.614	29090
807.756	28793
807.898	28995
808.04	28774
808.182	28725
808.324	28812
808.465	28839
808.607	29006
808.749	29140
808.891	29360
809.033	29436
809.174	29436
809.316	29273
809.458	29223
809.6	28984
809.741	29273
809.883	29398
810.025	29581
810.166	29501
810.308	29478
810.45	29402
810.591	29360
810.733	29227
810.875	29208
811.016	29052
811.158	29155
811.299	29220
811.441	29406
811.582	29330
811.724	29250
811.865	29075
812.007	29315
812.148	29250
812.29	29121
812.431	29459
812.573	29642
812.714	29756
812.855	29901
812.997	29802
813.138	29935
813.279	29882
813.421	29794
813.562	29707
813.703	29452
813.845	29463
813.986	29102
814.127	29067
814.268	29010
814.41	28793
814.551	28957
814.692	28987
814.833	28873
814.974	28850
815.115	28957
815.256	28839
815.397	28904
815.539	28812
815.68	28725
815.821	28649
815.962	28797
816.103	28679
816.244	28706
816.385	28637
816.526	28519
816.666	28401
816.807	28299
816.948	28306
817.089	28344
817.23	28356
817.371	28284
817.512	28268
817.653	28177
817.793	28295
817.934	28367
818.075	28223
818.216	28253
818.356	28207
818.497	28188
818.638	28013
818.778	27953
818.919	28109
819.06	28036
819.2	28226
819.341	28265
819.481	28181
819.622	28394
819.762	28615
819.903	28588
820.043	28512
820.184	28348
820.324	28363
820.465	28371
820.605	28375
820.746	28421
820.886	28329
821.026	28371
821.167	28329
821.307	28314
821.447	28223
821.588	28086
821.728	28162
821.868	27911
822.008	27698
822.149	27694
822.289	27720
822.429	27542
822.569	27405
822.709	27348
822.849	27249
822.99	27310
823.13	27176
823.27	27294
823.41	27112
823.55	27020
823.69	27043
823.83	27066
823.97	27058
824.11	26834
824.25	26792
824.389	26933
824.529	26895
824.669	26944
824.809	27062
824.949	27100
825.089	26986
825.228	26876
825.368	26861
825.508	26735
825.648	26864
825.787	26826
825.927	26861
826.067	26773
826.206	26705
826.346	26773
826.485	26963
826.625	26686
826.765	26914
826.904	26781
827.044	26640
827.183	26689
827.323	26480
827.462	26526
827.601	26541
827.741	26457
827.88	26374
828.02	26358
828.159	26419
828.298	26419
828.437	26465
828.577	26537
828.716	26632
828.855	26358
828.994	26214
829.134	26183
829.273	26199
829.412	26107
829.551	26206
829.69	26252
829.829	26225
829.968	26244
830.107	26290
830.246	26062
830.385	26187
830.524	26027
830.663	25925
830.802	26039
830.941	25738
831.08	25852
831.219	25898
831.357	25959
831.496	26008
831.635	25799
831.774	25761
831.913	25594
832.051	25540
832.19	25620
832.329	25597
832.467	25540
832.606	25559
832.744	25358
832.883	25460
833.022	25331
833.16	25499
833.299	25548
833.437	25571
833.576	25502
833.714	25525
833.852	25438
833.991	25563
834.129	25696
834.267	25662
834.406	25415
834.544	25556
834.682	25597
834.821	25495
834.959	25746
835.097	25441
835.235	25499
835.373	25582
835.511	25502
835.65	25388
835.788	25407
835.926	25282
836.064	25076
836.202	25160
836.34	25251
836.478	25502
836.615	25419
836.753	25293
836.891	25308
837.029	25419
837.167	25198
837.305	25381
837.443	25244
837.58	25247
837.718	25282
837.856	25148
837.993	25133
838.131	25088
838.269	25008
838.406	24985
838.544	24954
838.681	24867
838.819	24707
838.956	24707
839.094	24555
839.231	24661
839.369	24787
839.506	25008
839.643	24844
839.781	24783
839.918	24540
840.055	24597
840.193	24525
840.33	24597
840.467	24566
840.604	24608
840.742	24791
840.879	24384
841.016	24429
841.153	24479
841.29	24783
841.427	24410
841.564	24544
841.701	24525
841.838	24441
841.975	24418
842.112	24384
842.249	24426
842.385	24475
842.522	24513
842.659	24429
842.796	24289
842.933	24273
843.069	24174
843.206	24235
843.343	24281
843.479	24292
843.616	24243
843.752	24087
843.889	24053
844.025	24235
844.162	24057
844.298	24167
844.435	24015
844.571	24064
844.708	24060
844.844	24163
844.98	24155
845.117	24201
845.253	24091
845.389	24003
845.525	23939
845.661	23863
845.798	23901
845.934	23931
846.07	23916
846.206	23988
846.342	23847
846.478	23775
846.614	23539
846.75	23623
846.886	23490
847.022	23627
847.158	23562
847.294	23581
847.429	23486
847.565	23440
847.701	23687
847.837	23330
847.972	23231
848.108	23376
848.244	23379
848.379	23102
848.515	23094
848.65	23181
848.786	23151
848.921	23121
849.057	23029
849.192	23204
849.328	23239
849.463	23071
849.598	23216
849.734	22999
849.869	22991
850.004	22908
850.14	22866
850.275	22759
850.41	22748
850.545	22816
850.68	22850
850.815	22968
850.95	22889
851.085	22869
851.22	23056
851.355	22915
851.49	22885
851.625	22771
851.76	22763
851.895	22793
852.03	22805
852.165	22892
852.299	22877
852.434	22885
852.569	22946
852.703	22927
852.838	22805
852.973	22980
853.107	23022
853.242	22801
853.376	22713
853.511	22565
853.645	22596
853.78	22869
853.914	22706
854.048	22649
854.183	22603
854.317	22793
854.451	22812
854.585	22736
854.72	22603
854.854	22858
854.988	22679
855.122	22824
855.256	22508
855.39	22752
855.524	22740
855.658	22790
855.792	22577
855.926	22710
856.06	22820
856.194	22774
856.327	22706
856.461	22664
856.595	22687
856.729	22569
856.862	22839
856.996	22698
857.13	22683
857.263	22831
857.397	22820
857.53	22736
857.664	22828
857.797	22885
857.931	22782
858.064	22683
858.197	22896
858.331	22736
858.464	22584
858.597	22691
858.731	22634
858.864	22611
858.997	22622
859.13	22687
859.263	22744
859.396	22843
859.529	22698
859.662	22717
859.795	22641
859.928	22713
860.061	22911
860.194	22889
860.327	22771
860.46	22611
860.592	22850
860.725	22839
860.858	22755
860.99	22702
861.123	22721
861.256	22611
861.388	22767
861.521	23493
861.653	22504
861.786	22462
861.918	22481
862.05	22569
862.183	22546
862.315	22752
862.447	22672
862.58	22523
862.712	22481
862.844	22405
862.976	22554
863.108	22409
863.24	22744
863.372	22303
863.504	22363
863.636	22295
863.768	22565
863.9	22432
864.032	22325
864.164	22322
864.296	22325
864.428	22394
864.559	22542
864.691	22508
864.823	22440
864.954	22462
865.086	22421
865.217	22276
865.349	22219
865.48	22162
865.612	22299
865.743	22417
865.875	22303
866.006	22265
866.137	22337
866.269	22318
866.4	22272
866.531	22219
866.662	22158
866.793	22192
866.924	22246
867.055	22291
867.186	22169
867.317	22204
867.448	22173
867.579	22120
867.71	22116
867.841	22067
867.972	22238
868.103	22356
868.233	22314
868.364	22059
868.495	22295
868.625	22409
868.756	22535
868.886	22424
869.017	22493
869.147	22527
869.278	22622
869.408	22519
869.539	22432
869.669	22478
869.799	22424
869.929	22584
870.06	22527
870.19	22740
870.32	22675
870.45	22850
870.58	22774
870.71	22987
870.84	22968
870.97	22927
871.1	22847
871.23	23033
871.36	23025
871.489	22869
871.619	22980
871.749	23067
871.879	23170
872.008	23181
872.138	23132
872.267	23083
872.397	22968
872.526	22873
872.656	22961
872.785	22930
872.915	23098
873.044	23143
873.173	22984
873.303	23102
873.432	23124
873.561	23185
873.69	23128
873.819	23098
873.948	23185
874.077	23071
874.206	22965
874.335	23018
874.464	23185
874.593	23269
874.722	23124
874.851	23265
874.979	23178
875.108	23273
875.237	23223
875.365	23204
875.494	23212
875.623	23395
875.751	23265
875.88	23227
876.008	23398
876.136	23425
876.265	23756
876.393	23767
876.521	23695
876.65	23813
876.778	23592
876.906	23581
877.034	23691
877.162	23592
877.29	23490
877.418	23764
877.546	23455
877.674	23440
877.802	23512
877.93	23623
878.058	23570
878.185	23436
878.313	23710
878.441	23585
878.568	23440
878.696	23429
878.824	23600
878.951	23714
879.079	23722
879.206	23813
879.333	23676
879.461	23672
879.588	23653
879.715	23699
879.842	23893
879.97	23764
880.097	23414
880.224	23417
880.351	23398
880.478	23520
880.605	23200
880.732	23315
880.859	23630
880.986	23440
881.112	23414
881.239	23440
881.366	23284
881.493	23018
881.619	22961
881.746	23102
881.872	23044
881.999	22900
882.125	22919
882.252	22930
882.378	22831
882.505	23124
882.631	22847
882.757	22622
882.883	22793
883.01	22721
883.136	22500
883.262	22550
883.388	22504
883.514	22645
883.64	22721
883.766	22592
883.892	22432
884.018	22538
884.143	22523
884.269	22698
884.395	22390
884.52	22322
884.646	22291
884.772	22265
884.897	22177
885.023	22356
885.148	22352
885.274	22538
885.399	22413
885.524	22177
885.65	22352
885.775	22356
885.9	22287
886.025	22344
886.15	22204
886.275	22246
886.4	22204
886.525	22169
886.65	22116
886.775	22188
886.9	22360
887.025	22371
887.149	22188
887.274	22154
887.399	22082
887.523	21972
887.648	21994
887.773	21949
887.897	22101
888.021	22051
888.146	21991
888.27	22154
888.395	22204
888.519	21975
888.643	22032
888.767	22025
888.891	21941
889.015	21903
889.139	21838
889.263	21831
889.387	21937
889.511	22086
889.635	22002
889.759	21785
889.883	21789
890.006	21728
890.13	21892
890.254	21831
890.377	21850
890.501	21568
890.624	21526
890.748	21652
890.871	21488
890.995	21462
891.118	21317
891.241	21298
891.364	21420
891.488	21447
891.611	21340
891.734	21401
891.857	21428
891.98	21355
892.103	21348
892.226	21359
892.349	21317
892.471	21173
892.594	21329
892.717	21294
892.839	21279
892.962	21408
893.085	21443
893.207	21173
893.33	21157
893.452	21252
893.575	21412
893.697	21180
893.819	21374
893.941	21428
894.064	21359
894.186	21104
894.308	21100
894.43	21275
894.552	21378
894.674	21420
894.796	21135
894.918	21344
895.04	21252
895.161	21367
895.283	21245
895.405	21173
895.526	21180
895.648	21146
895.769	21340
895.891	21268
896.012	21340
896.134	21401
896.255	21302
896.376	21165
896.498	21256
896.619	21230
896.74	21203
896.861	21298
896.982	21496
897.103	21675
897.224	21443
897.345	21370
897.466	21359
897.587	21447
897.708	21511
897.828	21534
897.949	21306
898.07	21321
898.19	21332
898.311	21580
898.431	21348
898.552	21447
898.672	21599
898.792	21450
898.913	21462
899.033	21241
899.153	21188
899.273	21112
899.393	21173
899.513	21142
899.633	21237
899.753	21173
899.873	21108
899.993	21116
900.113	21116
900.232	21104
900.352	21112
900.472	20921
900.591	20975
900.711	20845
900.83	20853
900.95	20941
901.069	21055
901.189	20762
901.308	20583
901.427	20514
901.546	20533
901.665	20518
901.784	20545
901.904	20301
902.023	20248
902.141	20130
902.26	19909
902.379	20046
902.498	19982
902.617	19913
902.735	20001
902.854	19909
902.973	19978
903.091	19727
903.21	19518
903.328	19639
903.446	19590
903.565	19540
903.683	19510
903.801	19278
903.919	19457
904.038	19472
904.156	19293
904.274	19232
904.392	19255
904.51	19217
904.627	19225
904.745	19175
904.863	19266
904.981	18981
905.098	18909
905.216	18890
905.334	18913
905.451	18867
905.569	18882
905.686	18894
905.803	18897
905.921	18544
906.038	18814
906.155	18749
906.272	18513
906.389	18547
906.506	18422
906.623	18483
906.74	18384
906.857	18209
906.974	18311
907.091	18471
907.208	18350
907.324	18372
907.441	18330
907.557	18106
907.674	18140
907.79	18030
907.907	18072
908.023	18064
908.139	18136
908.256	18026
908.372	17977
908.488	17851
908.604	17935
908.72	17714
908.836	17775
908.952	17790
909.068	17802
909.184	17920
909.3	17863
909.415	17885
909.531	17783
909.647	17600
909.762	17570
909.878	17505
909.993	17619
910.108	17512
910.224	17406
910.339	17478
910.454	17410
910.57	17315
910.685	17277
910.8	17608
910.915	17360
911.03	17387
911.145	17208
911.259	17033
911.374	16987
911.489	17041
911.604	16999
911.718	16809
911.833	16820
911.947	16679
912.062	16622
912.176	16824
912.291	16790
912.405	16911
912.519	17079
912.633	17083
912.748	16831
912.862	16889
912.976	16634
913.09	16584
913.204	16615
913.318	16615
913.431	16702
913.545	16634
913.659	16565
913.772	16603
913.886	16443
914	16470
914.113	16459
914.226	16500
914.34	16432
914.453	16215
914.566	16379
914.68	16356
914.793	16211
914.906	16105
915.019	16021
915.132	15960
915.245	15960
915.358	16040
915.47	15926
915.583	15983
915.696	15987
915.809	16074
915.921	16169
916.034	15994
916.146	15945
916.259	15861
916.371	16067
916.483	15968
916.595	15865
916.708	15838
916.82	15823
916.932	15789
917.044	15762
917.156	15713
917.268	15618
917.38	15667
917.491	15713
917.603	15724
917.715	15709
917.826	15785
917.938	15488
918.049	15504
918.161	15690
918.272	15739
918.384	15705
918.495	15603
918.606	15485
918.717	15401
918.828	15462
918.939	15386
919.05	15275
919.161	15268
919.272	15211
919.383	15188
919.494	15405
919.604	15526
919.715	15336
919.826	15389
919.936	15306
920.047	15336
920.157	15317
920.267	15561
920.378	15386
920.488	15180
920.598	15515
920.708	15591
920.818	15435
920.928	15466
921.038	15671
921.148	15545
921.258	15283
921.368	15131
921.477	14975
921.587	15062
921.697	14960
921.806	15051
921.916	14963
922.025	14781
922.134	14705
922.244	14689
922.353	14781
922.462	14568
922.571	14560
922.68	14431
922.789	14381
922.898	14336
923.007	14298
923.116	14404
923.224	14332
923.333	14301
923.442	14237
923.55	14172
923.659	14172
923.767	14229
923.876	14020
923.984	14259
924.092	14126
924.201	14039
924.309	14027
924.417	14001
924.525	13902
924.633	13849
924.741	14842
924.849	13662
924.956	13868
925.064	13719
925.172	13712
925.279	13670
925.387	13780
925.494	13738
925.602	13868
925.709	13731
925.816	13514
925.924	13704
926.031	13704
926.138	13533
926.245	13674
926.352	13537
926.459	13658
926.566	13655
926.673	13521
926.779	13400
926.886	13487
926.993	13255
927.099	13263
927.206	13202
927.312	13187
927.419	13285
927.525	13187
927.631	13228
927.737	13168
927.843	13133
927.95	13012
928.056	13145
928.162	13023
928.267	13126
928.373	13689
928.479	13069
928.585	12878
928.69	13034
928.796	12985
928.901	12817
929.007	12760
929.112	12844
929.218	12890
929.323	12825
929.428	12726
929.533	12878
929.638	12650
929.743	12711
929.848	12753
929.953	12631
930.058	12528
930.163	12403
930.267	12330
930.372	12593
930.477	12467
930.581	12654
930.685	12521
930.79	12239
930.894	12281
930.998	12247
931.103	12388
931.207	12022
931.311	11939
931.415	11988
931.519	11783
931.623	11642
