Data from test_V78500241_346.txt Node
Date: Fri Mar 25 15:44:11 CST 2022
User: usil
Spectrometer: V785-0024
Trigger mode: 0
Integration Time (sec): 4.000000E-1
Scans to average: 1
Nonlinearity correction enabled: false
Boxcar width: 0
Storing dark spectrum: false
XAxis mode: Wavelengths
Number of Pixels in Spectrum: 1024
>>>>>Begin Spectral Data<<<<<
801.071	29672
801.214	29619
801.356	29356
801.499	29383
801.641	29185
801.783	29261
801.926	29204
802.068	29235
802.211	29121
802.353	29067
802.496	28991
802.638	28934
802.78	28968
802.923	28946
803.065	28869
803.208	28881
803.35	29010
803.492	29048
803.635	29033
803.777	29185
803.919	29166
804.061	29417
804.204	29086
804.346	29109
804.488	28965
804.63	29235
804.773	28938
804.915	29193
805.057	29204
805.199	29220
805.341	29193
805.483	29143
805.626	29162
805.768	29136
805.91	29227
806.052	29227
806.194	29223
806.336	29398
806.478	29299
806.62	29162
806.762	29433
806.904	29543
807.046	29920
807.188	29687
807.33	29714
807.472	29733
807.614	29665
807.756	29604
807.898	29486
808.04	29322
808.182	29589
808.324	29551
808.465	29425
808.607	29638
808.749	29859
808.891	30209
809.033	30034
809.174	29950
809.316	29897
809.458	30011
809.6	29874
809.741	29988
809.883	29996
810.025	30155
810.166	30057
810.308	30197
810.45	30163
810.591	30194
810.733	29996
810.875	29882
811.016	29707
811.158	29809
811.299	29927
811.441	30098
811.582	30057
811.724	29908
811.865	29980
812.007	29942
812.148	29874
812.29	30018
812.431	29958
812.573	30228
812.714	30251
812.855	30464
812.997	30391
813.138	30604
813.279	30536
813.421	30467
813.562	30369
813.703	30186
813.845	29870
813.986	29802
814.127	29608
814.268	29642
814.41	29490
814.551	29573
814.692	29623
814.833	29448
814.974	29531
815.115	29646
815.256	29547
815.397	29455
815.539	29360
815.68	29444
815.821	29410
815.962	29345
816.103	29410
816.244	29231
816.385	29159
816.526	29189
816.666	28934
816.807	28744
816.948	28972
817.089	28965
817.23	28778
817.371	28786
817.512	28968
817.653	28946
817.793	28778
817.934	28759
818.075	28767
818.216	28923
818.356	28740
818.497	28656
818.638	28401
818.778	28451
818.919	28596
819.06	28740
819.2	28645
819.341	28691
819.481	28831
819.622	28930
819.762	29128
819.903	29105
820.043	28805
820.184	28873
820.324	28786
820.465	29083
820.605	28957
820.746	28862
820.886	28691
821.026	28812
821.167	28748
821.307	28843
821.447	28797
821.588	28645
821.728	28565
821.868	28253
822.008	28261
822.149	28162
822.289	28230
822.429	27800
822.569	27755
822.709	27869
822.849	27713
822.99	27450
823.13	27603
823.27	27705
823.41	27466
823.55	27386
823.69	27504
823.83	27538
823.97	27462
824.11	27180
824.25	27325
824.389	27275
824.529	27363
824.669	27351
824.809	27431
824.949	27538
825.089	27351
825.228	27378
825.368	27214
825.508	27173
825.648	27104
825.787	27138
825.927	27260
826.067	27123
826.206	27157
826.346	27283
826.485	27211
826.625	27036
826.765	27249
826.904	27173
827.044	27013
827.183	26944
827.323	26880
827.462	26956
827.601	26830
827.741	26712
827.88	26815
828.02	26644
828.159	26872
828.298	26925
828.437	26868
828.577	26807
828.716	26967
828.855	26693
828.994	26552
829.134	26431
829.273	26640
829.412	26408
829.551	26438
829.69	26552
829.829	26518
829.968	26499
830.107	26609
830.246	26514
830.385	26453
830.524	26240
830.663	26317
830.802	26237
830.941	26092
831.08	25993
831.219	26172
831.357	26138
831.496	26210
831.635	26065
831.774	26008
831.913	25940
832.051	25917
832.19	25837
832.329	25921
832.467	25700
832.606	25811
832.744	25693
832.883	25708
833.022	25753
833.16	25662
833.299	25708
833.437	25704
833.576	25856
833.714	25753
833.852	25841
833.991	25700
834.129	25788
834.267	25849
834.406	25677
834.544	25613
834.682	25700
834.821	25677
834.959	25837
835.097	25597
835.235	25746
835.373	25708
835.511	25693
835.65	25586
835.788	25624
835.926	25434
836.064	25282
836.202	25373
836.34	25632
836.478	25533
836.615	25510
836.753	25510
836.891	25616
837.029	25563
837.167	25434
837.305	25491
837.443	25533
837.58	25388
837.718	25377
837.856	25415
837.993	25350
838.131	25266
838.269	25244
838.406	25194
838.544	25156
838.681	25004
838.819	24966
838.956	24593
839.094	24745
839.231	24810
839.369	25008
839.506	25076
839.643	24928
839.781	24798
839.918	24715
840.055	24810
840.193	24760
840.33	24631
840.467	24776
840.604	24749
840.742	24958
840.879	24574
841.016	24563
841.153	24563
841.29	24829
841.427	24578
841.564	24631
841.701	24677
841.838	24566
841.975	24593
842.112	24719
842.249	24460
842.385	24483
842.522	24612
842.659	24483
842.796	24323
842.933	24323
843.069	24262
843.206	24258
843.343	24311
843.479	24399
843.616	24361
843.752	24110
843.889	24091
844.025	24350
844.162	24186
844.298	24235
844.435	24144
844.571	24114
844.708	24296
844.844	24395
844.98	24209
845.117	24304
845.253	24140
845.389	24038
845.525	24018
845.661	24057
845.798	23794
845.934	23961
846.07	23783
846.206	23832
846.342	24117
846.478	23798
846.614	23672
846.75	23547
846.886	23551
847.022	23623
847.158	23520
847.294	23642
847.429	23608
847.565	23627
847.701	23737
847.837	23353
847.972	23178
848.108	23356
848.244	23353
848.379	23193
848.515	23132
848.65	23083
848.786	23060
848.921	23025
849.057	23239
849.192	23200
849.328	23124
849.463	23136
849.598	23048
849.734	22961
849.869	22915
850.004	22866
850.14	22869
850.275	22987
850.41	22801
850.545	22790
850.68	22866
850.815	22797
850.95	22892
851.085	23041
851.22	22919
851.355	22782
851.49	22805
851.625	22843
851.76	22877
851.895	22755
852.03	22725
852.165	22828
852.299	22839
852.434	22987
852.569	22854
852.703	22759
852.838	22873
852.973	23003
853.107	22915
853.242	22729
853.376	22599
853.511	22588
853.645	22729
853.78	22729
853.914	22786
854.048	22584
854.183	22580
854.317	22797
854.451	22896
854.585	22577
854.72	22626
854.854	22691
854.988	22660
855.122	22683
855.256	22565
855.39	22649
855.524	22744
855.658	22778
855.792	22596
855.926	22645
856.06	22645
856.194	22710
856.327	22672
856.461	22489
856.595	22436
856.729	22691
856.862	22698
856.996	22725
857.13	22771
857.263	22706
857.397	22797
857.53	22634
857.664	22702
857.797	22927
857.931	22820
858.064	22702
858.197	22637
858.331	22630
858.464	22584
858.597	22516
858.731	22519
858.864	22634
858.997	22497
859.13	22649
859.263	22656
859.396	22664
859.529	22584
859.662	22542
859.795	22573
859.928	22554
860.061	22809
860.194	22881
860.327	22641
860.46	22664
860.592	22744
860.725	22820
860.858	22721
860.99	22744
861.123	22474
861.256	22626
861.388	22592
861.521	23315
861.653	22569
861.786	22470
861.918	22481
862.05	22535
862.183	22516
862.315	22618
862.447	22702
862.58	22577
862.712	22360
862.844	22257
862.976	22493
863.108	22352
863.24	22577
863.372	22169
863.504	22310
863.636	22299
863.768	22348
863.9	22234
864.032	22177
864.164	22249
864.296	22322
864.428	22386
864.559	22344
864.691	22379
864.823	22200
864.954	22344
865.086	22249
865.217	22128
865.349	22185
865.48	22135
865.612	22173
865.743	22253
865.875	22230
866.006	22131
866.137	22116
866.269	22188
866.4	22280
866.531	22093
866.662	21975
866.793	22124
866.924	22093
867.055	22109
867.186	22124
867.317	22139
867.448	21960
867.579	22032
867.71	21964
867.841	21960
867.972	22002
868.103	21998
868.233	22135
868.364	22162
868.495	22196
868.625	22295
868.756	22299
868.886	22299
869.017	22337
869.147	22341
869.278	22500
869.408	22360
869.539	22417
869.669	22337
869.799	22436
869.929	22523
870.06	22318
870.19	22516
870.32	22611
870.45	22664
870.58	22675
870.71	22854
870.84	22900
870.97	22634
871.1	22694
871.23	22923
871.36	23018
871.489	22675
871.619	22892
871.749	22904
871.879	22984
872.008	23048
872.138	22866
872.267	22904
872.397	22847
872.526	22805
872.656	22744
872.785	22759
872.915	22949
873.044	22972
873.173	22771
873.303	23071
873.432	22968
873.561	23003
873.69	22987
873.819	22892
873.948	23056
874.077	22949
874.206	22953
874.335	22938
874.464	23083
874.593	23166
874.722	23132
874.851	23155
874.979	23258
875.108	23280
875.237	23052
875.365	23166
875.494	23052
875.623	23307
875.751	23140
875.88	23189
876.008	23280
876.136	23322
876.265	23520
876.393	23665
876.521	23577
876.65	23615
876.778	23512
876.906	23349
877.034	23505
877.162	23433
877.29	23509
877.418	23608
877.546	23520
877.674	23452
877.802	23497
877.93	23520
878.058	23630
878.185	23562
878.313	23490
878.441	23474
878.568	23250
878.696	23482
878.824	23486
878.951	23474
879.079	23653
879.206	23783
879.333	23680
879.461	23387
879.588	23581
879.715	23615
879.842	23695
879.97	23570
880.097	23299
880.224	23364
880.351	23299
880.478	23353
880.605	23227
880.732	23307
880.859	23528
880.986	23322
881.112	23341
881.239	23231
881.366	22927
881.493	22972
881.619	22782
881.746	22904
881.872	22938
881.999	22904
882.125	22854
882.252	22881
882.378	22854
882.505	22980
882.631	22687
882.757	22710
882.883	22702
883.01	22398
883.136	22470
883.262	22371
883.388	22325
883.514	22535
883.64	22550
883.766	22565
883.892	22265
884.018	22363
884.143	22405
884.269	22474
884.395	22390
884.52	22230
884.646	22249
884.772	22226
884.897	22067
885.023	22147
885.148	22211
885.274	22424
885.399	22173
885.524	22215
885.65	22120
885.775	22265
885.9	22116
886.025	22287
886.15	22215
886.275	22082
886.4	22002
886.525	22280
886.65	22036
886.775	22055
886.9	22204
887.025	22421
887.149	22128
887.274	22051
887.399	21911
887.523	21994
887.648	21861
887.773	21888
887.897	21998
888.021	21911
888.146	22032
888.27	21907
888.395	22029
888.519	21979
888.643	21930
888.767	21998
888.891	21895
889.015	21599
889.139	21842
889.263	21644
889.387	21846
889.511	21842
889.635	21816
889.759	21641
889.883	21538
890.006	21705
890.13	21774
890.254	21690
890.377	21637
890.501	21576
890.624	21382
890.748	21477
890.871	21458
890.995	21230
891.118	21154
891.241	21214
891.364	21302
891.488	21291
891.611	21329
891.734	21249
891.857	21359
891.98	21332
892.103	21283
892.226	21176
892.349	21245
892.471	21013
892.594	21146
892.717	21176
892.839	21211
892.962	21241
893.085	21298
893.207	21268
893.33	20952
893.452	21028
893.575	21116
893.697	21169
893.819	21249
893.941	21306
894.064	21401
894.186	21104
894.308	21127
894.43	21329
894.552	21294
894.674	21336
894.796	20982
894.918	21116
895.04	21055
895.161	21135
895.283	21039
895.405	21047
895.526	21043
895.648	21116
895.769	21100
895.891	21180
896.012	21157
896.134	21074
896.255	21150
896.376	21028
896.498	21211
896.619	21184
896.74	21203
896.861	21195
896.982	21424
897.103	21576
897.224	21431
897.345	21302
897.466	21233
897.587	21302
897.708	21389
897.828	21275
897.949	21241
898.07	21184
898.19	21313
898.311	21412
898.431	21272
898.552	21329
898.672	21329
898.792	21332
898.913	21310
899.033	21241
899.153	20986
899.273	21001
899.393	21104
899.513	21066
899.633	21123
899.753	21032
899.873	21036
899.993	21093
900.113	20952
900.232	20910
900.352	20853
900.472	20853
900.591	20872
900.711	20819
900.83	20648
900.95	20880
901.069	20925
901.189	20697
901.308	20476
901.427	20275
901.546	20374
901.665	20393
901.784	20427
901.904	20191
902.023	20096
902.141	19959
902.26	19906
902.379	20008
902.498	19875
902.617	19871
902.735	19947
902.854	19742
902.973	19811
903.091	19514
903.21	19540
903.328	19460
903.446	19434
903.565	19282
903.683	19373
903.801	19217
903.919	19270
904.038	19148
904.156	19107
904.274	19148
904.392	18973
904.51	19050
904.627	19133
904.745	19012
904.863	19095
904.981	18791
905.098	18639
905.216	18612
905.334	18791
905.451	18688
905.569	18635
905.686	18840
905.803	18681
905.921	18532
906.038	18570
906.155	18467
906.272	18445
906.389	18437
906.506	18182
906.623	18201
906.74	18224
906.857	18197
906.974	18087
907.091	18315
907.208	18277
907.324	18292
907.441	18057
907.557	18053
907.674	18003
907.79	17836
907.907	17889
908.023	17988
908.139	18034
908.256	17863
908.372	17767
908.488	17843
908.604	17649
908.72	17589
908.836	17589
908.952	17433
909.068	17661
909.184	17684
909.3	17608
909.415	17615
909.531	17570
909.647	17440
909.762	17345
909.878	17307
909.993	17288
910.108	17261
910.224	17261
910.339	17299
910.454	17239
910.57	17136
910.685	17006
910.8	17212
910.915	17299
911.03	17117
911.145	16885
911.259	16919
911.374	16782
911.489	16908
911.604	16717
911.718	16592
911.833	16744
911.947	16466
912.062	16538
912.176	16569
912.291	16668
912.405	16565
912.519	16767
912.633	16774
912.748	16554
912.862	16618
912.976	16394
913.09	16253
913.204	16352
913.318	16440
913.431	16451
913.545	16451
913.659	16504
913.772	16344
913.886	16303
914	16162
914.113	16257
914.226	16284
914.34	16268
914.453	16017
914.566	16196
914.68	16112
914.793	15968
914.906	15983
915.019	15800
915.132	15736
915.245	15842
915.358	15797
915.47	15701
915.583	15857
915.696	15808
915.809	15949
915.921	15816
916.034	15694
916.146	15694
916.259	15686
916.371	15648
916.483	15679
916.595	15690
916.708	15728
916.82	15625
916.932	15686
917.044	15591
917.156	15637
917.268	15374
917.38	15408
917.491	15397
917.603	15450
917.715	15549
917.826	15492
917.938	15287
918.049	15188
918.161	15359
918.272	15447
918.384	15477
918.495	15382
918.606	15291
918.717	15097
918.828	15161
918.939	15112
919.05	14971
919.161	15146
919.272	14906
919.383	15009
919.494	15237
919.604	15287
919.715	15116
919.826	14986
919.936	15207
920.047	15226
920.157	15138
920.267	15310
920.378	14944
920.488	14990
920.598	15199
920.708	15317
920.818	15306
920.928	15275
921.038	15370
921.148	15252
921.258	14944
921.368	14902
921.477	14781
921.587	14769
921.697	14602
921.806	14735
921.916	14617
922.025	14541
922.134	14446
922.244	14393
922.353	14484
922.462	14282
922.571	14313
922.68	14058
922.789	14043
922.898	14062
923.007	13936
923.116	14077
923.224	13974
923.333	14107
923.442	13978
923.55	13849
923.659	13849
923.767	13974
923.876	13906
923.984	13898
924.092	13837
924.201	13765
924.309	13784
924.417	13811
924.525	13784
924.633	13811
924.741	14533
924.849	13514
924.956	13753
925.064	13571
925.172	13392
925.279	13457
925.387	13415
925.494	13559
925.602	13601
925.709	13445
925.816	13293
925.924	13449
926.031	13457
926.138	13392
926.245	13460
926.352	13438
926.459	13438
926.566	13403
926.673	13251
926.779	13244
926.886	13187
926.993	13038
927.099	13076
927.206	12958
927.312	12913
927.419	12973
927.525	12989
927.631	13038
927.737	12871
927.843	12840
927.95	12738
928.056	12871
928.162	12779
928.267	12882
928.373	13419
928.479	12909
928.585	12798
928.69	12753
928.796	12764
928.901	12673
929.007	12502
929.112	12738
929.218	12654
929.323	12555
929.428	12559
929.533	12582
929.638	12410
929.743	12483
929.848	12582
929.953	12384
930.058	12353
930.163	12117
930.267	12220
930.372	12285
930.477	12136
930.581	12376
930.685	12273
930.79	12007
930.894	12140
930.998	12049
931.103	12117
931.207	11760
931.311	11703
931.415	11684
931.519	11543
931.623	11410
