Data from test_V78500241_95.txt Node
Date: Fri Mar 25 15:42:27 CST 2022
User: usil
Spectrometer: V785-0024
Trigger mode: 0
Integration Time (sec): 4.000000E-1
Scans to average: 1
Nonlinearity correction enabled: false
Boxcar width: 0
Storing dark spectrum: false
XAxis mode: Wavelengths
Number of Pixels in Spectrum: 1024
>>>>>Begin Spectral Data<<<<<
801.071	29581
801.214	29577
801.356	29280
801.499	29239
801.641	29033
801.783	29098
801.926	29102
802.068	28991
802.211	28877
802.353	28877
802.496	28672
802.638	28809
802.78	28660
802.923	28569
803.065	28588
803.208	28721
803.35	28725
803.492	28763
803.635	28801
803.777	28729
803.919	28763
804.061	29079
804.204	28653
804.346	28687
804.488	28702
804.63	28733
804.773	28729
804.915	28698
805.057	28828
805.199	28759
805.341	28774
805.483	28881
805.626	28923
805.768	28755
805.91	28850
806.052	28888
806.194	28771
806.336	29048
806.478	28877
806.62	28919
806.762	29048
806.904	29052
807.046	29307
807.188	29273
807.33	29200
807.472	29261
807.614	29109
807.756	29117
807.898	29105
808.04	29067
808.182	28999
808.324	28934
808.465	29189
808.607	29216
808.749	29433
808.891	29551
809.033	29448
809.174	29516
809.316	29372
809.458	29315
809.6	29372
809.741	29288
809.883	29429
810.025	29505
810.166	29653
810.308	29554
810.45	29672
810.591	29444
810.733	29463
810.875	29334
811.016	29303
811.158	29231
811.299	29402
811.441	29467
811.582	29554
811.724	29341
811.865	29299
812.007	29356
812.148	29284
812.29	29334
812.431	29414
812.573	29707
812.714	29634
812.855	29840
812.997	29733
813.138	30057
813.279	29878
813.421	29771
813.562	29802
813.703	29646
813.845	29543
813.986	29121
814.127	28999
814.268	28972
814.41	28965
814.551	28949
814.692	28930
814.833	28755
814.974	28729
815.115	28900
815.256	28561
815.397	28645
815.539	28736
815.68	28782
815.821	28451
815.962	28660
816.103	28599
816.244	28474
816.385	28371
816.526	28303
816.666	28238
816.807	28017
816.948	28078
817.089	28097
817.23	28044
817.371	27991
817.512	27975
817.653	28120
817.793	27911
817.934	27865
818.075	28010
818.216	27956
818.356	27968
818.497	27907
818.638	27717
818.778	27793
818.919	27759
819.06	27930
819.2	27770
819.341	27956
819.481	27937
819.622	28040
819.762	28318
819.903	28200
820.043	28059
820.184	27968
820.324	28112
820.465	28173
820.605	27998
820.746	27914
820.886	27838
821.026	27865
821.167	27979
821.307	27949
821.447	27831
821.588	27682
821.728	27603
821.868	27462
822.008	27230
822.149	27427
822.289	27180
822.429	27233
822.569	27085
822.709	26971
822.849	26765
822.99	26918
823.13	26807
823.27	26769
823.41	26625
823.55	26511
823.69	26583
823.83	26587
823.97	26579
824.11	26412
824.25	26408
824.389	26355
824.529	26374
824.669	26286
824.809	26511
824.949	26427
825.089	26484
825.228	26320
825.368	26233
825.508	26138
825.648	26305
825.787	26202
825.927	26138
826.067	26069
826.206	26100
826.346	26225
826.485	26332
826.625	26126
826.765	26237
826.904	26130
827.044	25932
827.183	25959
827.323	25833
827.462	25852
827.601	25833
827.741	25852
827.88	25898
828.02	25761
828.159	25925
828.298	25780
828.437	25765
828.577	25753
828.716	25959
828.855	25613
828.994	25647
829.134	25586
829.273	25548
829.412	25411
829.551	25384
829.69	25613
829.829	25468
829.968	25635
830.107	25655
830.246	25445
830.385	25460
830.524	25365
830.663	25343
830.802	25164
830.941	25095
831.08	25034
831.219	25141
831.357	25129
831.496	25164
831.635	24981
831.774	24970
831.913	24791
832.051	24806
832.19	24730
832.329	24817
832.467	24738
832.606	24681
832.744	24525
832.883	24684
833.022	24700
833.16	24589
833.299	24623
833.437	24566
833.576	24719
833.714	24646
833.852	24616
833.991	24738
834.129	24779
834.267	24722
834.406	24661
834.544	24829
834.682	24669
834.821	24612
834.959	24802
835.097	24532
835.235	24654
835.373	24684
835.511	24620
835.65	24513
835.788	24452
835.926	24395
836.064	24330
836.202	24327
836.34	24361
836.478	24525
836.615	24418
836.753	24369
836.891	24445
837.029	24623
837.167	24399
837.305	24483
837.443	24338
837.58	24384
837.718	24407
837.856	24338
837.993	24205
838.131	24228
838.269	24239
838.406	24152
838.544	24159
838.681	23863
838.819	23923
838.956	23691
839.094	23699
839.231	23752
839.369	23961
839.506	24003
839.643	24022
839.781	23691
839.918	23604
840.055	23775
840.193	23695
840.33	23448
840.467	23535
840.604	23611
840.742	23942
840.879	23520
841.016	23608
841.153	23566
841.29	23775
841.427	23497
841.564	23649
841.701	23657
841.838	23520
841.975	23471
842.112	23421
842.249	23486
842.385	23349
842.522	23467
842.659	23372
842.796	23124
842.933	23151
843.069	23220
843.206	23113
843.343	23277
843.479	23269
843.616	23200
843.752	23075
843.889	23113
844.025	23170
844.162	22881
844.298	23140
844.435	22946
844.571	22961
844.708	23094
844.844	23075
844.98	23048
845.117	23075
845.253	22763
845.389	22866
845.525	22934
845.661	22611
845.798	22675
845.934	22736
846.07	22622
846.206	22691
846.342	22683
846.478	22649
846.614	22478
846.75	22238
846.886	22489
847.022	22535
847.158	22341
847.294	22402
847.429	22428
847.565	22306
847.701	22618
847.837	22162
847.972	22097
848.108	22207
848.244	22139
848.379	22070
848.515	22010
848.65	21983
848.786	21991
848.921	21987
849.057	21987
849.192	22013
849.328	22006
849.463	22036
849.598	21888
849.734	21911
849.869	21751
850.004	21713
850.14	21603
850.275	21766
850.41	21648
850.545	21705
850.68	21599
850.815	21717
850.95	21660
851.085	21766
851.22	21800
851.355	21675
851.49	21576
851.625	21637
851.76	21652
851.895	21526
852.03	21663
852.165	21580
852.299	21755
852.434	21656
852.569	21736
852.703	21766
852.838	21785
852.973	21663
853.107	21720
853.242	21618
853.376	21614
853.511	21344
853.645	21405
853.78	21648
853.914	21526
854.048	21534
854.183	21473
854.317	21416
854.451	21549
854.585	21389
854.72	21370
854.854	21591
854.988	21443
855.122	21447
855.256	21348
855.39	21450
855.524	21561
855.658	21412
855.792	21348
855.926	21447
856.06	21519
856.194	21492
856.327	21397
856.461	21367
856.595	21454
856.729	21268
856.862	21431
856.996	21458
857.13	21496
857.263	21454
857.397	21477
857.53	21382
857.664	21454
857.797	21397
857.931	21538
858.064	21416
858.197	21485
858.331	21408
858.464	21317
858.597	21272
858.731	21325
858.864	21321
858.997	21405
859.13	21298
859.263	21241
859.396	21393
859.529	21329
859.662	21378
859.795	21329
859.928	21344
860.061	21450
860.194	21595
860.327	21351
860.46	21340
860.592	21462
860.725	21378
860.858	21408
860.99	21340
861.123	21291
861.256	21256
861.388	21416
861.521	21835
861.653	21199
861.786	21165
861.918	21260
862.05	21363
862.183	21412
862.315	21435
862.447	21458
862.58	21416
862.712	21192
862.844	21039
862.976	21176
863.108	21214
863.24	21397
863.372	21039
863.504	21020
863.636	21020
863.768	21089
863.9	21104
864.032	21036
864.164	20937
864.296	20960
864.428	21169
864.559	21051
864.691	21104
864.823	21214
864.954	21036
865.086	20910
865.217	20963
865.349	20887
865.48	20918
865.612	20864
865.743	20975
865.875	21017
866.006	20895
866.137	20906
866.269	20982
866.4	21001
866.531	20902
866.662	20895
866.793	20929
866.924	20872
867.055	20781
867.186	20880
867.317	20819
867.448	20788
867.579	20899
867.71	20739
867.841	20762
867.972	20861
868.103	20902
868.233	20883
868.364	20727
868.495	20830
868.625	21184
868.756	21096
868.886	21047
869.017	21154
869.147	21245
869.278	21222
869.408	21036
869.539	21081
869.669	21161
869.799	21108
869.929	21226
870.06	21207
870.19	21317
870.32	21416
870.45	21424
870.58	21500
870.71	21557
870.84	21519
870.97	21302
871.1	21424
871.23	21690
871.36	21534
871.489	21542
871.619	21606
871.749	21610
871.879	21774
872.008	21827
872.138	21618
872.267	21637
872.397	21614
872.526	21542
872.656	21534
872.785	21511
872.915	21682
873.044	21831
873.173	21713
873.303	21800
873.432	21679
873.561	21865
873.69	21633
873.819	21675
873.948	21789
874.077	21762
874.206	21622
874.335	21705
874.464	21808
874.593	21972
874.722	21899
874.851	21934
874.979	21964
875.108	21953
875.237	21808
875.365	21964
875.494	22021
875.623	22067
875.751	22013
875.88	22048
876.008	22017
876.136	22150
876.265	22360
876.393	22569
876.521	22440
876.65	22550
876.778	22413
876.906	22295
877.034	22363
877.162	22295
877.29	22314
877.418	22261
877.546	22299
877.674	22246
877.802	22268
877.93	22223
878.058	22211
878.185	22219
878.313	22261
878.441	22322
878.568	22128
878.696	22223
878.824	22196
878.951	22272
879.079	22447
879.206	22645
879.333	22489
879.461	22356
879.588	22413
879.715	22504
879.842	22622
879.97	22318
880.097	22109
880.224	22143
880.351	22215
880.478	22063
880.605	22090
880.732	22188
880.859	22375
880.986	22086
881.112	22177
881.239	21991
881.366	21911
881.493	21751
881.619	21705
881.746	21606
881.872	21781
881.999	21701
882.125	21507
882.252	21709
882.378	21747
882.505	21709
882.631	21610
882.757	21466
882.883	21538
883.01	21443
883.136	21332
883.262	21233
883.388	21226
883.514	21447
883.64	21450
883.766	21351
883.892	21192
884.018	21150
884.143	21488
884.269	21367
884.395	21066
884.52	20998
884.646	21096
884.772	21047
884.897	20986
885.023	21013
885.148	21241
885.274	21294
885.399	21119
885.524	20986
885.65	20937
885.775	21013
885.9	20975
886.025	21233
886.15	21070
886.275	20929
886.4	20941
886.525	20948
886.65	20906
886.775	20842
886.9	21058
887.025	21131
887.149	20880
887.274	20944
887.399	20739
887.523	20720
887.648	20682
887.773	20518
887.897	20883
888.021	20762
888.146	20697
888.27	20960
888.395	20887
888.519	20857
888.643	20796
888.767	20815
888.891	20682
889.015	20533
889.139	20640
889.263	20465
889.387	20617
889.511	20773
889.635	20716
889.759	20571
889.883	20613
890.006	20598
890.13	20682
890.254	20374
890.377	20415
890.501	20370
890.624	20301
890.748	20317
890.871	20180
890.995	20199
891.118	20084
891.241	20206
891.364	20107
891.488	20214
891.611	20119
891.734	20149
891.857	20168
891.98	20180
892.103	20187
892.226	20233
892.349	19967
892.471	19875
892.594	20039
892.717	20138
892.839	20077
892.962	20138
893.085	20084
893.207	20050
893.33	19852
893.452	19940
893.575	20134
893.697	20077
893.819	20229
893.941	20180
894.064	20138
894.186	19868
894.308	19921
894.43	20157
894.552	20218
894.674	20122
894.796	19963
894.918	19959
895.04	19978
895.161	20221
895.283	20001
895.405	20016
895.526	20100
895.648	20035
895.769	20046
895.891	20092
896.012	20020
896.134	20035
896.255	20073
896.376	19970
896.498	20119
896.619	20119
896.74	20092
896.861	20191
896.982	20461
897.103	20606
897.224	20427
897.345	20286
897.466	20221
897.587	20343
897.708	20488
897.828	20305
897.949	20286
898.07	20122
898.19	20225
898.311	20355
898.431	20252
898.552	20202
898.672	20267
898.792	20336
898.913	20240
899.033	20157
899.153	19997
899.273	19887
899.393	19940
899.513	19917
899.633	19906
899.753	19997
899.873	19967
899.993	20073
900.113	19856
900.232	19852
900.352	19917
900.472	19826
900.591	19685
900.711	19681
900.83	19708
900.95	19799
901.069	19856
901.189	19651
901.308	19544
901.427	19373
901.546	19369
901.665	19403
901.784	19362
901.904	19225
902.023	19110
902.141	18894
902.26	18863
902.379	19000
902.498	18840
902.617	18795
902.735	18802
902.854	18829
902.973	18806
903.091	18536
903.21	18582
903.328	18517
903.446	18418
903.565	18376
903.683	18304
903.801	18102
903.919	18281
904.038	18369
904.156	18117
904.274	18194
904.392	18102
904.51	18140
904.627	18060
904.745	18095
904.863	18121
904.981	17901
905.098	17809
905.216	17767
905.334	17714
905.451	17707
905.569	17718
905.686	17882
905.803	17714
905.921	17455
906.038	17543
906.155	17558
906.272	17433
906.389	17383
906.506	17261
906.623	17330
906.74	17174
906.857	17170
906.974	17174
907.091	17383
907.208	17299
907.324	17246
907.441	17117
907.557	16995
907.674	16984
907.79	16877
907.907	16972
908.023	16923
908.139	16938
908.256	16942
908.372	16809
908.488	16782
908.604	16691
908.72	16565
908.836	16618
908.952	16584
909.068	16660
909.184	16706
909.3	16630
909.415	16637
909.531	16554
909.647	16432
909.762	16276
909.878	16276
909.993	16265
910.108	16303
910.224	16265
910.339	16253
910.454	16166
910.57	16120
910.685	15983
910.8	16265
910.915	16238
911.03	16086
911.145	15964
911.259	16017
911.374	15953
911.489	15781
911.604	15827
911.718	15561
911.833	15667
911.947	15568
912.062	15443
912.176	15652
912.291	15724
912.405	15610
912.519	15709
912.633	15778
912.748	15728
912.862	15542
912.976	15435
913.09	15272
913.204	15397
913.318	15447
913.431	15515
913.545	15389
913.659	15534
913.772	15408
913.886	15237
914	15260
914.113	15249
914.226	15382
914.34	15367
914.453	15188
914.566	15420
914.68	15222
914.793	15047
914.906	14887
915.019	14823
915.132	14906
915.245	14872
915.358	14891
915.47	14952
915.583	14781
915.696	14963
915.809	15043
915.921	15055
916.034	14830
916.146	14807
916.259	14697
916.371	14830
916.483	14785
916.595	14636
916.708	14667
916.82	14746
916.932	14667
917.044	14651
917.156	14659
917.268	14526
917.38	14598
917.491	14606
917.603	14571
917.715	14613
917.826	14583
917.938	14507
918.049	14332
918.161	14450
918.272	14594
918.384	14712
918.495	14556
918.606	14301
918.717	14237
918.828	14267
918.939	14362
919.05	14199
919.161	14240
919.272	14043
919.383	14172
919.494	14366
919.604	14457
919.715	14347
919.826	14126
919.936	14195
920.047	14336
920.157	14358
920.267	14480
920.378	14233
920.488	14138
920.598	14514
920.708	14549
920.818	14423
920.928	14328
921.038	14492
921.148	14442
921.258	14168
921.368	14092
921.477	13928
921.587	13932
921.697	13818
921.806	13986
921.916	13845
922.025	13639
922.134	13590
922.244	13540
922.353	13628
922.462	13544
922.571	13464
922.68	13335
922.789	13232
922.898	13358
923.007	13198
923.116	13225
923.224	13240
923.333	13175
923.442	13107
923.55	13034
923.659	13122
923.767	13107
923.876	12993
923.984	13141
924.092	12985
924.201	12947
924.309	12993
924.417	12920
924.525	12920
924.633	12901
924.741	13700
924.849	12627
924.956	12817
925.064	12635
925.172	12642
925.279	12681
925.387	12688
925.494	12734
925.602	12768
925.709	12692
925.816	12654
925.924	12684
926.031	12665
926.138	12566
926.245	12616
926.352	12528
926.459	12711
926.566	12665
926.673	12536
926.779	12464
926.886	12528
926.993	12330
927.099	12308
927.206	12224
927.312	12144
927.419	12308
927.525	12243
927.631	12258
927.737	12178
927.843	12068
927.95	11946
928.056	12007
928.162	12060
928.267	12060
928.373	12662
928.479	12213
928.585	11901
928.69	12015
928.796	12140
928.901	11897
929.007	11779
929.112	11954
929.218	11836
929.323	11802
929.428	11760
929.533	11923
929.638	11703
929.743	11779
929.848	11798
929.953	11718
930.058	11627
930.163	11535
930.267	11532
930.372	11668
930.477	11501
930.581	11707
930.685	11440
930.79	11360
930.894	11360
930.998	11292
931.103	11474
931.207	10991
931.311	11083
931.415	10908
931.519	10812
931.623	10714
