Data from test_V78500241_3013.txt Node
Date: Fri Mar 25 16:02:40 CST 2022
User: usil
Spectrometer: V785-0024
Trigger mode: 0
Integration Time (sec): 4.000000E-1
Scans to average: 1
Nonlinearity correction enabled: false
Boxcar width: 0
Storing dark spectrum: false
XAxis mode: Wavelengths
Number of Pixels in Spectrum: 1024
>>>>>Begin Spectral Data<<<<<
801.071	28443
801.214	28519
801.356	28348
801.499	28204
801.641	28078
801.783	28105
801.926	28200
802.068	28010
802.211	27922
802.353	28120
802.496	27797
802.638	27713
802.78	27800
802.923	27629
803.065	27660
803.208	27595
803.35	27720
803.492	28002
803.635	28044
803.777	27991
803.919	27991
804.061	28382
804.204	28059
804.346	28002
804.488	27880
804.63	28032
804.773	27994
804.915	28143
805.057	28067
805.199	28006
805.341	28196
805.483	28261
805.626	28048
805.768	28029
805.91	28158
806.052	28207
806.194	28192
806.336	28318
806.478	28105
806.62	28109
806.762	28413
806.904	28481
807.046	28729
807.188	28607
807.33	28527
807.472	28706
807.614	28561
807.756	28443
807.898	28459
808.04	28424
808.182	28344
808.324	28485
808.465	28508
808.607	28649
808.749	28953
808.891	28919
809.033	28976
809.174	28786
809.316	28908
809.458	28919
809.6	28790
809.741	28934
809.883	28923
810.025	29140
810.166	29079
810.308	29242
810.45	29071
810.591	29018
810.733	28980
810.875	28774
811.016	28968
811.158	28679
811.299	28873
811.441	29022
811.582	29067
811.724	28900
811.865	28850
812.007	28828
812.148	28881
812.29	28927
812.431	29166
812.573	29242
812.714	29391
812.855	29501
812.997	29482
813.138	29714
813.279	29493
813.421	29258
813.562	29258
813.703	29185
813.845	29052
813.986	28881
814.127	28554
814.268	28615
814.41	28615
814.551	28428
814.692	28542
814.833	28550
814.974	28592
815.115	28443
815.256	28451
815.397	28462
815.539	28516
815.68	28329
815.821	28226
815.962	28329
816.103	28474
816.244	28154
816.385	28147
816.526	28109
816.666	27785
816.807	27914
816.948	27835
817.089	28006
817.23	27979
817.371	27861
817.512	27819
817.653	27861
817.793	27823
817.934	27899
818.075	27819
818.216	27953
818.356	27823
818.497	27690
818.638	27728
818.778	27603
818.919	27705
819.06	27728
819.2	27907
819.341	27888
819.481	27884
819.622	27979
819.762	28348
819.903	28211
820.043	27930
820.184	28029
820.324	28010
820.465	27873
820.605	28006
820.746	28040
820.886	27831
821.026	27983
821.167	27960
821.307	28036
821.447	27876
821.588	27785
821.728	27675
821.868	27443
822.008	27462
822.149	27370
822.289	27378
822.429	26998
822.569	26975
822.709	27123
822.849	26849
822.99	26788
823.13	26811
823.27	26910
823.41	26613
823.55	26602
823.69	26693
823.83	26629
823.97	26522
824.11	26663
824.25	26423
824.389	26415
824.529	26457
824.669	26693
824.809	26758
824.949	26484
825.089	26404
825.228	26503
825.368	26461
825.508	26469
825.648	26317
825.787	26381
825.927	26507
826.067	26362
826.206	26404
826.346	26446
826.485	26240
826.625	26339
826.765	26442
826.904	26415
827.044	26119
827.183	26206
827.323	26115
827.462	26202
827.601	26229
827.741	26088
827.88	26031
828.02	25887
828.159	25970
828.298	26092
828.437	26183
828.577	26027
828.716	26065
828.855	25913
828.994	25811
829.134	25723
829.273	25826
829.412	25620
829.551	25651
829.69	25879
829.829	25807
829.968	25807
830.107	25909
830.246	25658
830.385	25677
830.524	25521
830.663	25533
830.802	25468
830.941	25381
831.08	25343
831.219	25430
831.357	25567
831.496	25719
831.635	25331
831.774	25324
831.913	25293
832.051	25129
832.19	25122
832.329	25080
832.467	25034
832.606	25122
832.744	25095
832.883	25019
833.022	25034
833.16	25065
833.299	25126
833.437	25072
833.576	25137
833.714	25152
833.852	25236
833.991	25141
834.129	25179
834.267	25175
834.406	25110
834.544	25072
834.682	25095
834.821	25164
834.959	25198
835.097	25072
835.235	25152
835.373	25061
835.511	25133
835.65	25023
835.788	25008
835.926	24757
836.064	24787
836.202	24806
836.34	24916
836.478	25000
836.615	24935
836.753	24954
836.891	24977
837.029	24859
837.167	24760
837.305	24924
837.443	24768
837.58	24696
837.718	24913
837.856	24821
837.993	24700
838.131	24821
838.269	24536
838.406	24707
838.544	24658
838.681	24464
838.819	24380
838.956	24213
839.094	24224
839.231	24197
839.369	24570
839.506	24593
839.643	24540
839.781	24220
839.918	24182
840.055	24251
840.193	24106
840.33	24144
840.467	24171
840.604	24209
840.742	24513
840.879	23923
841.016	24152
841.153	24117
841.29	24224
841.427	24129
841.564	24152
841.701	24228
841.838	24182
841.975	23988
842.112	24079
842.249	24136
842.385	23843
842.522	24053
842.659	24125
842.796	23828
842.933	23992
843.069	23920
843.206	23783
843.343	24015
843.479	23912
843.616	23847
843.752	23634
843.889	23748
844.025	23798
844.162	23585
844.298	23764
844.435	23707
844.571	23497
844.708	23672
844.844	23813
844.98	23843
845.117	23741
845.253	23661
845.389	23334
845.525	23543
845.661	23535
845.798	23414
845.934	23433
846.07	23360
846.206	23524
846.342	23551
846.478	23360
846.614	23113
846.75	23064
846.886	23216
847.022	23258
847.158	23147
847.294	23117
847.429	23227
847.565	23090
847.701	23349
847.837	22915
847.972	22767
848.108	22987
848.244	22980
848.379	22717
848.515	22694
848.65	22698
848.786	22679
848.921	22721
849.057	22782
849.192	22729
849.328	22812
849.463	22729
849.598	22497
849.734	22588
849.869	22588
850.004	22527
850.14	22519
850.275	22459
850.41	22462
850.545	22577
850.68	22550
850.815	22489
850.95	22421
851.085	22664
851.22	22626
851.355	22497
851.49	22462
851.625	22508
851.76	22466
851.895	22394
852.03	22447
852.165	22409
852.299	22500
852.434	22535
852.569	22508
852.703	22504
852.838	22569
852.973	22497
853.107	22592
853.242	22363
853.376	22375
853.511	22242
853.645	22329
853.78	22386
853.914	22284
854.048	22215
854.183	22386
854.317	22386
854.451	22550
854.585	22360
854.72	22371
854.854	22322
854.988	22246
855.122	22329
855.256	22059
855.39	22375
855.524	22341
855.658	22360
855.792	22287
855.926	22382
856.06	22310
856.194	22428
856.327	22215
856.461	22287
856.595	22265
856.729	22185
856.862	22466
856.996	22375
857.13	22504
857.263	22424
857.397	22310
857.53	22394
857.664	22367
857.797	22413
857.931	22367
858.064	22360
858.197	22356
858.331	22394
858.464	22344
858.597	22299
858.731	22219
858.864	22242
858.997	22181
859.13	22185
859.263	22352
859.396	22287
859.529	22257
859.662	22291
859.795	22265
859.928	22386
860.061	22428
860.194	22474
860.327	22394
860.46	22363
860.592	22382
860.725	22508
860.858	22497
860.99	22341
861.123	22242
861.256	22192
861.388	22280
861.521	23113
861.653	22097
861.786	22063
861.918	22101
862.05	22219
862.183	22177
862.315	22143
862.447	22306
862.58	22310
862.712	22059
862.844	21899
862.976	22192
863.108	22166
863.24	22386
863.372	21884
863.504	22021
863.636	21903
863.768	22059
863.9	21991
864.032	22006
864.164	21949
864.296	22044
864.428	22124
864.559	21953
864.691	22044
864.823	21994
864.954	21953
865.086	21991
865.217	22067
865.349	21861
865.48	21876
865.612	21941
865.743	22097
865.875	21884
866.006	21876
866.137	21926
866.269	21873
866.4	21857
866.531	21789
866.662	21641
866.793	21880
866.924	21819
867.055	21895
867.186	21903
867.317	21766
867.448	21694
867.579	21876
867.71	21644
867.841	21633
867.972	21800
868.103	21720
868.233	21911
868.364	21857
868.495	21987
868.625	22150
868.756	22135
868.886	21956
869.017	22147
869.147	22166
869.278	22109
869.408	22025
869.539	22036
869.669	22181
869.799	22147
869.929	22128
870.06	22086
870.19	22333
870.32	22272
870.45	22352
870.58	22516
870.71	22634
870.84	22588
870.97	22550
871.1	22512
871.23	22637
871.36	22717
871.489	22573
871.619	22630
871.749	22538
871.879	22774
872.008	22736
872.138	22630
872.267	22782
872.397	22478
872.526	22440
872.656	22523
872.785	22527
872.915	22687
873.044	22831
873.173	22740
873.303	22694
873.432	22763
873.561	22774
873.69	22858
873.819	22618
873.948	22752
874.077	22733
874.206	22596
874.335	22668
874.464	22771
874.593	22858
874.722	22938
874.851	22961
874.979	22854
875.108	22915
875.237	22892
875.365	22778
875.494	22908
875.623	22999
875.751	22809
875.88	23044
876.008	23121
876.136	23128
876.265	23288
876.393	23337
876.521	23452
876.65	23478
876.778	23360
876.906	23254
877.034	23326
877.162	23265
877.29	23273
877.418	23239
877.546	23280
877.674	23246
877.802	23307
877.93	23254
878.058	23326
878.185	23117
878.313	23258
878.441	23235
878.568	23022
878.696	23231
878.824	23246
878.951	23326
879.079	23376
879.206	23554
879.333	23459
879.461	23292
879.588	23261
879.715	23353
879.842	23524
879.97	23364
880.097	22938
880.224	23109
880.351	23003
880.478	23140
880.605	22946
880.732	23109
880.859	23132
880.986	23098
881.112	22991
881.239	22869
881.366	22771
881.493	22896
881.619	22672
881.746	22622
881.872	22596
881.999	22668
882.125	22500
882.252	22645
882.378	22523
882.505	22698
882.631	22504
882.757	22440
882.883	22405
883.01	22188
883.136	22223
883.262	22223
883.388	22101
883.514	22234
883.64	22310
883.766	22242
883.892	21861
884.018	22128
884.143	22223
884.269	22325
884.395	21972
884.52	22029
884.646	21972
884.772	21823
884.897	21922
885.023	21979
885.148	22120
885.274	22128
885.399	22131
885.524	21945
885.65	21930
885.775	21945
885.9	21854
886.025	22029
886.15	22048
886.275	21865
886.4	21934
886.525	21949
886.65	21850
886.775	21842
886.9	22086
887.025	22238
887.149	21873
887.274	21846
887.399	21622
887.523	21629
887.648	21675
887.773	21603
887.897	21747
888.021	21637
888.146	21644
888.27	21823
888.395	21778
888.519	21671
888.643	21656
888.767	21599
888.891	21663
889.015	21564
889.139	21526
889.263	21538
889.387	21576
889.511	21671
889.635	21564
889.759	21431
889.883	21622
890.006	21675
890.13	21443
890.254	21420
890.377	21488
890.501	21230
890.624	21024
890.748	21165
890.871	21184
890.995	21009
891.118	20971
891.241	21112
891.364	20982
891.488	21138
891.611	21074
891.734	21100
891.857	21100
891.98	21058
892.103	21199
892.226	21051
892.349	20971
892.471	20788
892.594	20819
892.717	21062
892.839	20979
892.962	21017
893.085	20986
893.207	21001
893.33	20750
893.452	20750
893.575	20921
893.697	20857
893.819	21070
893.941	21108
894.064	21116
894.186	20773
894.308	20883
894.43	20975
894.552	20975
894.674	21116
894.796	20861
894.918	20979
895.04	20788
895.161	21024
895.283	20994
895.405	20975
895.526	20906
895.648	20925
895.769	20925
895.891	20933
896.012	21108
896.134	20883
896.255	20891
896.376	20842
896.498	20899
896.619	20971
896.74	20956
896.861	20956
896.982	21214
897.103	21488
897.224	21085
897.345	21085
897.466	21085
897.587	21093
897.708	21298
897.828	20975
897.949	21085
898.07	21039
898.19	21062
898.311	21222
898.431	21104
898.552	21066
898.672	21214
898.792	21169
898.913	21123
899.033	20933
899.153	20838
899.273	20815
899.393	21013
899.513	20876
899.633	20948
899.753	20842
899.873	20773
899.993	20845
900.113	20830
900.232	20807
900.352	20804
900.472	20746
900.591	20564
900.711	20625
900.83	20533
900.95	20724
901.069	20590
901.189	20667
901.308	20180
901.427	20168
901.546	20233
901.665	20286
901.784	20324
901.904	20119
902.023	19959
902.141	19841
902.26	19738
902.379	19776
902.498	19693
902.617	19765
902.735	19677
902.854	19712
902.973	19704
903.091	19476
903.21	19244
903.328	19339
903.446	19282
903.565	19168
903.683	19137
903.801	19053
903.919	19084
904.038	19084
904.156	19023
904.274	19004
904.392	18825
904.51	18920
904.627	18840
904.745	18943
904.863	18996
904.981	18707
905.098	18574
905.216	18593
905.334	18753
905.451	18566
905.569	18574
905.686	18540
905.803	18555
905.921	18327
906.038	18475
906.155	18380
906.272	18308
906.389	18277
906.506	18121
906.623	18258
906.74	18224
906.857	17874
906.974	18144
907.091	18254
907.208	18327
907.324	18079
907.441	17999
907.557	17813
907.674	17851
907.79	17745
907.907	17745
908.023	17809
908.139	17847
908.256	17703
908.372	17661
908.488	17783
908.604	17592
908.72	17467
908.836	17505
908.952	17482
909.068	17562
909.184	17729
909.3	17558
909.415	17684
909.531	17535
909.647	17368
909.762	17231
909.878	17315
909.993	17258
910.108	17143
910.224	17220
910.339	17265
910.454	17090
910.57	17079
910.685	16972
910.8	17242
910.915	17189
911.03	16930
911.145	16892
911.259	16790
911.374	16664
911.489	16767
911.604	16759
911.718	16554
911.833	16470
911.947	16516
912.062	16497
912.176	16466
912.291	16615
912.405	16679
912.519	16675
912.633	16733
912.748	16538
912.862	16497
912.976	16432
913.09	16215
913.204	16322
913.318	16436
913.431	16447
913.545	16474
913.659	16546
913.772	16443
913.886	16223
914	16139
914.113	16337
914.226	16424
914.34	16238
914.453	16105
914.566	16204
914.68	16025
914.793	16029
914.906	15842
915.019	15648
915.132	15713
915.245	15652
915.358	15785
915.47	15819
915.583	15724
915.696	15766
915.809	15850
915.921	15941
916.034	15682
916.146	15720
916.259	15614
916.371	15724
916.483	15667
916.595	15660
916.708	15599
916.82	15595
916.932	15507
917.044	15572
917.156	15515
917.268	15405
917.38	15492
917.491	15321
917.603	15443
917.715	15370
917.826	15340
917.938	15348
918.049	15230
918.161	15264
918.272	15424
918.384	15447
918.495	15264
918.606	15150
918.717	15009
918.828	15077
918.939	15074
919.05	15047
919.161	15066
919.272	14986
919.383	14941
919.494	15184
919.604	15317
919.715	15100
919.826	14952
919.936	15104
920.047	15135
920.157	15062
920.267	15233
920.378	15074
920.488	14906
920.598	15298
920.708	15408
920.818	15146
920.928	15180
921.038	15363
921.148	15249
921.258	15028
921.368	14857
921.477	14868
921.587	14773
921.697	14678
921.806	14807
921.916	14640
922.025	14400
922.134	14473
922.244	14415
922.353	14476
922.462	14377
922.571	14278
922.68	14123
922.789	13989
922.898	14123
923.007	14073
923.116	14123
923.224	14035
923.333	14012
923.442	13936
923.55	13860
923.659	13864
923.767	13909
923.876	13742
923.984	13993
924.092	13807
924.201	13833
924.309	13830
924.417	13799
924.525	13628
924.633	13772
924.741	14434
924.849	13510
924.956	13628
925.064	13563
925.172	13335
925.279	13514
925.387	13476
925.494	13499
925.602	13582
925.709	13510
925.816	13350
925.924	13510
926.031	13514
926.138	13430
926.245	13407
926.352	13263
926.459	13396
926.566	13487
926.673	13316
926.779	13228
926.886	13175
926.993	13069
927.099	13057
927.206	13015
927.312	12916
927.419	13084
927.525	12970
927.631	13004
927.737	12867
927.843	12749
927.95	12719
928.056	12840
928.162	12802
928.267	12962
928.373	13468
928.479	12962
928.585	12639
928.69	12905
928.796	12764
928.901	12719
929.007	12578
929.112	12608
929.218	12623
929.323	12494
929.428	12494
929.533	12585
929.638	12532
929.743	12471
929.848	12547
929.953	12483
930.058	12292
930.163	12197
930.267	12311
930.372	12376
930.477	12098
930.581	12464
930.685	12213
930.79	12038
930.894	12068
930.998	12034
931.103	12167
931.207	11737
931.311	11710
931.415	11695
931.519	11444
931.623	11463
