Data from test_V78500241_930.txt Node
Date: Fri Mar 25 15:48:14 CST 2022
User: usil
Spectrometer: V785-0024
Trigger mode: 0
Integration Time (sec): 4.000000E-1
Scans to average: 1
Nonlinearity correction enabled: false
Boxcar width: 0
Storing dark spectrum: false
XAxis mode: Wavelengths
Number of Pixels in Spectrum: 1024
>>>>>Begin Spectral Data<<<<<
801.071	28451
801.214	28535
801.356	28166
801.499	28002
801.641	27949
801.783	27972
801.926	28051
802.068	28032
802.211	27873
802.353	27808
802.496	27743
802.638	27652
802.78	27583
802.923	27587
803.065	27625
803.208	27576
803.35	27789
803.492	27720
803.635	27812
803.777	27694
803.919	27888
804.061	28200
804.204	28010
804.346	27804
804.488	27709
804.63	27819
804.773	27766
804.915	27907
805.057	27911
805.199	27926
805.341	27964
805.483	27991
805.626	27884
805.768	27823
805.91	27953
806.052	28074
806.194	27888
806.336	28116
806.478	27907
806.62	27994
806.762	28246
806.904	28276
807.046	28428
807.188	28325
807.33	28443
807.472	28485
807.614	28306
807.756	28588
807.898	28261
808.04	28337
808.182	28375
808.324	28341
808.465	28303
808.607	28459
808.749	28778
808.891	28797
809.033	28782
809.174	28843
809.316	28561
809.458	28843
809.6	28607
809.741	28858
809.883	28949
810.025	29064
810.166	29033
810.308	29044
810.45	28991
810.591	29048
810.733	28668
810.875	28748
811.016	28664
811.158	28466
811.299	28877
811.441	28904
811.582	28984
811.724	28805
811.865	28607
812.007	28835
812.148	28778
812.29	28698
812.431	28949
812.573	29079
812.714	29185
812.855	29280
812.997	29250
813.138	29600
813.279	29349
813.421	29246
813.562	29185
813.703	29136
813.845	29003
813.986	28729
814.127	28466
814.268	28451
814.41	28481
814.551	28390
814.692	28596
814.833	28394
814.974	28413
815.115	28310
815.256	28310
815.397	28207
815.539	28318
815.68	28090
815.821	28147
815.962	28082
816.103	28120
816.244	28188
816.385	28051
816.526	27964
816.666	27888
816.807	27739
816.948	27755
817.089	27876
817.23	27873
817.371	27861
817.512	27762
817.653	27747
817.793	27717
817.934	27671
818.075	27663
818.216	27880
818.356	27686
818.497	27637
818.638	27488
818.778	27469
818.919	27572
819.06	27580
819.2	27720
819.341	27797
819.481	27781
819.622	27846
819.762	27972
819.903	27964
820.043	27964
820.184	27865
820.324	27781
820.465	27907
820.605	27869
820.746	27854
820.886	27759
821.026	27709
821.167	27766
821.307	27842
821.447	27694
821.588	27751
821.728	27595
821.868	27416
822.008	27291
822.149	27131
822.289	27135
822.429	27051
822.569	26845
822.709	26944
822.849	26758
822.99	26621
823.13	26587
823.27	26750
823.41	26465
823.55	26503
823.69	26507
823.83	26621
823.97	26613
824.11	26286
824.25	26442
824.389	26377
824.529	26465
824.669	26332
824.809	26560
824.949	26438
825.089	26480
825.228	26461
825.368	26263
825.508	26278
825.648	26172
825.787	26176
825.927	26336
826.067	26244
826.206	26358
826.346	26355
826.485	26320
826.625	26324
826.765	26393
826.904	26298
827.044	26084
827.183	25989
827.323	26005
827.462	26001
827.601	25986
827.741	25936
827.88	25982
828.02	25837
828.159	25932
828.298	25890
828.437	25997
828.577	26012
828.716	26043
828.855	25917
828.994	25487
829.134	25731
829.273	25662
829.412	25582
829.551	25685
829.69	25727
829.829	25734
829.968	25841
830.107	25742
830.246	25643
830.385	25643
830.524	25499
830.663	25590
830.802	25518
830.941	25156
831.08	25251
831.219	25217
831.357	25373
831.496	25377
831.635	25255
831.774	25247
831.913	25061
832.051	25027
832.19	25080
832.329	25038
832.467	24939
832.606	24768
832.744	24856
832.883	24829
833.022	24806
833.16	24871
833.299	25015
833.437	24920
833.576	24913
833.714	25042
833.852	25061
833.991	25019
834.129	24935
834.267	25042
834.406	25053
834.544	24875
834.682	25038
834.821	24916
834.959	25168
835.097	24791
835.235	25034
835.373	24958
835.511	24882
835.65	24745
835.788	24916
835.926	24684
836.064	24627
836.202	24681
836.34	24787
836.478	24947
836.615	24749
836.753	24920
836.891	24966
837.029	24817
837.167	24795
837.305	24715
837.443	24711
837.58	24722
837.718	24760
837.856	24631
837.993	24650
838.131	24681
838.269	24525
838.406	24551
838.544	24399
838.681	24239
838.819	24209
838.956	24053
839.094	24076
839.231	24243
839.369	24357
839.506	24559
839.643	24433
839.781	24133
839.918	24171
840.055	24068
840.193	24148
840.33	24034
840.467	24026
840.604	24144
840.742	24346
840.879	23984
841.016	24003
841.153	23931
841.29	24178
841.427	24003
841.564	23935
841.701	24068
841.838	23999
841.975	23923
842.112	23832
842.249	23923
842.385	23813
842.522	23996
842.659	23847
842.796	23790
842.933	23832
843.069	23767
843.206	23764
843.343	23870
843.479	23813
843.616	23882
843.752	23516
843.889	23566
844.025	23634
844.162	23486
844.298	23653
844.435	23509
844.571	23391
844.708	23592
844.844	23752
844.98	23649
845.117	23642
845.253	23600
845.389	23402
845.525	23448
845.661	23334
845.798	23242
845.934	23265
846.07	23258
846.206	23353
846.342	23387
846.478	23292
846.614	23105
846.75	23010
846.886	22896
847.022	23033
847.158	23086
847.294	23075
847.429	22965
847.565	22869
847.701	23261
847.837	22759
847.972	22816
848.108	22847
848.244	22763
848.379	22626
848.515	22603
848.65	22588
848.786	22554
848.921	22675
849.057	22702
849.192	22630
849.328	22611
849.463	22603
849.598	22588
849.734	22516
849.869	22478
850.004	22322
850.14	22443
850.275	22341
850.41	22230
850.545	22329
850.68	22299
850.815	22371
850.95	22234
851.085	22554
851.22	22470
851.355	22394
851.49	22402
851.625	22322
851.76	22238
851.895	22246
852.03	22287
852.165	22356
852.299	22314
852.434	22325
852.569	22394
852.703	22459
852.838	22280
852.973	22554
853.107	22363
853.242	22360
853.376	22284
853.511	22029
853.645	22204
853.78	22246
853.914	22154
854.048	22185
854.183	22131
854.317	22223
854.451	22299
854.585	22173
854.72	22211
854.854	22242
854.988	22086
855.122	22185
855.256	22048
855.39	22215
855.524	22303
855.658	22196
855.792	22226
855.926	22143
856.06	22249
856.194	22249
856.327	22150
856.461	22090
856.595	22181
856.729	22272
856.862	22318
856.996	22253
857.13	22219
857.263	22268
857.397	22333
857.53	22112
857.664	22173
857.797	22295
857.931	22238
858.064	22249
858.197	22226
858.331	22147
858.464	22120
858.597	22059
858.731	22150
858.864	21983
858.997	22090
859.13	22086
859.263	22177
859.396	22249
859.529	22196
859.662	22211
859.795	22040
859.928	22101
860.061	22280
860.194	22310
860.327	22261
860.46	22090
860.592	22394
860.725	22242
860.858	22276
860.99	22082
861.123	22013
861.256	22238
861.388	22246
861.521	22881
861.653	22029
861.786	22032
861.918	21930
862.05	22021
862.183	22093
862.315	22021
862.447	22101
862.58	22124
862.712	21994
862.844	21793
862.976	21854
863.108	21876
863.24	22306
863.372	21865
863.504	21956
863.636	21854
863.768	21838
863.9	21854
864.032	21808
864.164	21709
864.296	21968
864.428	22021
864.559	21991
864.691	21899
864.823	21953
864.954	21960
865.086	21865
865.217	21831
865.349	21633
865.48	21800
865.612	21743
865.743	21945
865.875	21876
866.006	21572
866.137	21797
866.269	21778
866.4	21698
866.531	21762
866.662	21671
866.793	21629
866.924	21690
867.055	21705
867.186	21660
867.317	21861
867.448	21610
867.579	21523
867.71	21614
867.841	21652
867.972	21720
868.103	21781
868.233	21736
868.364	21724
868.495	21709
868.625	21911
868.756	21968
868.886	21720
869.017	21911
869.147	21983
869.278	22044
869.408	21926
869.539	22040
869.669	22002
869.799	21941
869.929	22029
870.06	22074
870.19	22295
870.32	22249
870.45	22268
870.58	22284
870.71	22382
870.84	22413
870.97	22295
871.1	22360
871.23	22554
871.36	22535
871.489	22379
871.619	22470
871.749	22557
871.879	22573
872.008	22599
872.138	22535
872.267	22497
872.397	22352
872.526	22344
872.656	22341
872.785	22204
872.915	22516
873.044	22611
873.173	22557
873.303	22721
873.432	22546
873.561	22641
873.69	22485
873.819	22428
873.948	22603
874.077	22580
874.206	22390
874.335	22649
874.464	22702
874.593	22816
874.722	22805
874.851	22710
874.979	22942
875.108	22755
875.237	22771
875.365	22702
875.494	22820
875.623	22809
875.751	22744
875.88	22820
876.008	22820
876.136	22877
876.265	23067
876.393	23254
876.521	23239
876.65	23159
876.778	23132
876.906	23113
877.034	23022
877.162	23098
877.29	22976
877.418	23060
877.546	23147
877.674	23147
877.802	23079
877.93	23212
878.058	23105
878.185	23071
878.313	23086
878.441	23136
878.568	22927
878.696	23060
878.824	23159
878.951	23223
879.079	23151
879.206	23448
879.333	23299
879.461	23140
879.588	23315
879.715	23181
879.842	23440
879.97	23056
880.097	22980
880.224	22900
880.351	22961
880.478	23025
880.605	22976
880.732	22881
880.859	23044
880.986	22896
881.112	22930
881.239	22786
881.366	22626
881.493	22592
881.619	22664
881.746	22493
881.872	22584
881.999	22447
882.125	22379
882.252	22481
882.378	22440
882.505	22504
882.631	22333
882.757	22246
882.883	22280
883.01	22173
883.136	22173
883.262	22112
883.388	22029
883.514	22074
883.64	22223
883.766	22143
883.892	21926
884.018	22032
884.143	22029
884.269	22242
884.395	21956
884.52	21880
884.646	21907
884.772	21728
884.897	21622
885.023	21895
885.148	21884
885.274	21972
885.399	21960
885.524	21876
885.65	21964
885.775	21831
885.9	21778
886.025	21789
886.15	21880
886.275	21774
886.4	21747
886.525	21865
886.65	21743
886.775	21675
886.9	21888
887.025	21972
887.149	21812
887.274	21660
887.399	21599
887.523	21618
887.648	21641
887.773	21534
887.897	21564
888.021	21583
888.146	21485
888.27	21739
888.395	21603
888.519	21622
888.643	21698
888.767	21629
888.891	21515
889.015	21386
889.139	21454
889.263	21237
889.387	21481
889.511	21500
889.635	21439
889.759	21325
889.883	21424
890.006	21226
890.13	21526
890.254	21245
890.377	21310
890.501	21077
890.624	20998
890.748	21272
890.871	21043
890.995	20823
891.118	20925
891.241	20963
891.364	20948
891.488	21142
891.611	20876
891.734	20971
891.857	20941
891.98	20933
892.103	21074
892.226	20895
892.349	20887
892.471	20781
892.594	20754
892.717	20883
892.839	20697
892.962	20853
893.085	20857
893.207	20785
893.33	20701
893.452	20686
893.575	20853
893.697	20731
893.819	20861
893.941	21047
894.064	20887
894.186	20731
894.308	20632
894.43	20804
894.552	20838
894.674	20899
894.796	20800
894.918	20716
895.04	20712
895.161	20910
895.283	20758
895.405	20815
895.526	20777
895.648	20762
895.769	20781
895.891	20800
896.012	20857
896.134	20838
896.255	20781
896.376	20727
896.498	20773
896.619	20746
896.74	20845
896.861	20849
896.982	20948
897.103	21173
897.224	21062
897.345	20990
897.466	20933
897.587	20979
897.708	21127
897.828	21157
897.949	21051
898.07	20849
898.19	20861
898.311	21047
898.431	21028
898.552	21020
898.672	21108
898.792	21055
898.913	21036
899.033	20902
899.153	20838
899.273	20716
899.393	20785
899.513	20724
899.633	20693
899.753	20838
899.873	20693
899.993	20701
900.113	20663
900.232	20758
900.352	20689
900.472	20590
900.591	20415
900.711	20476
900.83	20495
900.95	20663
901.069	20636
901.189	20385
901.308	20221
901.427	20046
901.546	20119
901.665	20069
901.784	20016
901.904	19852
902.023	19963
902.141	19693
902.26	19616
902.379	19723
902.498	19597
902.617	19480
902.735	19704
902.854	19533
902.973	19426
903.091	19301
903.21	19293
903.328	19171
903.446	19160
903.565	19061
903.683	19057
903.801	19031
903.919	18970
904.038	18977
904.156	18753
904.274	18954
904.392	18837
904.51	18764
904.627	18768
904.745	18867
904.863	18837
904.981	18692
905.098	18372
905.216	18513
905.334	18346
905.451	18513
905.569	18509
905.686	18494
905.803	18494
905.921	18148
906.038	18342
906.155	18197
906.272	18216
906.389	18125
906.506	17908
906.623	18064
906.74	18076
906.857	17802
906.974	17889
907.091	18064
907.208	18057
907.324	18026
907.441	17954
907.557	17642
907.674	17748
907.79	17767
907.907	17615
908.023	17676
908.139	17794
908.256	17687
908.372	17661
908.488	17608
908.604	17497
908.72	17376
908.836	17474
908.952	17299
909.068	17402
909.184	17429
909.3	17448
909.415	17493
909.531	17398
909.647	17136
909.762	17086
909.878	17067
909.993	17166
910.108	17083
910.224	17166
910.339	17098
910.454	16980
910.57	16889
910.685	16896
910.8	17128
910.915	17113
911.03	16968
911.145	16797
911.259	16679
911.374	16790
911.489	16603
911.604	16599
911.718	16432
911.833	16462
911.947	16352
912.062	16341
912.176	16409
912.291	16466
912.405	16409
912.519	16645
912.633	16607
912.748	16535
912.862	16413
912.976	16253
913.09	16185
913.204	16120
913.318	16226
913.431	16287
913.545	16398
913.659	16276
913.772	16257
913.886	16040
914	16013
914.113	16044
914.226	16249
914.34	16071
914.453	15922
914.566	16101
914.68	15987
914.793	15838
914.906	15720
915.019	15743
915.132	15629
915.245	15694
915.358	15606
915.47	15709
915.583	15648
915.696	15724
915.809	15778
915.921	15755
916.034	15591
916.146	15641
916.259	15469
916.371	15629
916.483	15622
916.595	15424
916.708	15439
916.82	15443
916.932	15401
917.044	15450
917.156	15428
917.268	15340
917.38	15268
917.491	15348
917.603	15249
917.715	15393
917.826	15408
917.938	15332
918.049	15032
918.161	15275
918.272	15344
918.384	15389
918.495	15195
918.606	15123
918.717	14948
918.828	14998
918.939	15009
919.05	14895
919.161	15100
919.272	14792
919.383	14861
919.494	15020
919.604	15256
919.715	15077
919.826	14914
919.936	14990
920.047	15089
920.157	15024
920.267	15104
920.378	14952
920.488	14948
920.598	15097
920.708	15275
920.818	15100
920.928	15077
921.038	15199
921.148	15283
921.258	14948
921.368	14899
921.477	14750
921.587	14785
921.697	14495
921.806	14724
921.916	14469
922.025	14400
922.134	14336
922.244	14180
922.353	14347
922.462	14229
922.571	14191
922.68	14054
922.789	14024
922.898	14016
923.007	13826
923.116	14005
923.224	13978
923.333	13970
923.442	13917
923.55	13822
923.659	13818
923.767	13830
923.876	13765
923.984	13788
924.092	13704
924.201	13769
924.309	13658
924.417	13658
924.525	13594
924.633	13636
924.741	14499
924.849	13491
924.956	13487
925.064	13434
925.172	13365
925.279	13274
925.387	13358
925.494	13327
925.602	13514
925.709	13369
925.816	13236
925.924	13274
926.031	13320
926.138	13369
926.245	13251
926.352	13149
926.459	13419
926.566	13350
926.673	13187
926.779	13141
926.886	13076
926.993	13023
927.099	12935
927.206	12901
927.312	12882
927.419	12973
927.525	12814
927.631	12973
927.737	12852
927.843	12749
927.95	12563
928.056	12749
928.162	12806
928.267	12798
928.373	13289
928.479	12833
928.585	12559
928.69	12711
928.796	12753
928.901	12620
929.007	12437
929.112	12593
929.218	12525
929.323	12429
929.428	12536
929.533	12532
929.638	12448
929.743	12441
929.848	12395
929.953	12395
930.058	12228
930.163	12068
930.267	12102
930.372	12327
930.477	12121
930.581	12334
930.685	12171
930.79	12022
930.894	12030
930.998	11988
931.103	12133
931.207	11695
931.311	11649
931.415	11638
931.519	11395
931.623	11356
