Data from test_V78500241_33.txt Node
Date: Fri Mar 25 15:42:01 CST 2022
User: usil
Spectrometer: V785-0024
Trigger mode: 0
Integration Time (sec): 4.000000E-1
Scans to average: 1
Nonlinearity correction enabled: false
Boxcar width: 0
Storing dark spectrum: false
XAxis mode: Wavelengths
Number of Pixels in Spectrum: 1024
>>>>>Begin Spectral Data<<<<<
801.071	27682
801.214	27778
801.356	27450
801.499	27313
801.641	27192
801.783	27119
801.926	27351
802.068	27131
802.211	27058
802.353	27077
802.496	26788
802.638	26720
802.78	26693
802.923	26670
803.065	26739
803.208	26750
803.35	26629
803.492	26838
803.635	26891
803.777	26830
803.919	26982
804.061	27272
804.204	26902
804.346	26819
804.488	26727
804.63	26678
804.773	26773
804.915	26815
805.057	26800
805.199	26765
805.341	26872
805.483	26864
805.626	26845
805.768	26609
805.91	26724
806.052	26762
806.194	26689
806.336	26895
806.478	26933
806.62	26804
806.762	27039
806.904	27173
807.046	27268
807.188	27199
807.33	27329
807.472	27226
807.614	27055
807.756	27032
807.898	26914
808.04	26792
808.182	26891
808.324	27047
808.465	26975
808.607	27123
808.749	27085
808.891	27291
809.033	27519
809.174	27275
809.316	27351
809.458	27256
809.6	27272
809.741	27306
809.883	27199
810.025	27549
810.166	27568
810.308	27412
810.45	27412
810.591	27519
810.733	27203
810.875	27180
811.016	27138
811.158	27005
811.299	27252
811.441	27329
811.582	27405
811.724	27169
811.865	27028
812.007	27325
812.148	27176
812.29	27226
812.431	27237
812.573	27401
812.714	27587
812.855	27610
812.997	27671
813.138	27831
813.279	27728
813.421	27622
813.562	27568
813.703	27454
813.845	27260
813.986	27001
814.127	26731
814.268	26686
814.41	26720
814.551	26609
814.692	26636
814.833	26526
814.974	26644
815.115	26849
815.256	26602
815.397	26495
815.539	26568
815.68	26438
815.821	26328
815.962	26370
816.103	26347
816.244	26336
816.385	26142
816.526	26092
816.666	25799
816.807	25788
816.948	25959
817.089	25738
817.23	25788
817.371	25769
817.512	25757
817.653	25738
817.793	25655
817.934	25746
818.075	25769
818.216	25704
818.356	25681
818.497	25487
818.638	25362
818.778	25476
818.919	25499
819.06	25426
819.2	25438
819.341	25647
819.481	25586
819.622	25791
819.762	26020
819.903	25731
820.043	25746
820.184	25647
820.324	25586
820.465	25822
820.605	25510
820.746	25757
820.886	25556
821.026	25715
821.167	25658
821.307	25727
821.447	25647
821.588	25502
821.728	25320
821.868	25331
822.008	24989
822.149	24916
822.289	24992
822.429	24760
822.569	24711
822.709	24593
822.849	24380
822.99	24418
823.13	24483
823.27	24570
823.41	24213
823.55	24129
823.69	24437
823.83	24296
823.97	24174
824.11	23988
824.25	24026
824.389	23999
824.529	24155
824.669	23939
824.809	24117
824.949	24174
825.089	24045
825.228	24011
825.368	23855
825.508	23916
825.648	23885
825.787	23916
825.927	23874
826.067	23897
826.206	23672
826.346	23885
826.485	23942
826.625	23809
826.765	23920
826.904	23805
827.044	23611
827.183	23570
827.323	23402
827.462	23570
827.601	23509
827.741	23444
827.88	23547
828.02	23482
828.159	23421
828.298	23421
828.437	23509
828.577	23501
828.716	23543
828.855	23296
828.994	23220
829.134	23170
829.273	23231
829.412	23140
829.551	23132
829.69	23155
829.829	23170
829.968	23258
830.107	23216
830.246	23102
830.385	23048
830.524	23010
830.663	22968
830.802	22820
830.941	22809
831.08	22736
831.219	22717
831.357	22626
831.496	22999
831.635	22672
831.774	22668
831.913	22649
832.051	22474
832.19	22310
832.329	22493
832.467	22371
832.606	22299
832.744	22226
832.883	22169
833.022	22386
833.16	22348
833.299	22291
833.437	22234
833.576	22234
833.714	22356
833.852	22428
833.991	22356
834.129	22371
834.267	22436
834.406	22382
834.544	22291
834.682	22261
834.821	22238
834.959	22478
835.097	22314
835.235	22386
835.373	22246
835.511	22272
835.65	22135
835.788	22253
835.926	22059
836.064	21937
836.202	22029
836.34	22166
836.478	22322
836.615	22120
836.753	22185
836.891	22158
837.029	22272
837.167	22109
837.305	22124
837.443	22051
837.58	21994
837.718	22078
837.856	21918
837.993	21953
838.131	22021
838.269	21819
838.406	21895
838.544	21861
838.681	21633
838.819	21538
838.956	21488
839.094	21405
839.231	21447
839.369	21477
839.506	21804
839.643	21557
839.781	21275
839.918	21302
840.055	21355
840.193	21302
840.33	21317
840.467	21310
840.604	21283
840.742	21583
840.879	21287
841.016	21268
841.153	21313
841.29	21420
841.427	21214
841.564	21329
841.701	21313
841.838	21214
841.975	21233
842.112	21256
842.249	21100
842.385	21112
842.522	21207
842.659	21085
842.796	20994
842.933	20994
843.069	21005
843.206	20937
843.343	20975
843.479	20956
843.616	20941
843.752	20724
843.889	20682
844.025	20819
844.162	20613
844.298	20838
844.435	20701
844.571	20739
844.708	20861
844.844	20807
844.98	20739
845.117	20845
845.253	20682
845.389	20549
845.525	20533
845.661	20530
845.798	20571
845.934	20598
846.07	20393
846.206	20503
846.342	20621
846.478	20484
846.614	20282
846.75	20168
846.886	20115
847.022	20278
847.158	20218
847.294	20183
847.429	20107
847.565	20130
847.701	20396
847.837	19951
847.972	19925
848.108	20020
848.244	19887
848.379	19826
848.515	19731
848.65	19780
848.786	19666
848.921	19647
849.057	19856
849.192	19849
849.328	19700
849.463	19723
849.598	19666
849.734	19594
849.869	19487
850.004	19563
850.14	19460
850.275	19499
850.41	19384
850.545	19285
850.68	19411
850.815	19365
850.95	19407
851.085	19609
851.22	19556
851.355	19415
851.49	19403
851.625	19369
851.76	19430
851.895	19244
852.03	19339
852.165	19445
852.299	19506
852.434	19510
852.569	19362
852.703	19354
852.838	19449
852.973	19537
853.107	19438
853.242	19301
853.376	19152
853.511	19183
853.645	19202
853.78	19422
853.914	19232
854.048	19324
854.183	19274
854.317	19289
854.451	19411
854.585	19221
854.72	19129
854.854	19274
854.988	19118
855.122	19198
855.256	19133
855.39	19187
855.524	19396
855.658	19198
855.792	19350
855.926	19251
856.06	19285
856.194	19388
856.327	19156
856.461	19145
856.595	19183
856.729	19362
856.862	19209
856.996	19213
857.13	19247
857.263	19266
857.397	19282
857.53	19114
857.664	19183
857.797	19236
857.931	19316
858.064	19187
858.197	19263
858.331	19187
858.464	19095
858.597	18977
858.731	19171
858.864	19122
858.997	19095
859.13	19141
859.263	19152
859.396	19266
859.529	19103
859.662	19069
859.795	19046
859.928	19171
860.061	19259
860.194	19324
860.327	19164
860.46	19107
860.592	19202
860.725	19259
860.858	19259
860.99	19190
861.123	19034
861.256	19042
861.388	19050
861.521	19620
861.653	19091
861.786	18943
861.918	19019
862.05	19107
862.183	19126
862.315	19297
862.447	19213
862.58	19141
862.712	18985
862.844	18878
862.976	19057
863.108	18943
863.24	19202
863.372	18821
863.504	18966
863.636	18886
863.768	18916
863.9	18783
864.032	18719
864.164	18821
864.296	18916
864.428	18867
864.559	18840
864.691	18848
864.823	18913
864.954	18764
865.086	18890
865.217	18768
865.349	18745
865.48	18787
865.612	18707
865.743	18909
865.875	18798
866.006	18722
866.137	18802
866.269	18764
866.4	18817
866.531	18738
866.662	18722
866.793	18684
866.924	18623
867.055	18665
867.186	18760
867.317	18608
867.448	18544
867.579	18654
867.71	18623
867.841	18639
867.972	18798
868.103	18665
868.233	18738
868.364	18684
868.495	18817
868.625	18875
868.756	18993
868.886	18890
869.017	18863
869.147	19084
869.278	19091
869.408	18943
869.539	18954
869.669	19008
869.799	19053
869.929	19148
870.06	19004
870.19	19255
870.32	19171
870.45	19152
870.58	19282
870.71	19384
870.84	19403
870.97	19346
871.1	19320
871.23	19472
871.36	19597
871.489	19411
871.619	19559
871.749	19548
871.879	19491
872.008	19559
872.138	19556
872.267	19635
872.397	19438
872.526	19339
872.656	19362
872.785	19316
872.915	19552
873.044	19639
873.173	19544
873.303	19601
873.432	19601
873.561	19651
873.69	19529
873.819	19502
873.948	19670
874.077	19582
874.206	19708
874.335	19715
874.464	19666
874.593	19826
874.722	19715
874.851	19967
874.979	19845
875.108	20005
875.237	19788
875.365	19750
875.494	19788
875.623	19913
875.751	19814
875.88	19902
876.008	20065
876.136	19986
876.265	20263
876.393	20385
876.521	20119
876.65	20332
876.778	20305
876.906	20206
877.034	20161
877.162	20199
877.29	20164
877.418	20130
877.546	20149
877.674	20214
877.802	20202
877.93	20164
878.058	20191
878.185	20054
878.313	20149
878.441	20210
878.568	20050
878.696	20161
878.824	20218
878.951	20412
879.079	20404
879.206	20609
879.333	20446
879.461	20252
879.588	20294
879.715	20332
879.842	20431
879.97	20229
880.097	20024
880.224	20096
880.351	20100
880.478	20149
880.605	19925
880.732	20008
880.859	20221
880.986	20100
881.112	20077
881.239	20039
881.366	19803
881.493	19696
881.619	19704
881.746	19658
881.872	19689
881.999	19613
882.125	19605
882.252	19643
882.378	19746
882.505	19696
882.631	19674
882.757	19510
882.883	19510
883.01	19388
883.136	19320
883.262	19266
883.388	19232
883.514	19449
883.64	19457
883.766	19510
883.892	19198
884.018	19320
884.143	19365
884.269	19548
884.395	19118
884.52	19004
884.646	19076
884.772	19080
884.897	19084
885.023	19023
885.148	19190
885.274	19259
885.399	19202
885.524	19160
885.65	19179
885.775	19057
885.9	19069
886.025	19148
886.15	19114
886.275	18985
886.4	18913
886.525	18996
886.65	18920
886.775	19015
886.9	19122
887.025	19213
887.149	18977
887.274	18825
887.399	18817
887.523	18802
887.648	18734
887.773	18764
887.897	18875
888.021	18886
888.146	18650
888.27	18947
888.395	18916
888.519	18856
888.643	18829
888.767	18844
888.891	18711
889.015	18563
889.139	18642
889.263	18696
889.387	18677
889.511	18901
889.635	18738
889.759	18589
889.883	18627
890.006	18623
890.13	18684
890.254	18483
890.377	18486
890.501	18334
890.624	18334
890.748	18445
890.871	18277
890.995	18330
891.118	18136
891.241	18174
891.364	18277
891.488	18334
891.611	18296
891.734	18243
891.857	18258
891.98	18319
892.103	18201
892.226	18224
892.349	18171
892.471	18007
892.594	18251
892.717	18216
892.839	18174
892.962	18201
893.085	18224
893.207	18133
893.33	18072
893.452	18133
893.575	18186
893.697	18155
893.819	18289
893.941	18490
894.064	18350
894.186	18144
894.308	18155
894.43	18232
894.552	18285
894.674	18308
894.796	18136
894.918	18190
895.04	18148
895.161	18174
895.283	18224
895.405	18060
895.526	18251
895.648	18129
895.769	18167
895.891	18186
896.012	18475
896.134	18365
896.255	18285
896.376	18262
896.498	18289
896.619	18292
896.74	18311
896.861	18346
896.982	18631
897.103	18631
897.224	18620
897.345	18654
897.466	18445
897.587	18566
897.708	18726
897.828	18506
897.949	18479
898.07	18308
898.19	18452
898.311	18616
898.431	18604
898.552	18407
898.672	18574
898.792	18578
898.913	18433
899.033	18388
899.153	18201
899.273	18106
899.393	18350
899.513	18270
899.633	18270
899.753	18273
899.873	18133
899.993	18148
900.113	18148
900.232	18232
900.352	18174
900.472	18053
900.591	17977
900.711	18125
900.83	17866
900.95	18091
901.069	18163
901.189	17958
901.308	17786
901.427	17630
901.546	17627
901.665	17627
901.784	17729
901.904	17493
902.023	17512
902.141	17197
902.26	17117
902.379	17250
902.498	17212
902.617	17086
902.735	17162
902.854	17064
902.973	17128
903.091	16847
903.21	16854
903.328	16797
903.446	16790
903.565	16755
903.683	16672
903.801	16637
903.919	16675
904.038	16554
904.156	16455
904.274	16569
904.392	16421
904.51	16386
904.627	16421
904.745	16478
904.863	16474
904.981	16169
905.098	16021
905.216	16124
905.334	16177
905.451	16177
905.569	16082
905.686	16063
905.803	16147
905.921	15895
906.038	15941
906.155	15869
906.272	15789
906.389	15861
906.506	15603
906.623	15629
906.74	15648
906.857	15557
906.974	15557
907.091	15701
907.208	15720
907.324	15667
907.441	15561
907.557	15382
907.674	15416
907.79	15256
907.907	15241
908.023	15374
908.139	15237
908.256	15313
908.372	15291
908.488	15252
908.604	15104
908.72	15013
908.836	15100
908.952	14967
909.068	15028
909.184	15226
909.3	14986
909.415	14994
909.531	15039
909.647	14701
909.762	14724
909.878	14727
909.993	14686
910.108	14602
910.224	14689
910.339	14678
910.454	14712
910.57	14526
910.685	14480
910.8	14746
910.915	14731
911.03	14731
911.145	14358
911.259	14362
911.374	14370
911.489	14328
911.604	14237
911.718	14054
911.833	14115
911.947	14138
912.062	13993
912.176	14058
912.291	14168
912.405	14248
912.519	14313
912.633	14389
912.748	14130
912.862	14012
912.976	13951
913.09	13788
913.204	13936
913.318	13883
913.431	14069
913.545	14043
913.659	13989
913.772	13864
913.886	13814
914	13693
914.113	13909
914.226	13837
914.34	13784
914.453	13681
914.566	13807
914.68	13769
914.793	13693
914.906	13495
915.019	13422
915.132	13396
915.245	13396
915.358	13343
915.47	13403
915.583	13411
915.696	13510
915.809	13499
915.921	13514
916.034	13426
916.146	13335
916.259	13350
916.371	13438
916.483	13392
916.595	13255
916.708	13301
916.82	13270
916.932	13217
917.044	13183
917.156	13187
917.268	13103
917.38	13107
917.491	13129
917.603	13103
917.715	13209
917.826	13175
917.938	13088
918.049	13057
918.161	13118
918.272	13175
918.384	13225
918.495	13027
918.606	12913
918.717	12894
918.828	12943
918.939	12928
919.05	12768
919.161	12909
919.272	12696
919.383	12677
919.494	12901
919.604	13126
919.715	12871
919.826	12783
919.936	12829
920.047	12909
920.157	12867
920.267	12996
920.378	12954
920.488	12852
920.598	13000
920.708	13240
920.818	12970
920.928	12996
921.038	13213
921.148	13149
921.258	12825
921.368	12833
921.477	12681
921.587	12627
921.697	12448
921.806	12585
921.916	12517
922.025	12224
922.134	12384
922.244	12270
922.353	12251
922.462	12095
922.571	12171
922.68	12030
922.789	11832
922.898	11885
923.007	11901
923.116	12007
923.224	12011
923.333	11866
923.442	11783
923.55	11794
923.659	11786
923.767	11855
923.876	11783
923.984	11893
924.092	11665
924.201	11710
924.309	11714
924.417	11748
924.525	11649
924.633	11714
924.741	12654
924.849	11444
924.956	11573
925.064	11436
925.172	11364
925.279	11414
925.387	11463
925.494	11433
925.602	11619
925.709	11589
925.816	11356
925.924	11478
926.031	11551
926.138	11417
926.245	11440
926.352	11353
926.459	11414
926.566	11497
926.673	11349
926.779	11185
926.886	11292
926.993	11147
927.099	11147
927.206	10984
927.312	11029
927.419	11159
927.525	11117
927.631	11105
927.737	10980
927.843	10957
927.95	10820
928.056	10953
928.162	10942
928.267	10942
928.373	11600
928.479	11003
928.585	10736
928.69	10869
928.796	10839
928.901	10797
929.007	10611
929.112	10725
929.218	10763
929.323	10702
929.428	10744
929.533	10862
929.638	10729
929.743	10630
929.848	10664
929.953	10622
930.058	10538
930.163	10398
930.267	10348
930.372	10512
930.477	10325
930.581	10577
930.685	10504
930.79	10265
930.894	10284
930.998	10265
931.103	10333
931.207	10055
931.311	10002
931.415	9793
931.519	9781
931.623	9618
