Data from test_V78500241_2451.txt Node
Date: Fri Mar 25 15:58:46 CST 2022
User: usil
Spectrometer: V785-0024
Trigger mode: 0
Integration Time (sec): 4.000000E-1
Scans to average: 1
Nonlinearity correction enabled: false
Boxcar width: 0
Storing dark spectrum: false
XAxis mode: Wavelengths
Number of Pixels in Spectrum: 1024
>>>>>Begin Spectral Data<<<<<
801.071	28847
801.214	28748
801.356	28630
801.499	28523
801.641	28405
801.783	28405
801.926	28497
802.068	28401
802.211	28493
802.353	28371
802.496	28169
802.638	28093
802.78	28291
802.923	28025
803.065	28078
803.208	27975
803.35	28272
803.492	28230
803.635	28428
803.777	28230
803.919	28367
804.061	28717
804.204	28478
804.346	28322
804.488	28356
804.63	28398
804.773	28284
804.915	28443
805.057	28504
805.199	28500
805.341	28489
805.483	28618
805.626	28554
805.768	28375
805.91	28459
806.052	28660
806.194	28504
806.336	28759
806.478	28622
806.62	28664
806.762	28653
806.904	28930
807.046	29102
807.188	28942
807.33	29067
807.472	29044
807.614	28957
807.756	29056
807.898	28854
808.04	28824
808.182	28965
808.324	29121
808.465	28938
808.607	29121
808.749	29372
808.891	29368
809.033	29486
809.174	29330
809.316	29288
809.458	29330
809.6	29208
809.741	29444
809.883	29417
810.025	29608
810.166	29459
810.308	29509
810.45	29524
810.591	29493
810.733	29307
810.875	29303
811.016	29170
811.158	29242
811.299	29356
811.441	29364
811.582	29448
811.724	29345
811.865	29220
812.007	29250
812.148	29429
812.29	29353
812.431	29375
812.573	29737
812.714	29657
812.855	29687
812.997	29908
813.138	29988
813.279	29897
813.421	29760
813.562	29699
813.703	29657
813.845	29562
813.986	29197
814.127	29014
814.268	29056
814.41	29235
814.551	28984
814.692	29159
814.833	28896
814.974	29010
815.115	29014
815.256	28892
815.397	28850
815.539	28744
815.68	28698
815.821	28877
815.962	28847
816.103	28717
816.244	28607
816.385	28599
816.526	28557
816.666	28470
816.807	28120
816.948	28394
817.089	28508
817.23	28287
817.371	28280
817.512	28306
817.653	28268
817.793	28219
817.934	28303
818.075	28303
818.216	28382
818.356	28185
818.497	28143
818.638	27975
818.778	28158
818.919	28192
819.06	28063
819.2	28253
819.341	28367
819.481	28238
819.622	28462
819.762	28607
819.903	28615
820.043	28478
820.184	28462
820.324	28432
820.465	28462
820.605	28432
820.746	28432
820.886	28341
821.026	28440
821.167	28394
821.307	28569
821.447	28284
821.588	28196
821.728	28021
821.868	27903
822.008	27823
822.149	27728
822.289	27835
822.429	27500
822.569	27538
822.709	27397
822.849	27393
822.99	27367
823.13	27374
823.27	27264
823.41	27093
823.55	27032
823.69	27081
823.83	27173
823.97	26940
824.11	27036
824.25	26864
824.389	26807
824.529	27093
824.669	27005
824.809	27154
824.949	27093
825.089	27036
825.228	27024
825.368	26678
825.508	26811
825.648	27009
825.787	26952
825.927	26880
826.067	26750
826.206	26830
826.346	26963
826.485	26963
826.625	26826
826.765	26986
826.904	26811
827.044	26674
827.183	26693
827.323	26530
827.462	26735
827.601	26571
827.741	26636
827.88	26541
828.02	26473
828.159	26526
828.298	26511
828.437	26670
828.577	26518
828.716	26507
828.855	26484
828.994	26210
829.134	26400
829.273	26271
829.412	26259
829.551	26202
829.69	26199
829.829	26324
829.968	26404
830.107	26453
830.246	26370
830.385	26073
830.524	26221
830.663	26008
830.802	25871
830.941	25913
831.08	25894
831.219	26027
831.357	25902
831.496	26084
831.635	25860
831.774	25662
831.913	25731
832.051	25586
832.19	25499
832.329	25616
832.467	25586
832.606	25396
832.744	25457
832.883	25525
833.022	25422
833.16	25388
833.299	25605
833.437	25624
833.576	25693
833.714	25578
833.852	25658
833.991	25658
834.129	25525
834.267	25681
834.406	25502
834.544	25635
834.682	25563
834.821	25472
834.959	25746
835.097	25479
835.235	25544
835.373	25605
835.511	25468
835.65	25324
835.788	25434
835.926	25365
836.064	25270
836.202	25244
836.34	25422
836.478	25499
836.615	25316
836.753	25346
836.891	25422
837.029	25422
837.167	25460
837.305	25343
837.443	25194
837.58	25148
837.718	25362
837.856	25259
837.993	25156
838.131	25251
838.269	25080
838.406	25206
838.544	24943
838.681	24954
838.819	24935
838.956	24703
839.094	24566
839.231	24730
839.369	24916
839.506	24996
839.643	24817
839.781	24688
839.918	24528
840.055	24570
840.193	24612
840.33	24471
840.467	24604
840.604	24715
840.742	24859
840.879	24490
841.016	24418
841.153	24433
841.29	24684
841.427	24505
841.564	24627
841.701	24646
841.838	24418
841.975	24437
842.112	24475
842.249	24376
842.385	24346
842.522	24589
842.659	24292
842.796	24224
842.933	24376
843.069	24304
843.206	24285
843.343	24467
843.479	24296
843.616	24304
843.752	24197
843.889	24045
844.025	24289
844.162	24057
844.298	24243
844.435	24163
844.571	24015
844.708	24102
844.844	24330
844.98	24148
845.117	24213
845.253	24022
845.389	23996
845.525	23988
845.661	24018
845.798	23855
845.934	23920
846.07	23752
846.206	23661
846.342	24007
846.478	23786
846.614	23547
846.75	23497
846.886	23558
847.022	23611
847.158	23543
847.294	23596
847.429	23566
847.565	23581
847.701	23794
847.837	23292
847.972	23239
848.108	23322
848.244	23402
848.379	23307
848.515	23239
848.65	23113
848.786	23216
848.921	23181
849.057	23261
849.192	23227
849.328	23102
849.463	23121
849.598	23086
849.734	23006
849.869	23025
850.004	22847
850.14	23033
850.275	22816
850.41	22748
850.545	22820
850.68	22820
850.815	22847
850.95	22839
851.085	23060
851.22	23083
851.355	22885
851.49	22843
851.625	22801
851.76	22972
851.895	22923
852.03	22774
852.165	22881
852.299	22942
852.434	23056
852.569	22968
852.703	22889
852.838	23006
852.973	23025
853.107	23071
853.242	22824
853.376	22599
853.511	22664
853.645	22641
853.78	22820
853.914	22816
854.048	22656
854.183	22752
854.317	22759
854.451	22991
854.585	22797
854.72	22721
854.854	22835
854.988	22755
855.122	22694
855.256	22626
855.39	22698
855.524	22797
855.658	22854
855.792	22839
855.926	22843
856.06	22793
856.194	22900
856.327	22653
856.461	22656
856.595	22710
856.729	22656
856.862	22812
856.996	22869
857.13	22744
857.263	22812
857.397	22968
857.53	22630
857.664	22812
857.797	22664
857.931	22869
858.064	22828
858.197	22892
858.331	22820
858.464	22698
858.597	22721
858.731	22721
858.864	22668
858.997	22809
859.13	22664
859.263	22653
859.396	22839
859.529	22717
859.662	22561
859.795	22721
859.928	22752
860.061	22980
860.194	23006
860.327	22896
860.46	22694
860.592	22858
860.725	22889
860.858	22793
860.99	22786
861.123	22656
861.256	22691
861.388	22656
861.521	23585
861.653	22561
861.786	22535
861.918	22542
862.05	22691
862.183	22569
862.315	22733
862.447	22797
862.58	22733
862.712	22497
862.844	22443
862.976	22554
863.108	22580
863.24	22885
863.372	22348
863.504	22390
863.636	22550
863.768	22538
863.9	22352
864.032	22398
864.164	22421
864.296	22481
864.428	22508
864.559	22485
864.691	22512
864.823	22405
864.954	22516
865.086	22375
865.217	22276
865.349	22207
865.48	22382
865.612	22207
865.743	22440
865.875	22382
866.006	22253
866.137	22295
866.269	22379
866.4	22344
866.531	22185
866.662	22169
866.793	22318
866.924	22128
867.055	22325
867.186	22246
867.317	22280
867.448	22219
867.579	22219
867.71	22086
867.841	22158
867.972	22207
868.103	22299
868.233	22280
868.364	22211
868.495	22371
868.625	22432
868.756	22603
868.886	22432
869.017	22417
869.147	22706
869.278	22535
869.408	22508
869.539	22462
869.669	22603
869.799	22634
869.929	22596
870.06	22512
870.19	22885
870.32	22706
870.45	22862
870.58	22957
870.71	22816
870.84	22961
870.97	22900
871.1	22946
871.23	23094
871.36	23090
871.489	22953
871.619	23102
871.749	23064
871.879	23162
872.008	23181
872.138	23098
872.267	23113
872.397	22938
872.526	22862
872.656	22987
872.785	22896
872.915	23037
873.044	23208
873.173	23162
873.303	23185
873.432	23170
873.561	23208
873.69	23212
873.819	22984
873.948	23284
874.077	23151
874.206	23029
874.335	23151
874.464	23121
874.593	23353
874.722	23345
874.851	23322
874.979	23398
875.108	23337
875.237	23250
875.365	23181
875.494	23185
875.623	23284
875.751	23197
875.88	23372
876.008	23452
876.136	23539
876.265	23741
876.393	23912
876.521	23790
876.65	23817
876.778	23748
876.906	23604
877.034	23661
877.162	23687
877.29	23611
877.418	23726
877.546	23577
877.674	23668
877.802	23661
877.93	23630
878.058	23562
878.185	23566
878.313	23448
878.441	23672
878.568	23589
878.696	23665
878.824	23608
878.951	23828
879.079	23813
879.206	23885
879.333	23668
879.461	23653
879.588	23691
879.715	23745
879.842	23904
879.97	23767
880.097	23604
880.224	23505
880.351	23535
880.478	23444
880.605	23421
880.732	23501
880.859	23779
880.986	23410
881.112	23505
881.239	23440
881.366	23143
881.493	23033
881.619	22927
881.746	23060
881.872	23067
881.999	22999
882.125	22904
882.252	23109
882.378	23025
882.505	23147
882.631	22938
882.757	22649
882.883	22831
883.01	22713
883.136	22569
883.262	22421
883.388	22554
883.514	22793
883.64	22626
883.766	22645
883.892	22440
884.018	22405
884.143	22691
884.269	22710
884.395	22344
884.52	22379
884.646	22390
884.772	22394
884.897	22173
885.023	22310
885.148	22344
885.274	22443
885.399	22485
885.524	22394
885.65	22276
885.775	22234
885.9	22337
886.025	22325
886.15	22394
886.275	22196
886.4	22219
886.525	22322
886.65	22147
886.775	22303
886.9	22344
887.025	22436
887.149	22375
887.274	22036
887.399	22086
887.523	21994
887.648	22086
887.773	21915
887.897	22196
888.021	22116
888.146	21998
888.27	22139
888.395	22154
888.519	22120
888.643	22093
888.767	22162
888.891	21998
889.015	21641
889.139	21998
889.263	21804
889.387	21903
889.511	22036
889.635	21945
889.759	21907
889.883	21892
890.006	21911
890.13	21884
890.254	21812
890.377	21690
890.501	21648
890.624	21675
890.748	21614
890.871	21443
890.995	21386
891.118	21329
891.241	21382
891.364	21405
891.488	21454
891.611	21431
891.734	21450
891.857	21530
891.98	21507
892.103	21545
892.226	21454
892.349	21428
892.471	21154
892.594	21389
892.717	21256
892.839	21336
892.962	21351
893.085	21359
893.207	21279
893.33	21203
893.452	21199
893.575	21351
893.697	21336
893.819	21367
893.941	21469
894.064	21542
894.186	21131
894.308	21135
894.43	21435
894.552	21500
894.674	21329
894.796	21157
894.918	21218
895.04	21249
895.161	21214
895.283	21386
895.405	21211
895.526	21222
895.648	21207
895.769	21310
895.891	21256
896.012	21393
896.134	21348
896.255	21230
896.376	21199
896.498	21260
896.619	21348
896.74	21264
896.861	21306
896.982	21534
897.103	21690
897.224	21519
897.345	21492
897.466	21416
897.587	21374
897.708	21534
897.828	21515
897.949	21313
898.07	21386
898.19	21340
898.311	21530
898.431	21405
898.552	21359
898.672	21591
898.792	21466
898.913	21473
899.033	21447
899.153	21245
899.273	21135
899.393	21218
899.513	21268
899.633	21302
899.753	21161
899.873	21188
899.993	21184
900.113	21020
900.232	21233
900.352	21176
900.472	21100
900.591	21001
900.711	20963
900.83	20979
900.95	21089
901.069	21188
901.189	20952
901.308	20530
901.427	20514
901.546	20518
901.665	20461
901.784	20473
901.904	20484
902.023	20252
902.141	20115
902.26	19997
902.379	20142
902.498	20122
902.617	19974
902.735	20081
902.854	19970
902.973	19875
903.091	19677
903.21	19616
903.328	19708
903.446	19662
903.565	19384
903.683	19521
903.801	19236
903.919	19346
904.038	19331
904.156	19247
904.274	19422
904.392	19164
904.51	19251
904.627	19122
904.745	19316
904.863	19373
904.981	19069
905.098	18878
905.216	18901
905.334	18958
905.451	18973
905.569	18924
905.686	18954
905.803	18913
905.921	18700
906.038	18715
906.155	18810
906.272	18677
906.389	18597
906.506	18422
906.623	18395
906.74	18494
906.857	18277
906.974	18369
907.091	18635
907.208	18570
907.324	18445
907.441	18369
907.557	18182
907.674	18140
907.79	18026
907.907	18235
908.023	18110
908.139	18254
908.256	18072
908.372	17942
908.488	18087
908.604	17840
908.72	17863
908.836	17828
908.952	17836
909.068	17798
909.184	17882
909.3	17859
909.415	17771
909.531	17855
909.647	17646
909.762	17558
909.878	17467
909.993	17570
910.108	17516
910.224	17509
910.339	17497
910.454	17433
910.57	17486
910.685	17261
910.8	17490
910.915	17551
911.03	17296
911.145	17197
911.259	17132
911.374	17117
911.489	17025
911.604	16972
911.718	16900
911.833	16873
911.947	16706
912.062	16702
912.176	16793
912.291	16812
912.405	16934
912.519	17056
912.633	17029
912.748	16892
912.862	16733
912.976	16611
913.09	16603
913.204	16683
913.318	16725
913.431	16736
913.545	16698
913.659	16793
913.772	16656
913.886	16474
914	16451
914.113	16447
914.226	16531
914.34	16554
914.453	16265
914.566	16363
914.68	16348
914.793	16234
914.906	16196
915.019	16090
915.132	16063
915.245	16131
915.358	15998
915.47	15968
915.583	15979
915.696	15994
915.809	16112
915.921	16158
916.034	15930
916.146	15953
916.259	15911
916.371	15945
916.483	15880
916.595	15823
916.708	15918
916.82	15808
916.932	15644
917.044	15808
917.156	15709
917.268	15682
917.38	15690
917.491	15675
917.603	15576
917.715	15625
917.826	15720
917.938	15629
918.049	15462
918.161	15549
918.272	15644
918.384	15819
918.495	15549
918.606	15477
918.717	15370
918.828	15367
918.939	15294
919.05	15252
919.161	15393
919.272	15085
919.383	15207
919.494	15439
919.604	15477
919.715	15313
919.826	15268
919.936	15260
920.047	15412
920.157	15374
920.267	15488
920.378	15340
920.488	15272
920.598	15477
920.708	15652
920.818	15500
920.928	15408
921.038	15564
921.148	15633
921.258	15298
921.368	15218
921.477	15043
921.587	15005
921.697	14815
921.806	15028
921.916	14895
922.025	14708
922.134	14655
922.244	14613
922.353	14724
922.462	14518
922.571	14541
922.68	14366
922.789	14362
922.898	14313
923.007	14298
923.116	14400
923.224	14278
923.333	14187
923.442	14202
923.55	14176
923.659	14153
923.767	14054
923.876	14065
923.984	14180
924.092	14035
924.201	14001
924.309	14024
924.417	14123
924.525	13932
924.633	13936
924.741	14754
924.849	13818
924.956	13833
925.064	13712
925.172	13689
925.279	13677
925.387	13700
925.494	13601
925.602	13761
925.709	13613
925.816	13578
925.924	13639
926.031	13742
926.138	13734
926.245	13613
926.352	13476
926.459	13723
926.566	13628
926.673	13453
926.779	13445
926.886	13346
926.993	13266
927.099	13278
927.206	13179
927.312	13160
927.419	13217
927.525	13149
927.631	13270
927.737	13126
927.843	13076
927.95	13008
928.056	13061
928.162	13091
928.267	13057
928.373	13761
928.479	13099
928.585	12875
928.69	13019
928.796	13084
928.901	12856
929.007	12741
929.112	12840
929.218	12829
929.323	12776
929.428	12760
929.533	12798
929.638	12631
929.743	12753
929.848	12684
929.953	12631
930.058	12555
930.163	12338
930.267	12395
930.372	12536
930.477	12311
930.581	12566
930.685	12437
930.79	12270
930.894	12311
930.998	12216
931.103	12365
931.207	12068
931.311	11977
931.415	11851
931.519	11699
931.623	11604
