Data from test_V78500241_2319.txt Node
Date: Fri Mar 25 15:57:51 CST 2022
User: usil
Spectrometer: V785-0024
Trigger mode: 0
Integration Time (sec): 4.000000E-1
Scans to average: 1
Nonlinearity correction enabled: false
Boxcar width: 0
Storing dark spectrum: false
XAxis mode: Wavelengths
Number of Pixels in Spectrum: 1024
>>>>>Begin Spectral Data<<<<<
801.071	28771
801.214	28740
801.356	28508
801.499	28519
801.641	28272
801.783	28333
801.926	28382
802.068	28333
802.211	28284
802.353	28109
802.496	28010
802.638	27994
802.78	27945
802.923	28048
803.065	27816
803.208	27991
803.35	27953
803.492	28097
803.635	28177
803.777	27945
803.919	28139
804.061	28554
804.204	28188
804.346	28097
804.488	28082
804.63	28299
804.773	28299
804.915	28268
805.057	28386
805.199	28322
805.341	28341
805.483	28333
805.626	28462
805.768	28295
805.91	28455
806.052	28272
806.194	28325
806.336	28478
806.478	28337
806.62	28386
806.762	28443
806.904	28698
807.046	28843
807.188	28949
807.33	28778
807.472	28888
807.614	28831
807.756	28744
807.898	28668
808.04	28656
808.182	28580
808.324	28653
808.465	28942
808.607	29006
808.749	29098
808.891	29303
809.033	29162
809.174	29105
809.316	28995
809.458	29079
809.6	29083
809.741	29094
809.883	29132
810.025	29296
810.166	29421
810.308	29471
810.45	29296
810.591	29166
810.733	29056
810.875	29083
811.016	28911
811.158	28934
811.299	29197
811.441	29242
811.582	29277
811.724	29067
811.865	29022
812.007	29006
812.148	29090
812.29	29246
812.431	29239
812.573	29322
812.714	29547
812.855	29543
812.997	29661
813.138	29783
813.279	29733
813.421	29505
813.562	29627
813.703	29455
813.845	29239
813.986	29067
814.127	28953
814.268	28713
814.41	28862
814.551	28843
814.692	28991
814.833	28725
814.974	28713
815.115	28748
815.256	28748
815.397	28755
815.539	28470
815.68	28710
815.821	28622
815.962	28573
816.103	28512
816.244	28466
816.385	28455
816.526	28466
816.666	28181
816.807	28097
816.948	28143
817.089	28112
817.23	28101
817.371	28055
817.512	28207
817.653	27983
817.793	27979
817.934	28097
818.075	28116
818.216	28150
818.356	27975
818.497	27979
818.638	27751
818.778	27850
818.919	27926
819.06	27949
819.2	27956
819.341	28169
819.481	28177
819.622	28242
819.762	28500
819.903	28478
820.043	28230
820.184	28226
820.324	28181
820.465	28223
820.605	28325
820.746	28265
820.886	28017
821.026	28322
821.167	28101
821.307	28291
821.447	28101
821.588	28025
821.728	27903
821.868	27713
822.008	27553
822.149	27618
822.289	27572
822.429	27454
822.569	27180
822.709	27176
822.849	27077
822.99	26944
823.13	26925
823.27	27017
823.41	26937
823.55	26602
823.69	27024
823.83	26914
823.97	26853
824.11	26720
824.25	26712
824.389	26743
824.529	26792
824.669	26655
824.809	26758
824.949	26876
825.089	26880
825.228	26876
825.368	26689
825.508	26511
825.648	26549
825.787	26617
825.927	26629
826.067	26743
826.206	26583
826.346	26480
826.485	26701
826.625	26667
826.765	26518
826.904	26788
827.044	26457
827.183	26499
827.323	26320
827.462	26431
827.601	26183
827.741	26210
827.88	26286
828.02	26286
828.159	26358
828.298	26377
828.437	26389
828.577	26073
828.716	26271
828.855	26252
828.994	26081
829.134	26126
829.273	25921
829.412	26016
829.551	26012
829.69	26016
829.829	26096
829.968	26161
830.107	26145
830.246	26065
830.385	25951
830.524	25925
830.663	25696
830.802	25715
830.941	25734
831.08	25712
831.219	25696
831.357	25655
831.496	25966
831.635	25651
831.774	25613
831.913	25594
832.051	25304
832.19	25476
832.329	25441
832.467	25335
832.606	25240
832.744	25175
832.883	25187
833.022	25266
833.16	25339
833.299	25316
833.437	25297
833.576	25419
833.714	25354
833.852	25464
833.991	25415
834.129	25358
834.267	25407
834.406	25400
834.544	25407
834.682	25396
834.821	25285
834.959	25472
835.097	25247
835.235	25415
835.373	25400
835.511	25335
835.65	25190
835.788	24981
835.926	25050
836.064	25034
836.202	24947
836.34	25221
836.478	25289
836.615	25148
836.753	25076
836.891	25263
837.029	25190
837.167	25152
837.305	25057
837.443	25015
837.58	25107
837.718	25031
837.856	25084
837.993	24992
838.131	25023
838.269	24802
838.406	24924
838.544	24848
838.681	24707
838.819	24631
838.956	24388
839.094	24365
839.231	24486
839.369	24582
839.506	24703
839.643	24730
839.781	24467
839.918	24384
840.055	24483
840.193	24300
840.33	24350
840.467	24334
840.604	24505
840.742	24665
840.879	24346
841.016	24216
841.153	24194
841.29	24410
841.427	24410
841.564	24483
841.701	24456
841.838	24334
841.975	24213
842.112	24224
842.249	24190
842.385	24129
842.522	24308
842.659	24114
842.796	24174
842.933	24136
843.069	24091
843.206	24117
843.343	24136
843.479	24057
843.616	24117
843.752	23889
843.889	23870
844.025	24121
844.162	23764
844.298	24011
844.435	23855
844.571	23748
844.708	23901
844.844	24083
844.98	24057
845.117	24064
845.253	23893
845.389	23756
845.525	23745
845.661	23657
845.798	23615
845.934	23733
846.07	23577
846.206	23676
846.342	23695
846.478	23623
846.614	23334
846.75	23254
846.886	23326
847.022	23356
847.158	23368
847.294	23345
847.429	23356
847.565	23387
847.701	23589
847.837	23113
847.972	23048
848.108	23159
848.244	23197
848.379	23025
848.515	22866
848.65	22866
848.786	23033
848.921	23003
849.057	23064
849.192	23018
849.328	22892
849.463	23010
849.598	22942
849.734	22820
849.869	22767
850.004	22706
850.14	22729
850.275	22752
850.41	22554
850.545	22679
850.68	22603
850.815	22809
850.95	22763
851.085	22900
851.22	22904
851.355	22744
851.49	22694
851.625	22618
851.76	22672
851.895	22645
852.03	22687
852.165	22740
852.299	22816
852.434	22717
852.569	22641
852.703	22664
852.838	22774
852.973	22881
853.107	22919
853.242	22637
853.376	22478
853.511	22344
853.645	22440
853.78	22535
853.914	22500
854.048	22466
854.183	22493
854.317	22527
854.451	22702
854.585	22546
854.72	22527
854.854	22649
854.988	22356
855.122	22554
855.256	22341
855.39	22440
855.524	22580
855.658	22653
855.792	22523
855.926	22485
856.06	22763
856.194	22588
856.327	22432
856.461	22402
856.595	22424
856.729	22481
856.862	22683
856.996	22584
857.13	22626
857.263	22557
857.397	22641
857.53	22565
857.664	22459
857.797	22679
857.931	22626
858.064	22561
858.197	22523
858.331	22421
858.464	22436
858.597	22363
858.731	22500
858.864	22462
858.997	22451
859.13	22550
859.263	22481
859.396	22592
859.529	22653
859.662	22462
859.795	22375
859.928	22466
860.061	22561
860.194	22668
860.327	22622
860.46	22519
860.592	22607
860.725	22710
860.858	22641
860.99	22615
861.123	22352
861.256	22451
861.388	22504
861.521	23322
861.653	22268
861.786	22166
861.918	22291
862.05	22363
862.183	22394
862.315	22497
862.447	22470
862.58	22344
862.712	22207
862.844	22257
862.976	22242
863.108	22268
863.24	22793
863.372	22173
863.504	22226
863.636	22173
863.768	22348
863.9	22306
864.032	22109
864.164	22173
864.296	22318
864.428	22333
864.559	22242
864.691	22409
864.823	22291
864.954	22128
865.086	22131
865.217	22051
865.349	22040
865.48	22135
865.612	22135
865.743	22276
865.875	22166
866.006	22055
866.137	22238
866.269	22021
866.4	22074
866.531	21998
866.662	21945
866.793	22101
866.924	21956
867.055	22021
867.186	22055
867.317	22032
867.448	21983
867.579	21956
867.71	21945
867.841	21941
867.972	21983
868.103	21994
868.233	22021
868.364	22055
868.495	22238
868.625	22299
868.756	22417
868.886	22147
869.017	22223
869.147	22398
869.278	22318
869.408	22291
869.539	22280
869.669	22318
869.799	22284
869.929	22466
870.06	22459
870.19	22569
870.32	22637
870.45	22698
870.58	22660
870.71	22736
870.84	22717
870.97	22565
871.1	22672
871.23	22778
871.36	22805
871.489	22725
871.619	22805
871.749	22835
871.879	22835
872.008	22911
872.138	22790
872.267	23025
872.397	22767
872.526	22656
872.656	22786
872.785	22725
872.915	22911
873.044	22911
873.173	22835
873.303	22843
873.432	22889
873.561	22980
873.69	22934
873.819	22934
873.948	22908
874.077	22759
874.206	22843
874.335	22748
874.464	22930
874.593	23090
874.722	22972
874.851	23147
874.979	23121
875.108	23075
875.237	22942
875.365	22949
875.494	23037
875.623	23075
875.751	23109
875.88	23136
876.008	23121
876.136	23288
876.265	23383
876.393	23615
876.521	23520
876.65	23505
876.778	23433
876.906	23364
877.034	23387
877.162	23406
877.29	23368
877.418	23436
877.546	23376
877.674	23421
877.802	23417
877.93	23543
878.058	23425
878.185	23307
878.313	23235
878.441	23478
878.568	23189
878.696	23288
878.824	23608
878.951	23414
879.079	23611
879.206	23672
879.333	23653
879.461	23391
879.588	23482
879.715	23615
879.842	23726
879.97	23387
880.097	23250
880.224	23140
880.351	23254
880.478	23216
880.605	23322
880.732	23254
880.859	23490
880.986	23216
881.112	23208
881.239	23181
881.366	23006
881.493	22904
881.619	22866
881.746	22660
881.872	22831
881.999	22660
882.125	22755
882.252	22748
882.378	22866
882.505	22763
882.631	22538
882.757	22588
882.883	22599
883.01	22436
883.136	22485
883.262	22341
883.388	22451
883.514	22500
883.64	22436
883.766	22299
883.892	22333
884.018	22310
884.143	22398
884.269	22409
884.395	22082
884.52	22090
884.646	22147
884.772	22082
884.897	22010
885.023	22044
885.148	22325
885.274	22325
885.399	22215
885.524	22166
885.65	22181
885.775	22143
885.9	22196
886.025	22185
886.15	22097
886.275	22055
886.4	22063
886.525	22135
886.65	22048
886.775	22067
886.9	22215
887.025	22440
887.149	21972
887.274	21899
887.399	21915
887.523	21934
887.648	21762
887.773	21827
887.897	21876
888.021	21922
888.146	21838
888.27	21865
888.395	21930
888.519	21934
888.643	21888
888.767	21975
888.891	21720
889.015	21648
889.139	21766
889.263	21667
889.387	21743
889.511	21842
889.635	21804
889.759	21610
889.883	21557
890.006	21747
890.13	21823
890.254	21663
890.377	21671
890.501	21386
890.624	21416
890.748	21534
890.871	21192
890.995	21241
891.118	21150
891.241	21313
891.364	21249
891.488	21397
891.611	21260
891.734	21287
891.857	21203
891.98	21340
892.103	21245
892.226	21039
892.349	21165
892.471	21058
892.594	21173
892.717	21123
892.839	21142
892.962	21085
893.085	21165
893.207	21020
893.33	20998
893.452	20982
893.575	21142
893.697	21066
893.819	21226
893.941	21256
894.064	21237
894.186	20967
894.308	20944
894.43	21173
894.552	21184
894.674	21161
894.796	21055
894.918	21062
895.04	21013
895.161	21146
895.283	21074
895.405	21020
895.526	21176
895.648	21093
895.769	21211
895.891	21108
896.012	21249
896.134	21165
896.255	21173
896.376	20960
896.498	21119
896.619	21142
896.74	20982
896.861	21127
896.982	21336
897.103	21587
897.224	21294
897.345	21332
897.466	21192
897.587	21298
897.708	21397
897.828	21431
897.949	21336
898.07	21161
898.19	21245
898.311	21340
898.431	21188
898.552	21416
898.672	21325
898.792	21344
898.913	21294
899.033	21157
899.153	21077
899.273	21020
899.393	21036
899.513	21089
899.633	21093
899.753	20994
899.873	20914
899.993	21055
900.113	20967
900.232	20967
900.352	21013
900.472	20781
900.591	20720
900.711	20849
900.83	20716
900.95	20910
901.069	20853
901.189	20716
901.308	20457
901.427	20237
901.546	20343
901.665	20362
901.784	20454
901.904	20290
902.023	20149
902.141	19864
902.26	19978
902.379	19993
902.498	19776
902.617	19807
902.735	19898
902.854	19932
902.973	19647
903.091	19449
903.21	19514
903.328	19506
903.446	19411
903.565	19350
903.683	19396
903.801	19255
903.919	19164
904.038	19244
904.156	19023
904.274	19114
904.392	18951
904.51	18913
904.627	19000
904.745	19107
904.863	19133
904.981	18909
905.098	18760
905.216	18696
905.334	18692
905.451	18798
905.569	18707
905.686	18791
905.803	18661
905.921	18544
906.038	18650
906.155	18559
906.272	18399
906.389	18479
906.506	18308
906.623	18220
906.74	18311
906.857	18205
906.974	18152
907.091	18304
907.208	18395
907.324	18289
907.441	18114
907.557	18045
907.674	17950
907.79	17878
907.907	17965
908.023	18041
908.139	17946
908.256	17878
908.372	17802
908.488	17885
908.604	17832
908.72	17676
908.836	17649
908.952	17642
909.068	17604
909.184	17813
909.3	17600
909.415	17710
909.531	17726
909.647	17410
909.762	17421
909.878	17379
909.993	17524
910.108	17341
910.224	17326
910.339	17326
910.454	17216
910.57	17136
910.685	17090
910.8	17349
910.915	17269
911.03	17212
911.145	17022
911.259	16949
911.374	16835
911.489	16896
911.604	16782
911.718	16691
911.833	16706
911.947	16702
912.062	16584
912.176	16664
912.291	16717
912.405	16664
912.519	16854
912.633	16793
912.748	16790
912.862	16668
912.976	16428
913.09	16493
913.204	16478
913.318	16443
913.431	16508
913.545	16599
913.659	16535
913.772	16459
913.886	16417
914	16341
914.113	16367
914.226	16405
914.34	16333
914.453	16253
914.566	16272
914.68	16120
914.793	16128
914.906	16059
915.019	15934
915.132	15827
915.245	15869
915.358	15835
915.47	15884
915.583	15819
915.696	15873
915.809	15895
915.921	15953
916.034	15865
916.146	15778
916.259	15663
916.371	15785
916.483	15755
916.595	15633
916.708	15682
916.82	15663
916.932	15637
917.044	15587
917.156	15542
917.268	15519
917.38	15447
917.491	15443
917.603	15599
917.715	15557
917.826	15625
917.938	15469
918.049	15275
918.161	15515
918.272	15595
918.384	15545
918.495	15412
918.606	15332
918.717	15199
918.828	15199
918.939	15233
919.05	15226
919.161	15154
919.272	15112
919.383	15077
919.494	15298
919.604	15450
919.715	15214
919.826	15230
919.936	15195
920.047	15237
920.157	15104
920.267	15279
920.378	15161
920.488	15119
920.598	15359
920.708	15424
920.818	15355
920.928	15272
921.038	15389
921.148	15382
921.258	15104
921.368	15070
921.477	14918
921.587	15017
921.697	14689
921.806	14929
921.916	14731
922.025	14663
922.134	14590
922.244	14552
922.353	14427
922.462	14438
922.571	14317
922.68	14229
922.789	14221
922.898	14233
923.007	14130
923.116	14187
923.224	14221
923.333	14168
923.442	14027
923.55	13974
923.659	14119
923.767	14149
923.876	13997
923.984	13963
924.092	13913
924.201	14012
924.309	14001
924.417	13883
924.525	13780
924.633	13814
924.741	14800
924.849	13674
924.956	13784
925.064	13704
925.172	13575
925.279	13597
925.387	13639
925.494	13578
925.602	13681
925.709	13636
925.816	13483
925.924	13521
926.031	13624
926.138	13597
926.245	13510
926.352	13438
926.459	13628
926.566	13628
926.673	13502
926.779	13346
926.886	13304
926.993	13168
927.099	13065
927.206	13099
927.312	13110
927.419	13175
927.525	13133
927.631	13057
927.737	13053
927.843	12996
927.95	12852
928.056	12817
928.162	12932
928.267	13019
928.373	13578
928.479	13080
928.585	12821
928.69	12871
928.796	12920
928.901	12825
929.007	12703
929.112	12802
929.218	12669
929.323	12715
929.428	12669
929.533	12840
929.638	12623
929.743	12574
929.848	12711
929.953	12627
930.058	12441
930.163	12319
930.267	12369
930.372	12395
930.477	12372
930.581	12547
930.685	12319
930.79	12266
930.894	12243
930.998	12167
931.103	12292
931.207	12038
931.311	11931
931.415	11783
931.519	11577
931.623	11577
