Data from test_V78500241_3752.txt Node
Date: Fri Mar 25 16:07:47 CST 2022
User: usil
Spectrometer: V785-0024
Trigger mode: 0
Integration Time (sec): 4.000000E-1
Scans to average: 1
Nonlinearity correction enabled: false
Boxcar width: 0
Storing dark spectrum: false
XAxis mode: Wavelengths
Number of Pixels in Spectrum: 1024
>>>>>Begin Spectral Data<<<<<
801.071	28306
801.214	28356
801.356	28158
801.499	28207
801.641	28120
801.783	28025
801.926	27998
802.068	27945
802.211	27899
802.353	28002
802.496	27637
802.638	27614
802.78	27671
802.923	27572
803.065	27587
803.208	27713
803.35	27679
803.492	27743
803.635	27888
803.777	27652
803.919	27903
804.061	28116
804.204	27850
804.346	27739
804.488	27800
804.63	27816
804.773	27766
804.915	27953
805.057	28048
805.199	27846
805.341	27960
805.483	28124
805.626	27945
805.768	27762
805.91	27975
806.052	28063
806.194	28032
806.336	28291
806.478	27987
806.62	28013
806.762	28238
806.904	28390
807.046	28641
807.188	28421
807.33	28538
807.472	28432
807.614	28413
807.756	28405
807.898	28268
808.04	28291
808.182	28226
808.324	28356
808.465	28394
808.607	28611
808.749	28641
808.891	28740
809.033	28736
809.174	28679
809.316	28767
809.458	28809
809.6	28607
809.741	28763
809.883	28774
810.025	28946
810.166	28957
810.308	28991
810.45	29014
810.591	28976
810.733	28729
810.875	28782
811.016	28561
811.158	28660
811.299	28793
811.441	28767
811.582	28831
811.724	28653
811.865	28763
812.007	28744
812.148	28786
812.29	28752
812.431	28877
812.573	28961
812.714	29071
812.855	29181
812.997	29284
813.138	29467
813.279	29170
813.421	29406
813.562	29136
813.703	29075
813.845	29090
813.986	28622
814.127	28493
814.268	28462
814.41	28413
814.551	28379
814.692	28519
814.833	28303
814.974	28310
815.115	28356
815.256	28295
815.397	28375
815.539	28276
815.68	28230
815.821	28158
815.962	28219
816.103	28299
816.244	28105
816.385	27968
816.526	28010
816.666	27865
816.807	27698
816.948	27922
817.089	27720
817.23	27717
817.371	27709
817.512	27629
817.653	27648
817.793	27743
817.934	27762
818.075	27671
818.216	27823
818.356	27690
818.497	27667
818.638	27355
818.778	27572
818.919	27515
819.06	27523
819.2	27648
819.341	27686
819.481	27705
819.622	27846
819.762	28048
819.903	27865
820.043	27979
820.184	27949
820.324	27854
820.465	27816
820.605	27759
820.746	27857
820.886	27610
821.026	27869
821.167	27823
821.307	27968
821.447	27736
821.588	27709
821.728	27458
821.868	27256
822.008	27294
822.149	27233
822.289	27089
822.429	26880
822.569	26906
822.709	26933
822.849	26762
822.99	26655
823.13	26773
823.27	26739
823.41	26617
823.55	26305
823.69	26590
823.83	26450
823.97	26453
824.11	26301
824.25	26343
824.389	26313
824.529	26514
824.669	26393
824.809	26514
824.949	26480
825.089	26347
825.228	26336
825.368	26142
825.508	26199
825.648	26195
825.787	26298
825.927	26336
826.067	26244
826.206	26119
826.346	26218
826.485	26210
826.625	26130
826.765	26423
826.904	26370
827.044	26100
827.183	25993
827.323	25909
827.462	26111
827.601	25974
827.741	26008
827.88	26031
828.02	25868
828.159	26024
828.298	25902
828.437	25925
828.577	25856
828.716	26100
828.855	25887
828.994	25559
829.134	25674
829.273	25616
829.412	25514
829.551	25556
829.69	25582
829.829	25708
829.968	25700
830.107	25635
830.246	25746
830.385	25632
830.524	25506
830.663	25426
830.802	25346
830.941	25228
831.08	25129
831.219	25289
831.357	25434
831.496	25415
831.635	25293
831.774	25274
831.913	25053
832.051	24916
832.19	24996
832.329	25057
832.467	24985
832.606	24867
832.744	24890
832.883	24947
833.022	24734
833.16	24920
833.299	24962
833.437	25004
833.576	24924
833.714	24943
833.852	24970
833.991	24954
834.129	25023
834.267	25099
834.406	24954
834.544	25065
834.682	24920
834.821	24951
834.959	25053
835.097	24871
835.235	25031
835.373	25027
835.511	24947
835.65	24943
835.788	24901
835.926	24642
836.064	24490
836.202	24635
836.34	24787
836.478	24852
836.615	24768
836.753	24882
836.891	24840
837.029	24787
837.167	24741
837.305	24639
837.443	24738
837.58	24585
837.718	24791
837.856	24684
837.993	24536
838.131	24753
838.269	24448
838.406	24601
838.544	24391
838.681	24315
838.819	24186
838.956	23984
839.094	24068
839.231	24098
839.369	24254
839.506	24456
839.643	24460
839.781	24034
839.918	23874
840.055	24121
840.193	24034
840.33	23984
840.467	24049
840.604	23882
840.742	24209
840.879	23942
841.016	23931
841.153	23893
841.29	24174
841.427	23992
841.564	23935
841.701	24007
841.838	23927
841.975	23832
842.112	24022
842.249	23961
842.385	23771
842.522	24038
842.659	23790
842.796	23707
842.933	23627
843.069	23627
843.206	23649
843.343	23745
843.479	23889
843.616	23680
843.752	23547
843.889	23543
844.025	23737
844.162	23535
844.298	23775
844.435	23539
844.571	23661
844.708	23444
844.844	23767
844.98	23558
845.117	23596
845.253	23467
845.389	23478
845.525	23440
845.661	23269
845.798	23292
845.934	23391
846.07	23246
846.206	23303
846.342	23425
846.478	23204
846.614	23018
846.75	22976
846.886	22991
847.022	23029
847.158	23090
847.294	22946
847.429	22946
847.565	22980
847.701	23174
847.837	22717
847.972	22694
848.108	22733
848.244	22778
848.379	22569
848.515	22538
848.65	22535
848.786	22634
848.921	22531
849.057	22546
849.192	22630
849.328	22550
849.463	22596
849.598	22542
849.734	22466
849.869	22603
850.004	22390
850.14	22325
850.275	22386
850.41	22280
850.545	22329
850.68	22421
850.815	22360
850.95	22390
851.085	22573
851.22	22481
851.355	22333
851.49	22329
851.625	22325
851.76	22344
851.895	22310
852.03	22192
852.165	22272
852.299	22314
852.434	22329
852.569	22284
852.703	22367
852.838	22409
852.973	22421
853.107	22417
853.242	22341
853.376	22200
853.511	22109
853.645	22067
853.78	22360
853.914	22086
854.048	22101
854.183	22143
854.317	22143
854.451	22371
854.585	22238
854.72	22173
854.854	22196
854.988	22131
855.122	22204
855.256	22055
855.39	22158
855.524	22284
855.658	22219
855.792	22318
855.926	22204
856.06	22211
856.194	22398
856.327	22120
856.461	22082
856.595	22131
856.729	22101
856.862	22265
856.996	22150
857.13	22211
857.263	22390
857.397	22329
857.53	22234
857.664	22291
857.797	22276
857.931	22291
858.064	22265
858.197	22356
858.331	22238
858.464	22063
858.597	22040
858.731	22196
858.864	22185
858.997	22010
859.13	22177
859.263	22207
859.396	22181
859.529	22074
859.662	22105
859.795	22116
859.928	22246
860.061	22398
860.194	22257
860.327	22325
860.46	22169
860.592	22440
860.725	22284
860.858	22424
860.99	22154
861.123	22162
861.256	22181
861.388	22124
861.521	22744
861.653	22090
861.786	21869
861.918	22044
862.05	22086
862.183	22086
862.315	22101
862.447	22173
862.58	22051
862.712	21979
862.844	21888
862.976	22090
863.108	22013
863.24	22531
863.372	21857
863.504	21895
863.636	21892
863.768	22002
863.9	21876
864.032	21766
864.164	21865
864.296	22010
864.428	22006
864.559	21934
864.691	21968
864.823	21937
864.954	21979
865.086	21880
865.217	21759
865.349	21572
865.48	21743
865.612	21915
865.743	21911
865.875	21720
866.006	21838
866.137	21800
866.269	21762
866.4	21770
866.531	21778
866.662	21766
866.793	21717
866.924	21762
867.055	21759
867.186	21751
867.317	21774
867.448	21622
867.579	21667
867.71	21603
867.841	21622
867.972	21717
868.103	21713
868.233	21739
868.364	21698
868.495	21808
868.625	22051
868.756	22044
868.886	22025
869.017	21934
869.147	22082
869.278	22051
869.408	21953
869.539	21880
869.669	22078
869.799	22139
869.929	21968
870.06	22048
870.19	22344
870.32	22268
870.45	22246
870.58	22261
870.71	22500
870.84	22466
870.97	22314
871.1	22470
871.23	22500
871.36	22622
871.489	22462
871.619	22386
871.749	22588
871.879	22626
872.008	22580
872.138	22664
872.267	22569
872.397	22485
872.526	22436
872.656	22428
872.785	22417
872.915	22725
873.044	22596
873.173	22573
873.303	22713
873.432	22561
873.561	22755
873.69	22531
873.819	22535
873.948	22710
874.077	22622
874.206	22523
874.335	22516
874.464	22702
874.593	22736
874.722	22843
874.851	22687
874.979	22850
875.108	22809
875.237	22755
875.365	22615
875.494	22694
875.623	22820
875.751	22748
875.88	22816
876.008	22896
876.136	23025
876.265	23204
876.393	23383
876.521	23307
876.65	23303
876.778	23258
876.906	23193
877.034	22980
877.162	23330
877.29	23044
877.418	23258
877.546	23147
877.674	23117
877.802	23143
877.93	23022
878.058	23022
878.185	23132
878.313	23022
878.441	23124
878.568	23033
878.696	23067
878.824	23204
878.951	23326
879.079	23299
879.206	23398
879.333	23242
879.461	23185
879.588	23208
879.715	23433
879.842	23402
879.97	23098
880.097	23018
880.224	22896
880.351	22987
880.478	23044
880.605	23037
880.732	22991
880.859	23273
880.986	22908
881.112	23052
881.239	22858
881.366	22698
881.493	22759
881.619	22455
881.746	22634
881.872	22550
881.999	22462
882.125	22447
882.252	22618
882.378	22493
882.505	22596
882.631	22386
882.757	22276
882.883	22318
883.01	22242
883.136	22185
883.262	22010
883.388	21968
883.514	22303
883.64	22303
883.766	22204
883.892	22067
884.018	22036
884.143	22135
884.269	22128
884.395	21994
884.52	21808
884.646	21911
884.772	21892
884.897	21823
885.023	21880
885.148	21926
885.274	22147
885.399	22070
885.524	21915
885.65	21816
885.775	21751
885.9	21766
886.025	21903
886.15	22021
886.275	21778
886.4	21778
886.525	21831
886.65	21713
886.775	21736
886.9	21979
887.025	22124
887.149	21812
887.274	21679
887.399	21698
887.523	21603
887.648	21587
887.773	21511
887.897	21804
888.021	21606
888.146	21580
888.27	21762
888.395	21606
888.519	21698
888.643	21762
888.767	21686
888.891	21523
889.015	21443
889.139	21526
889.263	21530
889.387	21542
889.511	21686
889.635	21583
889.759	21462
889.883	21469
890.006	21424
890.13	21599
890.254	21310
890.377	21268
890.501	21199
890.624	21089
890.748	21127
890.871	21085
890.995	21032
891.118	20994
891.241	20956
891.364	21051
891.488	21074
891.611	21043
891.734	20948
891.857	21055
891.98	20956
892.103	21096
892.226	20918
892.349	20895
892.471	20739
892.594	20857
892.717	20872
892.839	20845
892.962	21009
893.085	20910
893.207	20830
893.33	20777
893.452	20804
893.575	20788
893.697	20762
893.819	21074
893.941	21058
894.064	21062
894.186	20777
894.308	20743
894.43	20975
894.552	21051
894.674	20910
894.796	20785
894.918	20773
895.04	20823
895.161	20952
895.283	20876
895.405	20876
895.526	20895
895.648	20811
895.769	20906
895.891	20895
896.012	20944
896.134	20864
896.255	20868
896.376	20746
896.498	20864
896.619	20796
896.74	20815
896.861	20891
896.982	21154
897.103	21428
897.224	21146
897.345	21043
897.466	20914
897.587	21150
897.708	21150
897.828	21100
897.949	21036
898.07	20868
898.19	20914
898.311	21093
898.431	20895
898.552	21070
898.672	21093
898.792	21119
898.913	21116
899.033	20906
899.153	20948
899.273	20720
899.393	20762
899.513	20762
899.633	20735
899.753	20872
899.873	20750
899.993	20739
900.113	20674
900.232	20689
900.352	20796
900.472	20594
900.591	20507
900.711	20583
900.83	20465
900.95	20712
901.069	20606
901.189	20423
901.308	20206
901.427	20088
901.546	20267
901.665	20145
901.784	20210
901.904	20107
902.023	19871
902.141	19753
902.26	19704
902.379	19647
902.498	19784
902.617	19567
902.735	19670
902.854	19514
902.973	19552
903.091	19373
903.21	19217
903.328	19198
903.446	19244
903.565	19061
903.683	19110
903.801	19008
903.919	19027
904.038	18981
904.156	18863
904.274	18981
904.392	18878
904.51	18863
904.627	18795
904.745	18924
904.863	18981
904.981	18544
905.098	18486
905.216	18536
905.334	18521
905.451	18521
905.569	18547
905.686	18483
905.803	18517
905.921	18334
906.038	18433
906.155	18273
906.272	18174
906.389	18258
906.506	18064
906.623	18041
906.74	18045
906.857	17783
906.974	17901
907.091	18060
907.208	18129
907.324	18049
907.441	17973
907.557	17840
907.674	17752
907.79	17760
907.907	17619
908.023	17802
908.139	17809
908.256	17710
908.372	17653
908.488	17608
908.604	17573
908.72	17471
908.836	17474
908.952	17493
909.068	17440
909.184	17570
909.3	17528
909.415	17429
909.531	17482
909.647	17166
909.762	17181
909.878	17102
909.993	17189
910.108	17102
910.224	17124
910.339	17239
910.454	16980
910.57	17022
910.685	17003
910.8	17170
910.915	17143
911.03	16938
911.145	16790
911.259	16649
911.374	16725
911.489	16660
911.604	16649
911.718	16622
911.833	16630
911.947	16363
912.062	16341
912.176	16531
912.291	16493
912.405	16466
912.519	16702
912.633	16626
912.748	16493
912.862	16451
912.976	16249
913.09	16211
913.204	16287
913.318	16234
913.431	16462
913.545	16367
913.659	16386
913.772	16261
913.886	16265
914	16082
914.113	16204
914.226	16162
914.34	16177
914.453	16013
914.566	16097
914.68	16006
914.793	15949
914.906	15720
915.019	15698
915.132	15591
915.245	15728
915.358	15766
915.47	15713
915.583	15682
915.696	15644
915.809	15774
915.921	15850
916.034	15580
916.146	15576
916.259	15523
916.371	15728
916.483	15682
916.595	15622
916.708	15477
916.82	15492
916.932	15408
917.044	15568
917.156	15511
917.268	15332
917.38	15291
917.491	15264
917.603	15214
917.715	15321
917.826	15473
917.938	15302
918.049	15119
918.161	15340
918.272	15382
918.384	15367
918.495	15294
918.606	15184
918.717	15013
918.828	15135
918.939	15169
919.05	14960
919.161	15039
919.272	14872
919.383	14883
919.494	15184
919.604	15176
919.715	14960
919.826	14914
919.936	15020
920.047	15131
920.157	14998
920.267	15195
920.378	15150
920.488	14956
920.598	15207
920.708	15260
920.818	15089
920.928	15119
921.038	15344
921.148	15237
921.258	15005
921.368	14899
921.477	14735
921.587	14712
921.697	14689
921.806	14712
921.916	14568
922.025	14404
922.134	14381
922.244	14313
922.353	14294
922.462	14271
922.571	14126
922.68	14031
922.789	14077
922.898	14001
923.007	14024
923.116	13982
923.224	13944
923.333	13921
923.442	13871
923.55	13868
923.659	13864
923.767	13917
923.876	13689
923.984	13894
924.092	13708
924.201	13727
924.309	13772
924.417	13696
924.525	13723
924.633	13636
924.741	14667
924.849	13445
924.956	13643
925.064	13476
925.172	13343
925.279	13327
925.387	13411
925.494	13426
925.602	13445
925.709	13373
925.816	13381
925.924	13392
926.031	13464
926.138	13297
926.245	13350
926.352	13160
926.459	13358
926.566	13441
926.673	13278
926.779	13137
926.886	13122
926.993	13000
927.099	13057
927.206	12913
927.312	12897
927.419	12951
927.525	12863
927.631	12928
927.737	12856
927.843	12768
927.95	12684
928.056	12791
928.162	12738
928.267	12817
928.373	13426
928.479	12852
928.585	12688
928.69	12772
928.796	12753
928.901	12578
929.007	12490
929.112	12650
929.218	12544
929.323	12506
929.428	12528
929.533	12517
929.638	12357
929.743	12464
929.848	12475
929.953	12471
930.058	12190
930.163	12178
930.267	12178
930.372	12369
930.477	12091
930.581	12327
930.685	12186
930.79	12026
930.894	11999
930.998	12053
931.103	12224
931.207	11805
931.311	11794
931.415	11604
931.519	11395
931.623	11360
