Data from test_V78500241_3753.txt Node
Date: Fri Mar 25 16:07:48 CST 2022
User: usil
Spectrometer: V785-0024
Trigger mode: 0
Integration Time (sec): 4.000000E-1
Scans to average: 1
Nonlinearity correction enabled: false
Boxcar width: 0
Storing dark spectrum: false
XAxis mode: Wavelengths
Number of Pixels in Spectrum: 1024
>>>>>Begin Spectral Data<<<<<
801.071	28360
801.214	28322
801.356	28078
801.499	28150
801.641	28036
801.783	27899
801.926	28078
802.068	27964
802.211	27850
802.353	27892
802.496	27682
802.638	27629
802.78	27663
802.923	27717
803.065	27504
803.208	27610
803.35	27785
803.492	27835
803.635	27975
803.777	27797
803.919	27835
804.061	28291
804.204	27873
804.346	27800
804.488	27694
804.63	27873
804.773	27876
804.915	27873
805.057	27994
805.199	27762
805.341	27759
805.483	28101
805.626	28006
805.768	27949
805.91	27892
806.052	28051
806.194	28025
806.336	28181
806.478	27953
806.62	27998
806.762	28337
806.904	28318
807.046	28645
807.188	28603
807.33	28436
807.472	28531
807.614	28398
807.756	28447
807.898	28303
808.04	28348
808.182	28428
808.324	28413
808.465	28314
808.607	28645
808.749	28656
808.891	28740
809.033	28892
809.174	28702
809.316	28816
809.458	28869
809.6	28687
809.741	28866
809.883	28866
810.025	29018
810.166	28957
810.308	29056
810.45	28991
810.591	28938
810.733	28896
810.875	28778
811.016	28653
811.158	28622
811.299	28831
811.441	29003
811.582	28858
811.724	28778
811.865	28672
812.007	28615
812.148	28683
812.29	28744
812.431	28877
812.573	28946
812.714	29166
812.855	29269
812.997	29326
813.138	29543
813.279	29425
813.421	29326
813.562	29265
813.703	28976
813.845	28991
813.986	28786
814.127	28660
814.268	28451
814.41	28535
814.551	28447
814.692	28500
814.833	28356
814.974	28398
815.115	28527
815.256	28428
815.397	28325
815.539	28348
815.68	28249
815.821	28276
815.962	28291
816.103	28253
816.244	28257
816.385	27991
816.526	27941
816.666	27800
816.807	27918
816.948	27842
817.089	27835
817.23	27606
817.371	27648
817.512	27713
817.653	27717
817.793	27663
817.934	27717
818.075	27736
818.216	27663
818.356	27644
818.497	27720
818.638	27507
818.778	27507
818.919	27511
819.06	27618
819.2	27568
819.341	27819
819.481	27739
819.622	27914
819.762	28063
819.903	27964
820.043	28010
820.184	27964
820.324	27842
820.465	27991
820.605	27983
820.746	27831
820.886	27694
821.026	27854
821.167	27911
821.307	27876
821.447	27778
821.588	27641
821.728	27686
821.868	27610
822.008	27260
822.149	27207
822.289	27226
822.429	27070
822.569	26857
822.709	26906
822.849	26705
822.99	26682
823.13	26712
823.27	26651
823.41	26556
823.55	26427
823.69	26568
823.83	26568
823.97	26636
824.11	26370
824.25	26339
824.389	26412
824.529	26545
824.669	26336
824.809	26473
824.949	26362
825.089	26541
825.228	26415
825.368	26210
825.508	26073
825.648	26320
825.787	26153
825.927	26317
826.067	26161
826.206	26180
826.346	26355
826.485	26252
826.625	26275
826.765	26221
826.904	26309
827.044	26126
827.183	26050
827.323	25898
827.462	26043
827.601	25970
827.741	25986
827.88	25993
828.02	25936
828.159	25906
828.298	26062
828.437	26001
828.577	25909
828.716	25833
828.855	25830
828.994	25719
829.134	25677
829.273	25757
829.412	25761
829.551	25571
829.69	25540
829.829	25715
829.968	25841
830.107	25715
830.246	25742
830.385	25727
830.524	25635
830.663	25521
830.802	25415
830.941	25236
831.08	25244
831.219	25289
831.357	25422
831.496	25529
831.635	25358
831.774	25118
831.913	25217
832.051	25034
832.19	25084
832.329	24966
832.467	25023
832.606	24875
832.744	24871
832.883	24947
833.022	24875
833.16	25000
833.299	25023
833.437	24989
833.576	25027
833.714	24996
833.852	25088
833.991	24897
834.129	25187
834.267	24981
834.406	24981
834.544	25027
834.682	24894
834.821	24985
834.959	25137
835.097	24875
835.235	25099
835.373	24920
835.511	24939
835.65	24882
835.788	24833
835.926	24749
836.064	24639
836.202	24688
836.34	24863
836.478	24840
836.615	24802
836.753	24791
836.891	24802
837.029	24825
837.167	24833
837.305	24749
837.443	24673
837.58	24688
837.718	24669
837.856	24779
837.993	24658
838.131	24745
838.269	24448
838.406	24494
838.544	24464
838.681	24407
838.819	24327
838.956	24045
839.094	24095
839.231	24136
839.369	24376
839.506	24471
839.643	24201
839.781	24083
839.918	24041
840.055	23961
840.193	24129
840.33	24030
840.467	24007
840.604	24121
840.742	24300
840.879	23912
841.016	23904
841.153	23859
841.29	24167
841.427	24159
841.564	24136
841.701	23969
841.838	23927
841.975	23950
842.112	23821
842.249	23878
842.385	23901
842.522	23973
842.659	23847
842.796	23840
842.933	23760
843.069	23726
843.206	23779
843.343	23866
843.479	23790
843.616	23809
843.752	23600
843.889	23596
844.025	23760
844.162	23501
844.298	23440
844.435	23585
844.571	23459
844.708	23535
844.844	23657
844.98	23695
845.117	23676
845.253	23684
845.389	23433
845.525	23440
845.661	23417
845.798	23383
845.934	23311
846.07	23197
846.206	23345
846.342	23505
846.478	23223
846.614	23113
846.75	22873
846.886	22934
847.022	23060
847.158	23117
847.294	22904
847.429	22991
847.565	22965
847.701	23174
847.837	22790
847.972	22797
848.108	22839
848.244	22793
848.379	22706
848.515	22683
848.65	22656
848.786	22615
848.921	22816
849.057	22653
849.192	22679
849.328	22599
849.463	22713
849.598	22538
849.734	22618
849.869	22436
850.004	22405
850.14	22440
850.275	22436
850.41	22287
850.545	22363
850.68	22280
850.815	22493
850.95	22497
851.085	22527
851.22	22538
851.355	22379
851.49	22386
851.625	22409
851.76	22360
851.895	22390
852.03	22272
852.165	22390
852.299	22402
852.434	22390
852.569	22443
852.703	22287
852.838	22489
852.973	22516
853.107	22440
853.242	22253
853.376	22219
853.511	22223
853.645	22128
853.78	22348
853.914	22371
854.048	22074
854.183	22166
854.317	22272
854.451	22516
854.585	22192
854.72	22181
854.854	22253
854.988	22204
855.122	22207
855.256	22131
855.39	22192
855.524	22306
855.658	22303
855.792	22204
855.926	22249
856.06	22261
856.194	22348
856.327	22192
856.461	22154
856.595	22204
856.729	22234
856.862	22204
856.996	22234
857.13	22226
857.263	22333
857.397	22268
857.53	22086
857.664	22116
857.797	22226
857.931	22295
858.064	22234
858.197	22329
858.331	22211
858.464	22112
858.597	22105
858.731	22128
858.864	22185
858.997	22063
859.13	22131
859.263	22310
859.396	22375
859.529	22196
859.662	22143
859.795	22112
859.928	22173
860.061	22322
860.194	22287
860.327	22234
860.46	22306
860.592	22386
860.725	22318
860.858	22390
860.99	22226
861.123	22204
861.256	22177
861.388	22181
861.521	22976
861.653	22109
861.786	22070
861.918	22074
862.05	22101
862.183	22150
862.315	22109
862.447	22177
862.58	22181
862.712	22002
862.844	21873
862.976	22021
863.108	22067
863.24	22295
863.372	21911
863.504	21922
863.636	21774
863.768	22048
863.9	21880
864.032	21724
864.164	21831
864.296	21895
864.428	22025
864.559	21983
864.691	21930
864.823	21911
864.954	21850
865.086	21895
865.217	21762
865.349	21751
865.48	21793
865.612	21762
865.743	21930
865.875	21812
866.006	21663
866.137	21880
866.269	21819
866.4	21713
866.531	21774
866.662	21736
866.793	21759
866.924	21686
867.055	21755
867.186	21686
867.317	21675
867.448	21534
867.579	21736
867.71	21705
867.841	21603
867.972	21736
868.103	21671
868.233	21766
868.364	21869
868.495	21774
868.625	21960
868.756	22044
868.886	21884
869.017	21953
869.147	21998
869.278	22036
869.408	22090
869.539	21861
869.669	22070
869.799	22010
869.929	22082
870.06	22116
870.19	22337
870.32	22135
870.45	22306
870.58	22363
870.71	22489
870.84	22436
870.97	22382
871.1	22344
871.23	22535
871.36	22565
871.489	22535
871.619	22489
871.749	22508
871.879	22649
872.008	22679
872.138	22767
872.267	22459
872.397	22421
872.526	22417
872.656	22470
872.785	22398
872.915	22557
873.044	22577
873.173	22577
873.303	22596
873.432	22584
873.561	22698
873.69	22584
873.819	22519
873.948	22683
874.077	22569
874.206	22637
874.335	22481
874.464	22611
874.593	22740
874.722	22759
874.851	22885
874.979	22847
875.108	22858
875.237	22763
875.365	22634
875.494	22702
875.623	22927
875.751	22740
875.88	22885
876.008	22850
876.136	23006
876.265	23181
876.393	23261
876.521	23337
876.65	23231
876.778	23140
876.906	23197
877.034	23136
877.162	23212
877.29	23132
877.418	23181
877.546	23212
877.674	23178
877.802	23277
877.93	23109
878.058	23079
878.185	23018
878.313	23124
878.441	23121
878.568	22965
878.696	23147
878.824	23189
878.951	23216
879.079	23368
879.206	23341
879.333	23372
879.461	23147
879.588	23356
879.715	23277
879.842	23433
879.97	23242
880.097	22995
880.224	22946
880.351	22946
880.478	22938
880.605	22904
880.732	23006
880.859	23223
880.986	23003
881.112	23044
881.239	22930
881.366	22713
881.493	22755
881.619	22557
881.746	22428
881.872	22546
881.999	22611
882.125	22443
882.252	22535
882.378	22523
882.505	22557
882.631	22306
882.757	22196
882.883	22318
883.01	22303
883.136	22200
883.262	22002
883.388	22150
883.514	22284
883.64	22265
883.766	22124
883.892	22013
884.018	21884
884.143	22143
884.269	22284
884.395	21838
884.52	21812
884.646	21850
884.772	21755
884.897	21724
885.023	21884
885.148	21850
885.274	22006
885.399	21972
885.524	21762
885.65	21831
885.775	21835
885.9	21895
886.025	22055
886.15	21968
886.275	21770
886.4	21698
886.525	21842
886.65	21732
886.775	21861
886.9	21865
887.025	21972
887.149	21675
887.274	21633
887.399	21622
887.523	21789
887.648	21587
887.773	21473
887.897	21682
888.021	21690
888.146	21595
888.27	21812
888.395	21485
888.519	21663
888.643	21637
888.767	21728
888.891	21557
889.015	21378
889.139	21492
889.263	21454
889.387	21408
889.511	21515
889.635	21564
889.759	21386
889.883	21260
890.006	21450
890.13	21473
890.254	21268
890.377	21355
890.501	21123
890.624	21039
890.748	21226
890.871	21001
890.995	20963
891.118	21013
891.241	20914
891.364	21032
891.488	21108
891.611	21009
891.734	20876
891.857	21028
891.98	20914
892.103	21032
892.226	20906
892.349	20754
892.471	20758
892.594	20929
892.717	20921
892.839	20705
892.962	20849
893.085	20952
893.207	20807
893.33	20678
893.452	20769
893.575	21020
893.697	20838
893.819	20902
893.941	21085
894.064	20925
894.186	20815
894.308	20724
894.43	20891
894.552	20948
894.674	20811
894.796	20754
894.918	20845
895.04	20769
895.161	20876
895.283	20864
895.405	20667
895.526	20769
895.648	20739
895.769	20845
895.891	20819
896.012	20773
896.134	20735
896.255	20883
896.376	20811
896.498	20754
896.619	20823
896.74	20880
896.861	20948
896.982	21131
897.103	21218
897.224	21218
897.345	20952
897.466	21096
897.587	20994
897.708	21222
897.828	21013
897.949	20986
898.07	20868
898.19	20979
898.311	21119
898.431	20963
898.552	21062
898.672	21047
898.792	21135
898.913	21062
899.033	20876
899.153	20773
899.273	20731
899.393	20773
899.513	20811
899.633	20697
899.753	20819
899.873	20735
899.993	20735
900.113	20629
900.232	20834
900.352	20682
900.472	20632
900.591	20583
900.711	20568
900.83	20419
900.95	20629
901.069	20533
901.189	20377
901.308	20286
901.427	19963
901.546	20130
901.665	20309
901.784	20199
901.904	19944
902.023	19871
902.141	19677
902.26	19742
902.379	19647
902.498	19677
902.617	19628
902.735	19677
902.854	19605
902.973	19533
903.091	19278
903.21	19221
903.328	19251
903.446	19228
903.565	19046
903.683	19107
903.801	19004
903.919	18973
904.038	19080
904.156	18802
904.274	18981
904.392	18833
904.51	18825
904.627	18863
904.745	18920
904.863	18890
904.981	18627
905.098	18513
905.216	18547
905.334	18494
905.451	18506
905.569	18414
905.686	18486
905.803	18467
905.921	18220
906.038	18327
906.155	18201
906.272	18247
906.389	18148
906.506	17980
906.623	18030
906.74	18064
906.857	17931
906.974	17912
907.091	18079
907.208	18186
907.324	17992
907.441	17794
907.557	17790
907.674	17870
907.79	17676
907.907	17714
908.023	17726
908.139	17722
908.256	17733
908.372	17562
908.488	17630
908.604	17547
908.72	17467
908.836	17436
908.952	17440
909.068	17547
909.184	17452
909.3	17482
909.415	17512
909.531	17379
909.647	17185
909.762	17140
909.878	17166
909.993	17250
910.108	17102
910.224	16919
910.339	17181
910.454	17045
910.57	16995
910.685	16866
910.8	17204
910.915	17067
911.03	16942
911.145	16820
911.259	16717
911.374	16793
911.489	16713
911.604	16637
911.718	16485
911.833	16516
911.947	16455
912.062	16333
912.176	16493
912.291	16596
912.405	16497
912.519	16561
912.633	16698
912.748	16550
912.862	16584
912.976	16360
913.09	16299
913.204	16234
913.318	16314
913.431	16428
913.545	16462
913.659	16432
913.772	16219
913.886	16147
914	15994
914.113	16105
914.226	16253
914.34	16150
914.453	16040
914.566	16029
914.68	15953
914.793	15915
914.906	15751
915.019	15652
915.132	15599
915.245	15671
915.358	15724
915.47	15671
915.583	15614
915.696	15751
915.809	15857
915.921	15812
916.034	15557
916.146	15576
916.259	15492
916.371	15629
916.483	15561
916.595	15523
916.708	15564
916.82	15469
916.932	15378
917.044	15382
917.156	15374
917.268	15329
917.38	15332
917.491	15336
917.603	15332
917.715	15329
917.826	15447
917.938	15233
918.049	15169
918.161	15256
918.272	15348
918.384	15439
918.495	15180
918.606	15116
918.717	14941
918.828	14971
918.939	15112
919.05	14929
919.161	15013
919.272	14777
919.383	14918
919.494	15058
919.604	15279
919.715	15028
919.826	14857
919.936	15070
920.047	14956
920.157	15020
920.267	15104
920.378	14937
920.488	15070
920.598	15062
920.708	15272
920.818	15077
920.928	15055
921.038	15291
921.148	15279
921.258	14883
921.368	14937
921.477	14815
921.587	14686
921.697	14549
921.806	14663
921.916	14594
922.025	14454
922.134	14457
922.244	14320
922.353	14488
922.462	14252
922.571	14282
922.68	14084
922.789	13955
922.898	13993
923.007	13978
923.116	14016
923.224	14012
923.333	13928
923.442	13890
923.55	13727
923.659	13822
923.767	13989
923.876	13826
923.984	13791
924.092	13723
924.201	13776
924.309	13776
924.417	13693
924.525	13613
924.633	13662
924.741	14610
924.849	13472
924.956	13582
925.064	13476
925.172	13449
925.279	13403
925.387	13430
925.494	13434
925.602	13559
925.709	13453
925.816	13354
925.924	13324
926.031	13518
926.138	13289
926.245	13400
926.352	13225
926.459	13274
926.566	13381
926.673	13221
926.779	13164
926.886	13137
926.993	13046
927.099	12954
927.206	12878
927.312	12928
927.419	12966
927.525	12859
927.631	12966
927.737	12806
927.843	12745
927.95	12688
928.056	12787
928.162	12760
928.267	12776
928.373	13483
928.479	12863
928.585	12532
928.69	12741
928.796	12738
928.901	12635
929.007	12429
929.112	12612
929.218	12502
929.323	12456
929.428	12471
929.533	12658
929.638	12410
929.743	12486
929.848	12498
929.953	12361
930.058	12319
930.163	12098
930.267	12140
930.372	12270
930.477	12019
930.581	12304
930.685	12213
930.79	12019
930.894	12038
930.998	11984
931.103	12095
931.207	11855
931.311	11764
931.415	11592
931.519	11402
931.623	11391
