Data from test_V78500241_1423.txt Node
Date: Fri Mar 25 15:51:39 CST 2022
User: usil
Spectrometer: V785-0024
Trigger mode: 0
Integration Time (sec): 4.000000E-1
Scans to average: 1
Nonlinearity correction enabled: false
Boxcar width: 0
Storing dark spectrum: false
XAxis mode: Wavelengths
Number of Pixels in Spectrum: 1024
>>>>>Begin Spectral Data<<<<<
801.071	28306
801.214	28341
801.356	28070
801.499	28006
801.641	27899
801.783	27892
801.926	27922
802.068	27812
802.211	27854
802.353	27778
802.496	27488
802.638	27572
802.78	27549
802.923	27378
803.065	27443
803.208	27359
803.35	27515
803.492	27629
803.635	27724
803.777	27686
803.919	27751
804.061	28040
804.204	27854
804.346	27652
804.488	27629
804.63	27694
804.773	27675
804.915	27739
805.057	27895
805.199	27625
805.341	27823
805.483	27964
805.626	27892
805.768	27911
805.91	27766
806.052	27987
806.194	27797
806.336	28101
806.478	27968
806.62	28025
806.762	27987
806.904	28246
807.046	28386
807.188	28367
807.33	28356
807.472	28417
807.614	28143
807.756	28276
807.898	28276
808.04	28162
808.182	28196
808.324	28215
808.465	28242
808.607	28523
808.749	28618
808.891	28694
809.033	28694
809.174	28679
809.316	28573
809.458	28550
809.6	28557
809.741	28675
809.883	28694
810.025	28828
810.166	28896
810.308	28953
810.45	28946
810.591	28710
810.733	28664
810.875	28607
811.016	28401
811.158	28516
811.299	28577
811.441	28740
811.582	28752
811.724	28607
811.865	28459
812.007	28470
812.148	28500
812.29	28485
812.431	28725
812.573	29037
812.714	28999
812.855	29223
812.997	29250
813.138	29467
813.279	29239
813.421	29109
813.562	29064
813.703	28942
813.845	28744
813.986	28626
814.127	28440
814.268	28382
814.41	28333
814.551	28253
814.692	28333
814.833	28375
814.974	28109
815.115	28348
815.256	28150
815.397	28154
815.539	28188
815.68	27983
815.821	28109
815.962	28074
816.103	28010
816.244	27937
816.385	27956
816.526	27816
816.666	27637
816.807	27637
816.948	27701
817.089	27603
817.23	27701
817.371	27561
817.512	27492
817.653	27416
817.793	27363
817.934	27583
818.075	27572
818.216	27606
818.356	27526
818.497	27458
818.638	27386
818.778	27272
818.919	27435
819.06	27435
819.2	27595
819.341	27549
819.481	27553
819.622	27644
819.762	27899
819.903	27861
820.043	27880
820.184	27652
820.324	27648
820.465	27823
820.605	27564
820.746	27679
820.886	27511
821.026	27709
821.167	27660
821.307	27785
821.447	27686
821.588	27583
821.728	27405
821.868	27100
822.008	27066
822.149	27085
822.289	27039
822.429	26861
822.569	26724
822.709	26686
822.849	26549
822.99	26560
823.13	26613
823.27	26514
823.41	26404
823.55	26259
823.69	26431
823.83	26396
823.97	26317
824.11	26233
824.25	26153
824.389	26187
824.529	26381
824.669	26370
824.809	26263
824.949	26286
825.089	26282
825.228	26225
825.368	25963
825.508	26031
825.648	26210
825.787	26206
825.927	26115
826.067	26107
826.206	26050
826.346	26100
826.485	26138
826.625	25978
826.765	26172
826.904	26096
827.044	25902
827.183	25936
827.323	25753
827.462	25791
827.601	25727
827.741	25734
827.88	25852
828.02	25620
828.159	25761
828.298	25746
828.437	25871
828.577	25727
828.716	25803
828.855	25826
828.994	25506
829.134	25548
829.273	25586
829.412	25411
829.551	25384
829.69	25449
829.829	25582
829.968	25704
830.107	25430
830.246	25453
830.385	25304
830.524	25499
830.663	25274
830.802	25282
830.941	25015
831.08	25164
831.219	25156
831.357	25266
831.496	25308
831.635	25168
831.774	24970
831.913	25057
832.051	24875
832.19	24894
832.329	24814
832.467	24760
832.606	24684
832.744	24745
832.883	24700
833.022	24719
833.16	24738
833.299	24795
833.437	24703
833.576	24833
833.714	24859
833.852	24810
833.991	24837
834.129	24913
834.267	24943
834.406	24768
834.544	24875
834.682	24871
834.821	24749
834.959	25027
835.097	24734
835.235	24966
835.373	24764
835.511	24810
835.65	24684
835.788	24681
835.926	24608
836.064	24350
836.202	24532
836.34	24669
836.478	24738
836.615	24570
836.753	24684
836.891	24837
837.029	24734
837.167	24517
837.305	24498
837.443	24608
837.58	24498
837.718	24525
837.856	24498
837.993	24418
838.131	24369
838.269	24315
838.406	24304
838.544	24270
838.681	24110
838.819	24079
838.956	23958
839.094	23828
839.231	24060
839.369	24102
839.506	24289
839.643	24296
839.781	23992
839.918	23912
840.055	23904
840.193	23973
840.33	23771
840.467	24038
840.604	24003
840.742	24144
840.879	23649
841.016	23676
841.153	23809
841.29	23840
841.427	23805
841.564	23927
841.701	23851
841.838	23771
841.975	23821
842.112	23790
842.249	23832
842.385	23581
842.522	23756
842.659	23634
842.796	23566
842.933	23634
843.069	23551
843.206	23531
843.343	23699
843.479	23577
843.616	23653
843.752	23360
843.889	23376
844.025	23474
844.162	23337
844.298	23505
844.435	23414
844.571	23379
844.708	23459
844.844	23551
844.98	23463
845.117	23440
845.253	23337
845.389	23162
845.525	23265
845.661	23299
845.798	23143
845.934	23200
846.07	23048
846.206	23140
846.342	23124
846.478	23090
846.614	22976
846.75	22744
846.886	22793
847.022	22828
847.158	22744
847.294	23033
847.429	22812
847.565	22790
847.701	23109
847.837	22485
847.972	22599
848.108	22660
848.244	22577
848.379	22504
848.515	22474
848.65	22405
848.786	22375
848.921	22508
849.057	22660
849.192	22466
849.328	22611
849.463	22428
849.598	22451
849.734	22303
849.869	22322
850.004	22238
850.14	22120
850.275	22147
850.41	22059
850.545	22219
850.68	22120
850.815	22287
850.95	22238
851.085	22318
851.22	22303
851.355	22341
851.49	22219
851.625	22120
851.76	22067
851.895	22116
852.03	22078
852.165	22143
852.299	22265
852.434	22230
852.569	22139
852.703	22223
852.838	22303
852.973	22371
853.107	22169
853.242	22082
853.376	21975
853.511	21823
853.645	22013
853.78	22112
853.914	22044
854.048	21964
854.183	21937
854.317	21964
854.451	22166
854.585	22044
854.72	21998
854.854	22040
854.988	21941
855.122	21991
855.256	22032
855.39	22044
855.524	22036
855.658	22044
855.792	22090
855.926	21998
856.06	22082
856.194	22048
856.327	21991
856.461	21934
856.595	22029
856.729	21994
856.862	22063
856.996	21945
857.13	22109
857.263	22169
857.397	22154
857.53	21960
857.664	22223
857.797	22051
857.931	22166
858.064	22090
858.197	22105
858.331	21873
858.464	21964
858.597	21934
858.731	21949
858.864	21975
858.997	22070
859.13	22025
859.263	22101
859.396	22135
859.529	21960
859.662	21930
859.795	21991
859.928	21998
860.061	22207
860.194	22238
860.327	22105
860.46	22013
860.592	22082
860.725	22158
860.858	22162
860.99	21956
861.123	22036
861.256	21975
861.388	21892
861.521	22664
861.653	21850
861.786	21857
861.918	21888
862.05	21819
862.183	22025
862.315	21953
862.447	21975
862.58	21911
862.712	21705
862.844	21747
862.976	21717
863.108	21751
863.24	22310
863.372	21576
863.504	21667
863.636	21667
863.768	21808
863.9	21682
864.032	21686
864.164	21610
864.296	21770
864.428	21869
864.559	21793
864.691	21812
864.823	21876
864.954	21682
865.086	21682
865.217	21610
865.349	21424
865.48	21599
865.612	21698
865.743	21789
865.875	21656
866.006	21561
866.137	21526
866.269	21701
866.4	21622
866.531	21580
866.662	21564
866.793	21595
866.924	21534
867.055	21564
867.186	21447
867.317	21572
867.448	21454
867.579	21382
867.71	21428
867.841	21504
867.972	21450
868.103	21485
868.233	21542
868.364	21526
868.495	21511
868.625	21717
868.756	21899
868.886	21739
869.017	21861
869.147	21793
869.278	21873
869.408	21774
869.539	21755
869.669	21857
869.799	21854
869.929	21915
870.06	21926
870.19	22196
870.32	22013
870.45	22207
870.58	22169
870.71	22246
870.84	22219
870.97	22181
871.1	22246
871.23	22314
871.36	22367
871.489	22303
871.619	22436
871.749	22371
871.879	22428
872.008	22436
872.138	22497
872.267	22379
872.397	22215
872.526	22223
872.656	22265
872.785	22223
872.915	22402
873.044	22360
873.173	22402
873.303	22523
873.432	22402
873.561	22512
873.69	22527
873.819	22390
873.948	22371
874.077	22329
874.206	22314
874.335	22356
874.464	22497
874.593	22698
874.722	22637
874.851	22641
874.979	22645
875.108	22656
875.237	22656
875.365	22489
875.494	22592
875.623	22721
875.751	22584
875.88	22634
876.008	22790
876.136	22843
876.265	22923
876.393	23296
876.521	22995
876.65	23117
876.778	22976
876.906	22930
877.034	22942
877.162	23102
877.29	22915
877.418	22976
877.546	23037
877.674	23117
877.802	22984
877.93	23018
878.058	22915
878.185	22866
878.313	22946
878.441	22991
878.568	22847
878.696	22824
878.824	22915
878.951	23041
879.079	22995
879.206	23208
879.333	23143
879.461	22987
879.588	23102
879.715	23147
879.842	23334
879.97	23143
880.097	22740
880.224	22831
880.351	22858
880.478	22744
880.605	22706
880.732	22828
880.859	22980
880.986	22778
881.112	22816
881.239	22710
881.366	22554
881.493	22455
881.619	22310
881.746	22382
881.872	22356
881.999	22424
882.125	22207
882.252	22333
882.378	22284
882.505	22478
882.631	22067
882.757	22059
882.883	22219
883.01	22059
883.136	21960
883.262	21926
883.388	21827
883.514	21979
883.64	22055
883.766	21945
883.892	21926
884.018	21838
884.143	22021
884.269	22082
884.395	21675
884.52	21682
884.646	21732
884.772	21663
884.897	21629
885.023	21679
885.148	21728
885.274	21888
885.399	21762
885.524	21743
885.65	21690
885.775	21614
885.9	21663
886.025	21747
886.15	21827
886.275	21641
886.4	21591
886.525	21728
886.65	21519
886.775	21629
886.9	21762
887.025	21941
887.149	21663
887.274	21561
887.399	21576
887.523	21378
887.648	21428
887.773	21260
887.897	21488
888.021	21462
888.146	21420
888.27	21504
888.395	21641
888.519	21450
888.643	21481
888.767	21439
888.891	21462
889.015	21275
889.139	21283
889.263	21260
889.387	21382
889.511	21519
889.635	21515
889.759	21321
889.883	21370
890.006	21226
890.13	21252
890.254	21154
890.377	21146
890.501	21028
890.624	20948
890.748	21089
890.871	20842
890.995	20750
891.118	20796
891.241	20781
891.364	20861
891.488	20834
891.611	20731
891.734	20834
891.857	20941
891.98	20868
892.103	20800
892.226	20883
892.349	20720
892.471	20526
892.594	20640
892.717	20746
892.839	20674
892.962	20674
893.085	20682
893.207	20743
893.33	20537
893.452	20632
893.575	20758
893.697	20670
893.819	20796
893.941	20838
894.064	20796
894.186	20659
894.308	20511
894.43	20883
894.552	20914
894.674	20796
894.796	20579
894.918	20571
895.04	20629
895.161	20667
895.283	20716
895.405	20640
895.526	20712
895.648	20655
895.769	20724
895.891	20670
896.012	20792
896.134	20636
896.255	20708
896.376	20693
896.498	20701
896.619	20670
896.74	20708
896.861	20811
896.982	20971
897.103	21100
897.224	20857
897.345	20838
897.466	20906
897.587	20819
897.708	21051
897.828	20849
897.949	20868
898.07	20788
898.19	20724
898.311	20963
898.431	20823
898.552	20998
898.672	20895
898.792	20895
898.913	20868
899.033	20743
899.153	20693
899.273	20541
899.393	20678
899.513	20640
899.633	20579
899.753	20587
899.873	20571
899.993	20560
900.113	20655
900.232	20602
900.352	20537
900.472	20473
900.591	20446
900.711	20377
900.83	20374
900.95	20488
901.069	20549
901.189	20317
901.308	20024
901.427	20012
901.546	20005
901.665	20031
901.784	19894
901.904	19925
902.023	19670
902.141	19590
902.26	19487
902.379	19552
902.498	19468
902.617	19502
902.735	19548
902.854	19578
902.973	19350
903.091	19175
903.21	19194
903.328	19107
903.446	19099
903.565	19057
903.683	18981
903.801	18802
903.919	18943
904.038	18833
904.156	18745
904.274	18711
904.392	18623
904.51	18684
904.627	18665
904.745	18806
904.863	18768
904.981	18525
905.098	18350
905.216	18338
905.334	18479
905.451	18311
905.569	18418
905.686	18399
905.803	18254
905.921	18266
906.038	18323
906.155	18144
906.272	17980
906.389	18079
906.506	17824
906.623	17942
906.74	17897
906.857	17783
906.974	17809
907.091	18098
907.208	17969
907.324	17866
907.441	17893
907.557	17741
907.674	17604
907.79	17505
907.907	17596
908.023	17558
908.139	17623
908.256	17554
908.372	17558
908.488	17383
908.604	17296
908.72	17307
908.836	17273
908.952	17216
909.068	17254
909.184	17433
909.3	17303
909.415	17292
909.531	17216
909.647	17052
909.762	16976
909.878	16972
909.993	17003
910.108	17006
910.224	17003
910.339	16942
910.454	16839
910.57	16881
910.685	16790
910.8	17014
910.915	16949
911.03	16847
911.145	16660
911.259	16516
911.374	16573
911.489	16478
911.604	16413
911.718	16314
911.833	16337
911.947	16287
912.062	16242
912.176	16352
912.291	16382
912.405	16344
912.519	16538
912.633	16554
912.748	16451
912.862	16348
912.976	16223
913.09	16025
913.204	16112
913.318	16173
913.431	16128
913.545	16291
913.659	16192
913.772	16131
913.886	16006
914	16006
914.113	15975
914.226	16093
914.34	16006
914.453	15762
914.566	15945
914.68	15819
914.793	15842
914.906	15603
915.019	15584
915.132	15462
915.245	15500
915.358	15591
915.47	15572
915.583	15561
915.696	15542
915.809	15584
915.921	15720
916.034	15485
916.146	15466
916.259	15428
916.371	15534
916.483	15492
916.595	15351
916.708	15329
916.82	15310
916.932	15291
917.044	15382
917.156	15294
917.268	15268
917.38	15195
917.491	15275
917.603	15245
917.715	15218
917.826	15256
917.938	15043
918.049	14986
918.161	15116
918.272	15272
918.384	15317
918.495	15180
918.606	14979
918.717	14872
918.828	15066
918.939	15028
919.05	14750
919.161	14933
919.272	14727
919.383	14746
919.494	15062
919.604	15093
919.715	14861
919.826	14838
919.936	14956
920.047	14944
920.157	14929
920.267	15100
920.378	14963
920.488	14830
920.598	15055
920.708	15077
920.818	14948
920.928	14998
921.038	15180
921.148	15119
921.258	14834
921.368	14720
921.477	14625
921.587	14670
921.697	14583
921.806	14693
921.916	14480
922.025	14351
922.134	14221
922.244	14240
922.353	14282
922.462	14202
922.571	14176
922.68	14001
922.789	13860
922.898	13894
923.007	13864
923.116	13970
923.224	13849
923.333	13883
923.442	13757
923.55	13742
923.659	13731
923.767	13776
923.876	13639
923.984	13757
924.092	13506
924.201	13636
924.309	13662
924.417	13643
924.525	13556
924.633	13529
924.741	14282
924.849	13422
924.956	13460
925.064	13392
925.172	13247
925.279	13255
925.387	13384
925.494	13228
925.602	13392
925.709	13422
925.816	13232
925.924	13099
926.031	13316
926.138	13251
926.245	13285
926.352	13118
926.459	13274
926.566	13335
926.673	13217
926.779	13057
926.886	13023
926.993	12856
927.099	12810
927.206	12753
927.312	12806
927.419	12878
927.525	12798
927.631	12768
927.737	12798
927.843	12639
927.95	12563
928.056	12627
928.162	12673
928.267	12768
928.373	13346
928.479	12703
928.585	12498
928.69	12464
928.796	12589
928.901	12513
929.007	12460
929.112	12486
929.218	12498
929.323	12464
929.428	12380
929.533	12555
929.638	12369
929.743	12315
929.848	12388
929.953	12403
930.058	12239
930.163	12091
930.267	12064
930.372	12254
930.477	11984
930.581	12235
930.685	12095
930.79	11980
930.894	11999
930.998	11821
931.103	12102
931.207	11623
931.311	11608
931.415	11551
931.519	11330
931.623	11337
