Data from test_V78500241_80.txt Node
Date: Fri Mar 25 15:42:21 CST 2022
User: usil
Spectrometer: V785-0024
Trigger mode: 0
Integration Time (sec): 4.000000E-1
Scans to average: 1
Nonlinearity correction enabled: false
Boxcar width: 0
Storing dark spectrum: false
XAxis mode: Wavelengths
Number of Pixels in Spectrum: 1024
>>>>>Begin Spectral Data<<<<<
801.071	30045
801.214	29904
801.356	29729
801.499	29809
801.641	29558
801.783	29581
801.926	29596
802.068	29448
802.211	29375
802.353	29136
802.496	29284
802.638	29155
802.78	29185
802.923	29018
803.065	28946
803.208	29132
803.35	29162
803.492	29162
803.635	29322
803.777	29178
803.919	29277
804.061	29600
804.204	29269
804.346	29189
804.488	29128
804.63	29151
804.773	29151
804.915	29212
805.057	29349
805.199	29250
805.341	29299
805.483	29391
805.626	29417
805.768	29102
805.91	29383
806.052	29436
806.194	29277
806.336	29501
806.478	29406
806.62	29471
806.762	29573
806.904	29505
807.046	29809
807.188	29783
807.33	29638
807.472	29802
807.614	29680
807.756	29676
807.898	29649
808.04	29585
808.182	29531
808.324	29551
808.465	29608
808.607	29840
808.749	29897
808.891	29935
809.033	30194
809.174	29961
809.316	29923
809.458	29912
809.6	29958
809.741	30098
809.883	30083
810.025	30117
810.166	30003
810.308	30125
810.45	30076
810.591	30095
810.733	29916
810.875	29802
811.016	29862
811.158	29665
811.299	29999
811.441	30041
811.582	30041
811.724	29805
811.865	29802
812.007	29916
812.148	29958
812.29	29874
812.431	30053
812.573	30159
812.714	30186
812.855	30475
812.997	30407
813.138	30509
813.279	30582
813.421	30384
813.562	30205
813.703	30205
813.845	30079
813.986	29634
814.127	29638
814.268	29474
814.41	29486
814.551	29452
814.692	29634
814.833	29482
814.974	29459
815.115	29562
815.256	29402
815.397	29318
815.539	29265
815.68	29166
815.821	29178
815.962	29223
816.103	29296
816.244	29048
816.385	29048
816.526	28908
816.666	28656
816.807	28596
816.948	28694
817.089	28634
817.23	28634
817.371	28569
817.512	28577
817.653	28519
817.793	28519
817.934	28493
818.075	28656
818.216	28554
818.356	28394
818.497	28413
818.638	28226
818.778	28325
818.919	28337
819.06	28348
819.2	28443
819.341	28447
819.481	28474
819.622	28546
819.762	28866
819.903	28607
820.043	28759
820.184	28603
820.324	28493
820.465	28630
820.605	28561
820.746	28508
820.886	28478
821.026	28421
821.167	28504
821.307	28645
821.447	28371
821.588	28443
821.728	28238
821.868	28200
822.008	27861
822.149	27880
822.289	27991
822.429	27644
822.569	27462
822.709	27656
822.849	27450
822.99	27268
823.13	27367
823.27	27260
823.41	27154
823.55	26994
823.69	27249
823.83	27085
823.97	27036
824.11	27017
824.25	26876
824.389	26857
824.529	27066
824.669	26963
824.809	27047
824.949	26986
825.089	27093
825.228	26990
825.368	26823
825.508	26773
825.648	26678
825.787	26845
825.927	26826
826.067	26777
826.206	26632
826.346	26686
826.485	26921
826.625	26644
826.765	26872
826.904	26743
827.044	26465
827.183	26476
827.323	26499
827.462	26473
827.601	26374
827.741	26396
827.88	26461
828.02	26199
828.159	26469
828.298	26431
828.437	26415
828.577	26298
828.716	26313
828.855	26206
828.994	26187
829.134	26073
829.273	26016
829.412	26115
829.551	26084
829.69	26081
829.829	26016
829.968	26172
830.107	26088
830.246	26031
830.385	25830
830.524	25807
830.663	25776
830.802	25624
830.941	25613
831.08	25586
831.219	25696
831.357	25635
831.496	25746
831.635	25521
831.774	25479
831.913	25434
832.051	25464
832.19	25206
832.329	25381
832.467	25293
832.606	25183
832.744	25236
832.883	25190
833.022	25148
833.16	25202
833.299	25346
833.437	25183
833.576	25377
833.714	25122
833.852	25179
833.991	25339
834.129	25289
834.267	25209
834.406	25198
834.544	25247
834.682	25103
834.821	25160
834.959	25381
835.097	25107
835.235	25244
835.373	25141
835.511	25206
835.65	24962
835.788	24992
835.926	24966
836.064	24837
836.202	24741
836.34	24867
836.478	24973
836.615	24962
836.753	24909
836.891	25012
837.029	25008
837.167	24844
837.305	24707
837.443	24875
837.58	24814
837.718	24928
837.856	24825
837.993	24734
838.131	24875
838.269	24703
838.406	24738
838.544	24509
838.681	24433
838.819	24384
838.956	24209
839.094	24171
839.231	24213
839.369	24407
839.506	24604
839.643	24338
839.781	24232
839.918	24114
840.055	24190
840.193	24114
840.33	24091
840.467	24136
840.604	24292
840.742	24357
840.879	23931
841.016	24015
841.153	23885
841.29	24186
841.427	24034
841.564	24026
841.701	24076
841.838	23961
841.975	23866
842.112	23961
842.249	23786
842.385	23882
842.522	24167
842.659	23851
842.796	23581
842.933	23668
843.069	23608
843.206	23619
843.343	23722
843.479	23737
843.616	23600
843.752	23471
843.889	23512
844.025	23680
844.162	23554
844.298	23440
844.435	23444
844.571	23326
844.708	23497
844.844	23535
844.98	23558
845.117	23482
845.253	23231
845.389	23353
845.525	23258
845.661	23299
845.798	23105
845.934	23204
846.07	23098
846.206	23003
846.342	23311
846.478	23124
846.614	23147
846.75	22824
846.886	22862
847.022	22820
847.158	22896
847.294	22809
847.429	22797
847.565	22729
847.701	23132
847.837	22599
847.972	22527
848.108	22653
848.244	22679
848.379	22554
848.515	22428
848.65	22440
848.786	22367
848.921	22413
849.057	22466
849.192	22447
849.328	22363
849.463	22455
849.598	22451
849.734	22230
849.869	22325
850.004	22154
850.14	22306
850.275	22017
850.41	21998
850.545	22017
850.68	22112
850.815	22192
850.95	22154
851.085	22287
851.22	22192
851.355	22128
851.49	22112
851.625	22128
851.76	22067
851.895	22086
852.03	22063
852.165	22139
852.299	22074
852.434	22268
852.569	22112
852.703	22063
852.838	22150
852.973	22135
853.107	22105
853.242	21991
853.376	21964
853.511	21819
853.645	21876
853.78	22059
853.914	21907
854.048	21865
854.183	21918
854.317	21987
854.451	22112
854.585	21876
854.72	21808
854.854	21972
854.988	21960
855.122	21979
855.256	21785
855.39	21884
855.524	21956
855.658	22021
855.792	21838
855.926	22013
856.06	21888
856.194	21953
856.327	21956
856.461	21895
856.595	21918
856.729	21922
856.862	21861
856.996	21953
857.13	21922
857.263	21972
857.397	22120
857.53	21857
857.664	21983
857.797	21911
857.931	21911
858.064	21869
858.197	22044
858.331	21880
858.464	21717
858.597	21679
858.731	21861
858.864	21869
858.997	21842
859.13	21800
859.263	21728
859.396	21972
859.529	21812
859.662	21713
859.795	21698
859.928	21804
860.061	22013
860.194	21876
860.327	21873
860.46	21755
860.592	21934
860.725	21998
860.858	21846
860.99	21812
861.123	21717
861.256	21701
861.388	21797
861.521	22386
861.653	21717
861.786	21648
861.918	21671
862.05	21865
862.183	21895
862.315	21842
862.447	21918
862.58	21937
862.712	21603
862.844	21557
862.976	21732
863.108	21515
863.24	21907
863.372	21454
863.504	21473
863.636	21443
863.768	21496
863.9	21625
864.032	21443
864.164	21344
864.296	21439
864.428	21553
864.559	21481
864.691	21564
864.823	21454
864.954	21488
865.086	21382
865.217	21351
865.349	21386
865.48	21393
865.612	21325
865.743	21488
865.875	21382
866.006	21340
866.137	21298
866.269	21260
866.4	21416
866.531	21264
866.662	21283
866.793	21294
866.924	21370
867.055	21344
867.186	21211
867.317	21272
867.448	21275
867.579	21188
867.71	21272
867.841	21192
867.972	21275
868.103	21245
868.233	21348
868.364	21192
868.495	21351
868.625	21405
868.756	21587
868.886	21397
869.017	21374
869.147	21610
869.278	21701
869.408	21485
869.539	21511
869.669	21614
869.799	21633
869.929	21580
870.06	21728
870.19	21747
870.32	21759
870.45	21793
870.58	21823
870.71	22063
870.84	21964
870.97	21975
871.1	21907
871.23	22143
871.36	21994
871.489	21945
871.619	22063
871.749	22017
871.879	22234
872.008	22150
872.138	22109
872.267	22188
872.397	22082
872.526	21857
872.656	21930
872.785	21987
872.915	21983
873.044	22147
873.173	22166
873.303	22158
873.432	22211
873.561	22200
873.69	22105
873.819	22196
873.948	22230
874.077	22185
874.206	22021
874.335	22067
874.464	22166
874.593	22238
874.722	22276
874.851	22325
874.979	22310
875.108	22322
875.237	22402
875.365	22382
875.494	22341
875.623	22390
875.751	22310
875.88	22360
876.008	22504
876.136	22588
876.265	22816
876.393	22839
876.521	22828
876.65	22828
876.778	22618
876.906	22607
877.034	22672
877.162	22786
877.29	22687
877.418	22660
877.546	22603
877.674	22793
877.802	22577
877.93	22744
878.058	22615
878.185	22542
878.313	22763
878.441	22691
878.568	22535
878.696	22603
878.824	22698
878.951	22740
879.079	22972
879.206	22991
879.333	22820
879.461	22767
879.588	22778
879.715	22957
879.842	22930
879.97	22862
880.097	22527
880.224	22405
880.351	22733
880.478	22542
880.605	22455
880.732	22500
880.859	22607
880.986	22554
881.112	22538
881.239	22485
881.366	22341
881.493	22116
881.619	22101
881.746	22166
881.872	22059
881.999	21949
882.125	22150
882.252	22124
882.378	22135
882.505	22185
882.631	22025
882.757	21918
882.883	21812
883.01	21979
883.136	21850
883.262	21690
883.388	21523
883.514	21941
883.64	21903
883.766	21751
883.892	21709
884.018	21606
884.143	21781
884.269	21842
884.395	21526
884.52	21534
884.646	21504
884.772	21367
884.897	21336
885.023	21496
885.148	21549
885.274	21447
885.399	21534
885.524	21458
885.65	21496
885.775	21603
885.9	21416
886.025	21488
886.15	21481
886.275	21389
886.4	21389
886.525	21416
886.65	21359
886.775	21374
886.9	21629
887.025	21641
887.149	21351
887.274	21233
887.399	21203
887.523	21146
887.648	21184
887.773	21051
887.897	21150
888.021	21154
888.146	21108
888.27	21218
888.395	21218
888.519	21180
888.643	21074
888.767	21332
888.891	21085
889.015	20990
889.139	21051
889.263	20895
889.387	21112
889.511	21256
889.635	21176
889.759	20933
889.883	20819
890.006	20864
890.13	20967
890.254	20868
890.377	20857
890.501	20621
890.624	20659
890.748	20705
890.871	20629
890.995	20507
891.118	20575
891.241	20484
891.364	20499
891.488	20530
891.611	20450
891.734	20537
891.857	20560
891.98	20480
892.103	20552
892.226	20556
892.349	20499
892.471	20362
892.594	20415
892.717	20423
892.839	20446
892.962	20476
893.085	20579
893.207	20423
893.33	20278
893.452	20301
893.575	20473
893.697	20469
893.819	20511
893.941	20613
894.064	20476
894.186	20389
894.308	20358
894.43	20530
894.552	20541
894.674	20518
894.796	20343
894.918	20454
895.04	20434
895.161	20442
895.283	20339
895.405	20278
895.526	20351
895.648	20362
895.769	20423
895.891	20537
896.012	20514
896.134	20446
896.255	20522
896.376	20370
896.498	20446
896.619	20655
896.74	20503
896.861	20465
896.982	20883
897.103	20979
897.224	20629
897.345	20678
897.466	20651
897.587	20644
897.708	20667
897.828	20705
897.949	20651
898.07	20514
898.19	20579
898.311	20746
898.431	20606
898.552	20590
898.672	20636
898.792	20686
898.913	20617
899.033	20488
899.153	20347
899.273	20267
899.393	20275
899.513	20438
899.633	20229
899.753	20309
899.873	20210
899.993	20278
900.113	20210
900.232	20343
900.352	20305
900.472	20119
900.591	20020
900.711	20115
900.83	20012
900.95	20199
901.069	20252
901.189	20062
901.308	19856
901.427	19757
901.546	19666
901.665	19700
901.784	19586
901.904	19533
902.023	19480
902.141	19301
902.26	19213
902.379	19297
902.498	19103
902.617	19251
902.735	19171
902.854	19122
902.973	19008
903.091	18973
903.21	18783
903.328	18844
903.446	18684
903.565	18601
903.683	18715
903.801	18589
903.919	18593
904.038	18642
904.156	18403
904.274	18448
904.392	18513
904.51	18433
904.627	18483
904.745	18410
904.863	18574
904.981	18114
905.098	18015
905.216	18026
905.334	18095
905.451	18140
905.569	17946
905.686	18079
905.803	17988
905.921	17733
906.038	17935
906.155	17821
906.272	17828
906.389	17912
906.506	17623
906.623	17687
906.74	17558
906.857	17452
906.974	17425
907.091	17615
907.208	17627
907.324	17520
907.441	17497
907.557	17250
907.674	17299
907.79	17242
907.907	17273
908.023	17220
908.139	17204
908.256	17136
908.372	17098
908.488	16999
908.604	17033
908.72	16961
908.836	17018
908.952	16946
909.068	16972
909.184	16999
909.3	16778
909.415	16930
909.531	16809
909.647	16687
909.762	16660
909.878	16527
909.993	16588
910.108	16516
910.224	16561
910.339	16618
910.454	16390
910.57	16428
910.685	16360
910.8	16611
910.915	16474
911.03	16329
911.145	16246
911.259	16188
911.374	16158
911.489	16112
911.604	16078
911.718	15960
911.833	15956
911.947	15918
912.062	15797
912.176	15892
912.291	15994
912.405	15949
912.519	16204
912.633	16196
912.748	15949
912.862	15895
912.976	15720
913.09	15553
913.204	15778
913.318	15736
913.431	15751
913.545	15846
913.659	15781
913.772	15717
913.886	15523
914	15485
914.113	15690
914.226	15652
914.34	15576
914.453	15351
914.566	15530
914.68	15378
914.793	15348
914.906	15180
915.019	15161
915.132	15131
915.245	15184
915.358	15123
915.47	15150
915.583	15108
915.696	15142
915.809	15344
915.921	15310
916.034	15157
916.146	15020
916.259	14979
916.371	15116
916.483	15066
916.595	14979
916.708	14910
916.82	15020
916.932	14906
917.044	14895
917.156	14826
917.268	14815
917.38	14800
917.491	14674
917.603	14724
917.715	14754
917.826	14838
917.938	14727
918.049	14602
918.161	14678
918.272	14845
918.384	14773
918.495	14720
918.606	14564
918.717	14469
918.828	14621
918.939	14526
919.05	14442
919.161	14438
919.272	14294
919.383	14267
919.494	14484
919.604	14705
919.715	14454
919.826	14366
919.936	14427
920.047	14571
920.157	14473
920.267	14568
920.378	14492
920.488	14549
920.598	14613
920.708	14769
920.818	14564
920.928	14575
921.038	14731
921.148	14640
921.258	14317
921.368	14161
921.477	14202
921.587	14145
921.697	14164
921.806	14206
921.916	13993
922.025	13913
922.134	13772
922.244	13818
922.353	13864
922.462	13647
922.571	13632
922.68	13468
922.789	13533
922.898	13457
923.007	13343
923.116	13411
923.224	13400
923.333	13430
923.442	13282
923.55	13251
923.659	13282
923.767	13221
923.876	13225
923.984	13263
924.092	13183
924.201	13251
924.309	13198
924.417	13069
924.525	13126
924.633	13061
924.741	14073
924.849	12825
924.956	13069
925.064	12932
925.172	12859
925.279	12837
925.387	12882
925.494	12878
925.602	12977
925.709	12932
925.816	12772
925.924	12802
926.031	12894
926.138	12810
926.245	12806
926.352	12677
926.459	12821
926.566	12875
926.673	12684
926.779	12703
926.886	12616
926.993	12525
927.099	12456
927.206	12365
927.312	12403
927.419	12441
927.525	12445
927.631	12380
927.737	12380
927.843	12372
927.95	12175
928.056	12254
928.162	12281
928.267	12330
928.373	12932
928.479	12285
928.585	12076
928.69	12171
928.796	12178
928.901	12083
929.007	11980
929.112	12049
929.218	11920
929.323	12041
929.428	11973
929.533	12083
929.638	11870
929.743	11882
929.848	12026
929.953	11920
930.058	11805
930.163	11630
930.267	11646
930.372	11775
930.477	11619
930.581	11874
930.685	11604
930.79	11516
930.894	11532
930.998	11486
931.103	11524
931.207	11299
931.311	11193
931.415	11117
931.519	10900
931.623	10908
