Data from test_V78500241_1129.txt Node
Date: Fri Mar 25 15:49:37 CST 2022
User: usil
Spectrometer: V785-0024
Trigger mode: 0
Integration Time (sec): 4.000000E-1
Scans to average: 1
Nonlinearity correction enabled: false
Boxcar width: 0
Storing dark spectrum: false
XAxis mode: Wavelengths
Number of Pixels in Spectrum: 1024
>>>>>Begin Spectral Data<<<<<
801.071	28470
801.214	28394
801.356	28120
801.499	27994
801.641	27922
801.783	27987
801.926	27918
802.068	27972
802.211	27907
802.353	27865
802.496	27679
802.638	27713
802.78	27671
802.923	27660
803.065	27481
803.208	27587
803.35	27496
803.492	27755
803.635	27808
803.777	27884
803.919	27812
804.061	28215
804.204	27987
804.346	27865
804.488	27759
804.63	27880
804.773	27606
804.915	27781
805.057	27914
805.199	27732
805.341	28040
805.483	27979
805.626	28021
805.768	27945
805.91	28101
806.052	28150
806.194	27842
806.336	28207
806.478	28166
806.62	28112
806.762	28223
806.904	28394
807.046	28432
807.188	28440
807.33	28504
807.472	28527
807.614	28360
807.756	28516
807.898	28341
808.04	28398
808.182	28367
808.324	28352
808.465	28356
808.607	28455
808.749	28771
808.891	28736
809.033	28911
809.174	28858
809.316	28771
809.458	28729
809.6	28603
809.741	28885
809.883	28908
810.025	29083
810.166	28957
810.308	29113
810.45	28957
810.591	28904
810.733	28790
810.875	28839
811.016	28660
811.158	28546
811.299	28942
811.441	28888
811.582	28904
811.724	28771
811.865	28774
812.007	28797
812.148	28801
812.29	28729
812.431	28934
812.573	28987
812.714	29117
812.855	29231
812.997	29296
813.138	29463
813.279	29429
813.421	29280
813.562	29277
813.703	29102
813.845	28828
813.986	28820
814.127	28546
814.268	28481
814.41	28554
814.551	28516
814.692	28440
814.833	28409
814.974	28344
815.115	28485
815.256	28348
815.397	28394
815.539	28318
815.68	28162
815.821	28166
815.962	28299
816.103	28207
816.244	28086
816.385	27911
816.526	28169
816.666	27800
816.807	27846
816.948	27854
817.089	27865
817.23	27785
817.371	27778
817.512	27785
817.653	27759
817.793	27701
817.934	27846
818.075	27774
818.216	27888
818.356	27717
818.497	27682
818.638	27572
818.778	27443
818.919	27447
819.06	27641
819.2	27736
819.341	27812
819.481	27717
819.622	27892
819.762	28109
819.903	27922
820.043	27937
820.184	27903
820.324	27968
820.465	27850
820.605	27861
820.746	27766
820.886	27667
821.026	27945
821.167	27861
821.307	27953
821.447	27724
821.588	27610
821.728	27610
821.868	27477
822.008	27302
822.149	27325
822.289	27188
822.429	27096
822.569	27066
822.709	26925
822.849	26849
822.99	26758
823.13	26667
823.27	26781
823.41	26530
823.55	26575
823.69	26549
823.83	26613
823.97	26385
824.11	26355
824.25	26366
824.389	26290
824.529	26522
824.669	26423
824.809	26533
824.949	26465
825.089	26545
825.228	26461
825.368	26195
825.508	26370
825.648	26294
825.787	26309
825.927	26488
826.067	26377
826.206	26157
826.346	26328
826.485	26324
826.625	26271
826.765	26473
826.904	26355
827.044	25921
827.183	26161
827.323	25947
827.462	25925
827.601	26069
827.741	25951
827.88	25932
828.02	25791
828.159	25887
828.298	25902
828.437	25955
828.577	26062
828.716	25959
828.855	25890
828.994	25696
829.134	25651
829.273	25776
829.412	25533
829.551	25609
829.69	25719
829.829	25712
829.968	25708
830.107	25662
830.246	25769
830.385	25575
830.524	25529
830.663	25426
830.802	25441
830.941	25244
831.08	25266
831.219	25582
831.357	25274
831.496	25540
831.635	25175
831.774	25217
831.913	25179
832.051	25061
832.19	25126
832.329	24985
832.467	24859
832.606	25065
832.744	24924
832.883	25031
833.022	24920
833.16	24764
833.299	24848
833.437	25000
833.576	25099
833.714	25019
833.852	25012
833.991	25164
834.129	25247
834.267	25042
834.406	25072
834.544	25000
834.682	24958
834.821	24951
834.959	24981
835.097	24928
835.235	24913
835.373	24947
835.511	24989
835.65	24848
835.788	24958
835.926	24806
836.064	24635
836.202	24597
836.34	24985
836.478	24932
836.615	24871
836.753	24951
836.891	24814
837.029	24935
837.167	24787
837.305	24791
837.443	24608
837.58	24665
837.718	24722
837.856	24627
837.993	24597
838.131	24665
838.269	24631
838.406	24490
838.544	24395
838.681	24300
838.819	24479
838.956	24266
839.094	24148
839.231	24155
839.369	24365
839.506	24475
839.643	24369
839.781	24159
839.918	23904
840.055	24136
840.193	24018
840.33	24117
840.467	24152
840.604	24117
840.742	24426
840.879	24003
841.016	24022
841.153	24110
841.29	24079
841.427	23961
841.564	24121
841.701	24114
841.838	24041
841.975	23920
842.112	24022
842.249	23916
842.385	23843
842.522	24003
842.659	23923
842.796	23843
842.933	23809
843.069	23893
843.206	23722
843.343	23897
843.479	23771
843.616	23699
843.752	23653
843.889	23634
844.025	23718
844.162	23653
844.298	23707
844.435	23531
844.571	23535
844.708	23611
844.844	23798
844.98	23745
845.117	23729
845.253	23611
845.389	23482
845.525	23562
845.661	23471
845.798	23482
845.934	23448
846.07	23292
846.206	23334
846.342	23356
846.478	23356
846.614	23132
846.75	23048
846.886	23044
847.022	23086
847.158	23235
847.294	23147
847.429	23143
847.565	23067
847.701	23360
847.837	22748
847.972	22835
848.108	22843
848.244	22782
848.379	22717
848.515	22641
848.65	22782
848.786	22653
848.921	22664
849.057	22729
849.192	22812
849.328	22725
849.463	22691
849.598	22641
849.734	22542
849.869	22478
850.004	22417
850.14	22432
850.275	22436
850.41	22325
850.545	22356
850.68	22428
850.815	22474
850.95	22440
851.085	22542
851.22	22440
851.355	22424
851.49	22405
851.625	22394
851.76	22356
851.895	22436
852.03	22291
852.165	22500
852.299	22459
852.434	22466
852.569	22455
852.703	22432
852.838	22459
852.973	22485
853.107	22478
853.242	22261
853.376	22162
853.511	22116
853.645	22169
853.78	22299
853.914	22329
854.048	22192
854.183	22177
854.317	22215
854.451	22394
854.585	22280
854.72	22234
854.854	22272
854.988	22158
855.122	22318
855.256	22204
855.39	22356
855.524	22284
855.658	22238
855.792	22295
855.926	22314
856.06	22344
856.194	22261
856.327	22116
856.461	22150
856.595	22082
856.729	22135
856.862	22341
856.996	22196
857.13	22276
857.263	22272
857.397	22284
857.53	22223
857.664	22314
857.797	22265
857.931	22329
858.064	22238
858.197	22318
858.331	22188
858.464	22181
858.597	22002
858.731	22215
858.864	22090
858.997	22204
859.13	22139
859.263	22329
859.396	22322
859.529	22219
859.662	22234
859.795	22112
859.928	22253
860.061	22447
860.194	22386
860.327	22242
860.46	22173
860.592	22402
860.725	22421
860.858	22363
860.99	22253
861.123	22143
861.256	22196
861.388	22341
861.521	23022
861.653	22116
861.786	22158
861.918	22120
862.05	22109
862.183	22154
862.315	22074
862.447	22272
862.58	22116
862.712	21979
862.844	21968
862.976	21892
863.108	22055
863.24	22436
863.372	21880
863.504	22006
863.636	22010
863.768	21922
863.9	21831
864.032	21846
864.164	21918
864.296	21964
864.428	22044
864.559	21930
864.691	22070
864.823	21873
864.954	21797
865.086	21823
865.217	21766
865.349	21747
865.48	21762
865.612	21838
865.743	21968
865.875	21968
866.006	21876
866.137	21854
866.269	21850
866.4	21945
866.531	21850
866.662	21751
866.793	21724
866.924	21785
867.055	21804
867.186	21823
867.317	21679
867.448	21701
867.579	21816
867.71	21682
867.841	21717
867.972	21759
868.103	21682
868.233	21709
868.364	21622
868.495	21842
868.625	21873
868.756	22124
868.886	21998
869.017	21838
869.147	22116
869.278	22219
869.408	22120
869.539	22032
869.669	22029
869.799	22097
869.929	22044
870.06	21945
870.19	22356
870.32	22280
870.45	22333
870.58	22504
870.71	22428
870.84	22512
870.97	22413
871.1	22360
871.23	22519
871.36	22481
871.489	22417
871.619	22653
871.749	22459
871.879	22599
872.008	22557
872.138	22538
872.267	22527
872.397	22474
872.526	22538
872.656	22333
872.785	22447
872.915	22577
873.044	22702
873.173	22519
873.303	22611
873.432	22698
873.561	22721
873.69	22679
873.819	22580
873.948	22683
874.077	22611
874.206	22459
874.335	22588
874.464	22641
874.593	22866
874.722	22835
874.851	22972
874.979	22858
875.108	22816
875.237	22694
875.365	22729
875.494	22721
875.623	22892
875.751	22721
875.88	22755
876.008	22972
876.136	22980
876.265	23200
876.393	23334
876.521	23254
876.65	23311
876.778	23250
876.906	23151
877.034	23159
877.162	23162
877.29	23094
877.418	23372
877.546	23136
877.674	23258
877.802	23197
877.93	23105
878.058	23086
878.185	22972
878.313	23071
878.441	23075
878.568	22995
878.696	23079
878.824	23166
878.951	23242
879.079	23277
879.206	23493
879.333	23265
879.461	23273
879.588	23277
879.715	23387
879.842	23474
879.97	23322
880.097	23079
880.224	22835
880.351	23003
880.478	23014
880.605	22900
880.732	22934
880.859	23220
880.986	23056
881.112	23048
881.239	22930
881.366	22736
881.493	22645
881.619	22375
881.746	22535
881.872	22516
881.999	22462
882.125	22398
882.252	22668
882.378	22436
882.505	22497
882.631	22470
882.757	22230
882.883	22272
883.01	22226
883.136	22158
883.262	22078
883.388	22021
883.514	22192
883.64	22215
883.766	22196
883.892	21934
884.018	22048
884.143	22192
884.269	22299
884.395	21873
884.52	21755
884.646	21964
884.772	21739
884.897	21682
885.023	21895
885.148	21983
885.274	22006
885.399	21941
885.524	21800
885.65	21865
885.775	21835
885.9	21838
886.025	21873
886.15	21956
886.275	21804
886.4	21766
886.525	21804
886.65	21880
886.775	21739
886.9	21915
887.025	21998
887.149	21846
887.274	21652
887.399	21587
887.523	21648
887.648	21656
887.773	21504
887.897	21686
888.021	21698
888.146	21656
888.27	21686
888.395	21637
888.519	21736
888.643	21660
888.767	21717
888.891	21561
889.015	21435
889.139	21500
889.263	21351
889.387	21648
889.511	21583
889.635	21618
889.759	21450
889.883	21359
890.006	21504
890.13	21477
890.254	21306
890.377	21382
890.501	21085
890.624	21036
890.748	21222
890.871	21024
890.995	20944
891.118	20929
891.241	20960
891.364	20929
891.488	21085
891.611	20826
891.734	20979
891.857	20952
891.98	21005
892.103	21074
892.226	21112
892.349	20967
892.471	20716
892.594	20990
892.717	20895
892.839	20834
892.962	20937
893.085	20975
893.207	20834
893.33	20701
893.452	20807
893.575	20811
893.697	20743
893.819	20948
893.941	21089
894.064	20941
894.186	20796
894.308	20758
894.43	21001
894.552	20941
894.674	20918
894.796	20785
894.918	20826
895.04	20842
895.161	20785
895.283	20819
895.405	20823
895.526	20769
895.648	20796
895.769	20868
895.891	20868
896.012	20883
896.134	20796
896.255	20849
896.376	20811
896.498	20857
896.619	20769
896.74	20845
896.861	20895
896.982	21142
897.103	21294
897.224	21100
897.345	21043
897.466	21062
897.587	20933
897.708	21264
897.828	21020
897.949	20956
898.07	20948
898.19	20880
898.311	21013
898.431	21055
898.552	21176
898.672	21062
898.792	21119
898.913	21066
899.033	20990
899.153	20872
899.273	20781
899.393	20731
899.513	20792
899.633	20796
899.753	20883
899.873	20754
899.993	20834
900.113	20625
900.232	20735
900.352	20743
900.472	20518
900.591	20560
900.711	20514
900.83	20438
900.95	20617
901.069	20670
901.189	20450
901.308	20168
901.427	20046
901.546	20096
901.665	20111
901.784	20191
901.904	19944
902.023	19856
902.141	19742
902.26	19601
902.379	19658
902.498	19655
902.617	19597
902.735	19715
902.854	19453
902.973	19430
903.091	19293
903.21	19137
903.328	19293
903.446	19114
903.565	19160
903.683	19076
903.801	18882
903.919	19012
904.038	19084
904.156	18878
904.274	18875
904.392	18715
904.51	18814
904.627	18875
904.745	18867
904.863	18970
904.981	18547
905.098	18433
905.216	18536
905.334	18521
905.451	18627
905.569	18551
905.686	18555
905.803	18555
905.921	18277
906.038	18410
906.155	18281
906.272	18148
906.389	18239
906.506	18022
906.623	18064
906.74	18057
906.857	17935
906.974	17920
907.091	18091
907.208	18064
907.324	18178
907.441	17931
907.557	17783
907.674	17764
907.79	17710
907.907	17676
908.023	17805
908.139	17680
908.256	17661
908.372	17646
908.488	17562
908.604	17455
908.72	17368
908.836	17402
908.952	17425
909.068	17482
909.184	17630
909.3	17376
909.415	17482
909.531	17360
909.647	17121
909.762	17155
909.878	17143
909.993	17170
910.108	17071
910.224	17105
910.339	17113
910.454	16927
910.57	16980
910.685	16801
910.8	17220
910.915	17147
911.03	16915
911.145	16672
911.259	16797
911.374	16752
911.489	16691
911.604	16622
911.718	16451
911.833	16542
911.947	16413
912.062	16394
912.176	16481
912.291	16523
912.405	16451
912.519	16626
912.633	16664
912.748	16485
912.862	16489
912.976	16257
913.09	16196
913.204	16261
913.318	16295
913.431	16337
913.545	16367
913.659	16436
913.772	16192
913.886	16090
914	16025
914.113	16249
914.226	16287
914.34	16246
914.453	15964
914.566	16139
914.68	16059
914.793	15934
914.906	15789
915.019	15686
915.132	15614
915.245	15633
915.358	15610
915.47	15747
915.583	15789
915.696	15698
915.809	15793
915.921	15808
916.034	15648
916.146	15603
916.259	15530
916.371	15682
916.483	15603
916.595	15496
916.708	15515
916.82	15485
916.932	15488
917.044	15450
917.156	15428
917.268	15329
917.38	15477
917.491	15408
917.603	15382
917.715	15382
917.826	15412
917.938	15306
918.049	15165
918.161	15313
918.272	15329
918.384	15420
918.495	15272
918.606	15161
918.717	15058
918.828	15127
918.939	15062
919.05	14982
919.161	15039
919.272	14853
919.383	14849
919.494	15203
919.604	15127
919.715	15058
919.826	14971
919.936	14952
920.047	15131
920.157	14979
920.267	15237
920.378	15100
920.488	14960
920.598	15268
920.708	15283
920.818	15138
920.928	15275
921.038	15279
921.148	15218
921.258	14948
921.368	14895
921.477	14796
921.587	14735
921.697	14503
921.806	14765
921.916	14735
922.025	14454
922.134	14454
922.244	14408
922.353	14396
922.462	14271
922.571	14172
922.68	14088
922.789	14046
922.898	14126
923.007	14031
923.116	14005
923.224	14039
923.333	13986
923.442	13890
923.55	13860
923.659	13845
923.767	13898
923.876	13799
923.984	13856
924.092	13746
924.201	13746
924.309	13772
924.417	13761
924.525	13784
924.633	13681
924.741	14499
924.849	13537
924.956	13613
925.064	13483
925.172	13297
925.279	13419
925.387	13419
925.494	13324
925.602	13441
925.709	13483
925.816	13282
925.924	13327
926.031	13499
926.138	13335
926.245	13426
926.352	13285
926.459	13464
926.566	13350
926.673	13312
926.779	13228
926.886	13103
926.993	13091
927.099	12996
927.206	13000
927.312	12852
927.419	12966
927.525	13042
927.631	13015
927.737	12916
927.843	12829
927.95	12817
928.056	12772
928.162	12886
928.267	12791
928.373	13331
928.479	12814
928.585	12570
928.69	12776
928.796	12745
928.901	12654
929.007	12555
929.112	12692
929.218	12688
929.323	12631
929.428	12509
929.533	12646
929.638	12395
929.743	12418
929.848	12460
929.953	12540
930.058	12311
930.163	12194
930.267	12304
930.372	12433
930.477	12175
930.581	12448
930.685	12163
930.79	12022
930.894	12163
930.998	12106
931.103	12186
931.207	11828
931.311	11699
931.415	11634
931.519	11444
931.623	11459
