Data from test_V78500241_1821.txt Node
Date: Fri Mar 25 15:54:24 CST 2022
User: usil
Spectrometer: V785-0024
Trigger mode: 0
Integration Time (sec): 4.000000E-1
Scans to average: 1
Nonlinearity correction enabled: false
Boxcar width: 0
Storing dark spectrum: false
XAxis mode: Wavelengths
Number of Pixels in Spectrum: 1024
>>>>>Begin Spectral Data<<<<<
801.071	28584
801.214	28424
801.356	28261
801.499	28101
801.641	27975
801.783	28074
801.926	28093
802.068	28105
802.211	27846
802.353	27880
802.496	27831
802.638	27800
802.78	27625
802.923	27644
803.065	27660
803.208	27682
803.35	27682
803.492	27827
803.635	27907
803.777	27793
803.919	27770
804.061	28261
804.204	28029
804.346	27876
804.488	27991
804.63	27953
804.773	27998
804.915	27941
805.057	28090
805.199	27972
805.341	28078
805.483	28070
805.626	28162
805.768	28135
805.91	28055
806.052	28082
806.194	28044
806.336	28310
806.478	28166
806.62	28200
806.762	28329
806.904	28382
807.046	28649
807.188	28459
807.33	28466
807.472	28527
807.614	28390
807.756	28550
807.898	28413
808.04	28272
808.182	28382
808.324	28432
808.465	28569
808.607	28542
808.749	28733
808.891	28934
809.033	28930
809.174	28866
809.316	28778
809.458	28774
809.6	28748
809.741	28885
809.883	28767
810.025	29090
810.166	28930
810.308	29006
810.45	29170
810.591	28953
810.733	28771
810.875	28824
811.016	28653
811.158	28721
811.299	28774
811.441	28946
811.582	28866
811.724	28805
811.865	28835
812.007	28850
812.148	28748
812.29	28835
812.431	28953
812.573	29079
812.714	29341
812.855	29330
812.997	29307
813.138	29440
813.279	29406
813.421	29372
813.562	29204
813.703	29151
813.845	29018
813.986	28771
814.127	28683
814.268	28428
814.41	28615
814.551	28493
814.692	28573
814.833	28481
814.974	28409
815.115	28542
815.256	28382
815.397	28306
815.539	28268
815.68	28257
815.821	28192
815.962	28280
816.103	28375
816.244	28173
816.385	28150
816.526	27926
816.666	27781
816.807	27751
816.948	27876
817.089	27850
817.23	27857
817.371	27850
817.512	27804
817.653	27766
817.793	27778
817.934	27709
818.075	27682
818.216	27827
818.356	27720
818.497	27743
818.638	27553
818.778	27526
818.919	27667
819.06	27614
819.2	27572
819.341	27846
819.481	27755
819.622	27892
819.762	28215
819.903	28177
820.043	27865
820.184	27903
820.324	28059
820.465	27941
820.605	27930
820.746	27945
820.886	27751
821.026	27922
821.167	27876
821.307	27907
821.447	27846
821.588	27618
821.728	27526
821.868	27473
822.008	27393
822.149	27355
822.289	27226
822.429	27043
822.569	26872
822.709	26864
822.849	26758
822.99	26724
823.13	26777
823.27	26815
823.41	26606
823.55	26457
823.69	26621
823.83	26549
823.97	26511
824.11	26503
824.25	26267
824.389	26465
824.529	26412
824.669	26385
824.809	26568
824.949	26598
825.089	26579
825.228	26480
825.368	26244
825.508	26122
825.648	26176
825.787	26313
825.927	26313
826.067	26298
826.206	26366
826.346	26309
826.485	26294
826.625	26286
826.765	26347
826.904	26453
827.044	26134
827.183	25936
827.323	26016
827.462	26035
827.601	26012
827.741	26008
827.88	26054
828.02	25849
828.159	26062
828.298	26107
828.437	25993
828.577	25974
828.716	26046
828.855	25944
828.994	25685
829.134	25772
829.273	25791
829.412	25616
829.551	25620
829.69	25514
829.829	25712
829.968	25769
830.107	25719
830.246	25647
830.385	25578
830.524	25666
830.663	25544
830.802	25430
830.941	25373
831.08	25324
831.219	25449
831.357	25388
831.496	25537
831.635	25308
831.774	25198
831.913	25339
832.051	25012
832.19	25141
832.329	25031
832.467	25095
832.606	24962
832.744	24932
832.883	24958
833.022	24867
833.16	24852
833.299	24924
833.437	25031
833.576	25015
833.714	24989
833.852	25076
833.991	25091
834.129	25152
834.267	25168
834.406	24977
834.544	25057
834.682	25023
834.821	24966
834.959	25122
835.097	25076
835.235	25118
835.373	25069
835.511	25107
835.65	24806
835.788	24951
835.926	24825
836.064	24661
836.202	24829
836.34	24840
836.478	24886
836.615	24772
836.753	24901
836.891	24928
837.029	24844
837.167	24787
837.305	24760
837.443	24821
837.58	24722
837.718	24844
837.856	24719
837.993	24654
838.131	24768
838.269	24486
838.406	24631
838.544	24494
838.681	24483
838.819	24171
838.956	24182
839.094	24155
839.231	24327
839.369	24239
839.506	24498
839.643	24399
839.781	24148
839.918	24117
840.055	24243
840.193	24098
840.33	24095
840.467	24163
840.604	24125
840.742	24372
840.879	23946
841.016	24057
841.153	23954
841.29	24163
841.427	23950
841.564	24194
841.701	23988
841.838	24057
841.975	23931
842.112	24011
842.249	23942
842.385	23866
842.522	23961
842.659	23870
842.796	23840
842.933	23821
843.069	23798
843.206	23668
843.343	23969
843.479	23847
843.616	23741
843.752	23596
843.889	23608
844.025	23756
844.162	23577
844.298	23802
844.435	23577
844.571	23547
844.708	23604
844.844	23745
844.98	23786
845.117	23665
845.253	23547
845.389	23516
845.525	23608
845.661	23455
845.798	23395
845.934	23448
846.07	23235
846.206	23395
846.342	23402
846.478	23242
846.614	23048
846.75	22942
846.886	22942
847.022	23124
847.158	23048
847.294	23067
847.429	23098
847.565	23060
847.701	23166
847.837	22763
847.972	22717
848.108	22869
848.244	22729
848.379	22630
848.515	22584
848.65	22637
848.786	22577
848.921	22691
849.057	22702
849.192	22660
849.328	22721
849.463	22668
849.598	22675
849.734	22512
849.869	22561
850.004	22497
850.14	22519
850.275	22382
850.41	22215
850.545	22352
850.68	22333
850.815	22493
850.95	22382
851.085	22607
851.22	22523
851.355	22451
851.49	22474
851.625	22409
851.76	22386
851.895	22386
852.03	22424
852.165	22497
852.299	22363
852.434	22447
852.569	22424
852.703	22443
852.838	22497
852.973	22455
853.107	22542
853.242	22276
853.376	22207
853.511	22070
853.645	22223
853.78	22314
853.914	22242
854.048	22166
854.183	22143
854.317	22147
854.451	22398
854.585	22131
854.72	22257
854.854	22303
854.988	22074
855.122	22314
855.256	22139
855.39	22291
855.524	22196
855.658	22223
855.792	22112
855.926	22211
856.06	22329
856.194	22238
856.327	22234
856.461	22124
856.595	22074
856.729	22200
856.862	22299
856.996	22303
857.13	22234
857.263	22306
857.397	22352
857.53	22223
857.664	22120
857.797	22356
857.931	22337
858.064	22219
858.197	22352
858.331	22120
858.464	22143
858.597	22124
858.731	22150
858.864	22242
858.997	22158
859.13	22276
859.263	22246
859.396	22348
859.529	22173
859.662	21930
859.795	22131
859.928	22162
860.061	22371
860.194	22390
860.327	22306
860.46	22200
860.592	22314
860.725	22352
860.858	22287
860.99	22295
861.123	22143
861.256	22082
861.388	22318
861.521	22835
861.653	21987
861.786	21926
861.918	22032
862.05	22154
862.183	21994
862.315	22185
862.447	22055
862.58	22097
862.712	21918
862.844	21880
862.976	22002
863.108	21979
863.24	22379
863.372	21854
863.504	21854
863.636	21827
863.768	21880
863.9	21873
864.032	21778
864.164	21808
864.296	21960
864.428	22074
864.559	21949
864.691	21979
864.823	21960
864.954	21842
865.086	21838
865.217	21755
865.349	21751
865.48	21781
865.612	21915
865.743	21941
865.875	21751
866.006	21739
866.137	21785
866.269	21755
866.4	21686
866.531	21751
866.662	21671
866.793	21789
866.924	21713
867.055	21713
867.186	21618
867.317	21751
867.448	21587
867.579	21701
867.71	21629
867.841	21694
867.972	21717
868.103	21717
868.233	21720
868.364	21743
868.495	21846
868.625	22002
868.756	22029
868.886	21785
869.017	22040
869.147	22029
869.278	22128
869.408	22010
869.539	21911
869.669	22116
869.799	22002
869.929	22070
870.06	22150
870.19	22185
870.32	22299
870.45	22329
870.58	22306
870.71	22447
870.84	22375
870.97	22386
871.1	22535
871.23	22481
871.36	22603
871.489	22386
871.619	22481
871.749	22546
871.879	22573
872.008	22634
872.138	22622
872.267	22618
872.397	22322
872.526	22390
872.656	22375
872.785	22421
872.915	22615
873.044	22641
873.173	22618
873.303	22664
873.432	22485
873.561	22729
873.69	22713
873.819	22725
873.948	22668
874.077	22634
874.206	22493
874.335	22474
874.464	22664
874.593	22778
874.722	22908
874.851	22854
874.979	22896
875.108	22858
875.237	22755
875.365	22778
875.494	22847
875.623	22866
875.751	22706
875.88	22767
876.008	22847
876.136	22900
876.265	23124
876.393	23307
876.521	23341
876.65	23288
876.778	23288
876.906	23170
877.034	23159
877.162	23193
877.29	23071
877.418	23132
877.546	23109
877.674	23033
877.802	23193
877.93	23075
878.058	23064
878.185	22961
878.313	23056
878.441	23128
878.568	23006
878.696	23113
878.824	23200
878.951	23170
879.079	23299
879.206	23459
879.333	23318
879.461	23204
879.588	23284
879.715	23330
879.842	23505
879.97	23273
880.097	22980
880.224	22927
880.351	22961
880.478	22972
880.605	22843
880.732	22991
880.859	23189
880.986	23048
881.112	22915
881.239	22771
881.366	22687
881.493	22748
881.619	22538
881.746	22649
881.872	22577
881.999	22512
882.125	22527
882.252	22531
882.378	22447
882.505	22615
882.631	22261
882.757	22261
882.883	22287
883.01	22303
883.136	22154
883.262	22116
883.388	21991
883.514	22173
883.64	22116
883.766	22101
883.892	21987
884.018	22040
884.143	22166
884.269	22150
884.395	21876
884.52	21797
884.646	21953
884.772	21705
884.897	21762
885.023	21876
885.148	21884
885.274	21934
885.399	22017
885.524	21987
885.65	21903
885.775	21865
885.9	21705
886.025	21991
886.15	21808
886.275	21850
886.4	21838
886.525	21819
886.65	21774
886.775	21701
886.9	21903
887.025	21994
887.149	21766
887.274	21625
887.399	21553
887.523	21614
887.648	21580
887.773	21462
887.897	21694
888.021	21572
888.146	21618
888.27	21663
888.395	21755
888.519	21656
888.643	21663
888.767	21500
888.891	21507
889.015	21367
889.139	21462
889.263	21420
889.387	21428
889.511	21717
889.635	21488
889.759	21393
889.883	21443
890.006	21359
890.13	21561
890.254	21306
890.377	21344
890.501	21123
890.624	21195
890.748	21176
890.871	20998
890.995	21013
891.118	20883
891.241	20941
891.364	20823
891.488	21127
891.611	20929
891.734	20857
891.857	20971
891.98	20960
892.103	20994
892.226	20937
892.349	21055
892.471	20773
892.594	20773
892.717	20944
892.839	20800
892.962	20834
893.085	20891
893.207	20781
893.33	20819
893.452	20796
893.575	20967
893.697	20731
893.819	20994
893.941	20967
894.064	20994
894.186	20781
894.308	20686
894.43	20948
894.552	20937
894.674	20914
894.796	20720
894.918	20823
895.04	20811
895.161	20883
895.283	20815
895.405	20777
895.526	20781
895.648	20811
895.769	20849
895.891	20823
896.012	20963
896.134	20994
896.255	20861
896.376	20743
896.498	20807
896.619	20857
896.74	20788
896.861	20921
896.982	21188
897.103	21222
897.224	21093
897.345	21062
897.466	20941
897.587	21005
897.708	21100
897.828	21043
897.949	21055
898.07	20853
898.19	20960
898.311	21100
898.431	20982
898.552	21104
898.672	21138
898.792	21077
898.913	21096
899.033	20899
899.153	20849
899.273	20777
899.393	20785
899.513	20853
899.633	20678
899.753	20872
899.873	20769
899.993	20686
900.113	20708
900.232	20804
900.352	20632
900.472	20663
900.591	20469
900.711	20632
900.83	20522
900.95	20590
901.069	20606
901.189	20415
901.308	20290
901.427	20180
901.546	20100
901.665	20202
901.784	20145
901.904	19852
902.023	19963
902.141	19674
902.26	19643
902.379	19601
902.498	19590
902.617	19544
902.735	19582
902.854	19647
902.973	19556
903.091	19324
903.21	19266
903.328	19285
903.446	19240
903.565	19046
903.683	19072
903.801	18916
903.919	18954
904.038	19004
904.156	18867
904.274	18856
904.392	18791
904.51	18768
904.627	18886
904.745	18886
904.863	18825
904.981	18578
905.098	18612
905.216	18452
905.334	18528
905.451	18486
905.569	18532
905.686	18574
905.803	18517
905.921	18357
906.038	18380
906.155	18266
906.272	18163
906.389	18205
906.506	18110
906.623	18148
906.74	18022
906.857	17916
906.974	17923
907.091	18125
907.208	18110
907.324	18007
907.441	17893
907.557	17733
907.674	17722
907.79	17737
907.907	17646
908.023	17691
908.139	17745
908.256	17668
908.372	17596
908.488	17558
908.604	17433
908.72	17421
908.836	17570
908.952	17402
909.068	17421
909.184	17520
909.3	17463
909.415	17471
909.531	17516
909.647	17200
909.762	17178
909.878	17223
909.993	17162
910.108	17109
910.224	17083
910.339	17128
910.454	17025
910.57	16927
910.685	16809
910.8	17079
910.915	17006
911.03	16965
911.145	16767
911.259	16877
911.374	16721
911.489	16607
911.604	16607
911.718	16481
911.833	16497
911.947	16382
912.062	16356
912.176	16440
912.291	16417
912.405	16523
912.519	16611
912.633	16653
912.748	16542
912.862	16519
912.976	16318
913.09	16173
913.204	16234
913.318	16333
913.431	16386
913.545	16329
913.659	16325
913.772	16207
913.886	16082
914	16010
914.113	16059
914.226	16207
914.34	16204
914.453	15979
914.566	16040
914.68	16036
914.793	15953
914.906	15778
915.019	15656
915.132	15572
915.245	15618
915.358	15701
915.47	15625
915.583	15629
915.696	15690
915.809	15732
915.921	15705
916.034	15686
916.146	15606
916.259	15488
916.371	15580
916.483	15622
916.595	15458
916.708	15488
916.82	15477
916.932	15458
917.044	15447
917.156	15466
917.268	15291
917.38	15401
917.491	15245
917.603	15233
917.715	15439
917.826	15435
917.938	15142
918.049	15272
918.161	15275
918.272	15405
918.384	15332
918.495	15127
918.606	15085
918.717	15020
918.828	15108
918.939	15119
919.05	14967
919.161	15017
919.272	14682
919.383	14880
919.494	15119
919.604	15226
919.715	14967
919.826	14895
919.936	14918
920.047	15070
920.157	15066
920.267	15180
920.378	15024
920.488	14914
920.598	15161
920.708	15370
920.818	15123
920.928	15146
921.038	15207
921.148	15321
921.258	14921
921.368	14857
921.477	14769
921.587	14697
921.697	14743
921.806	14743
921.916	14579
922.025	14446
922.134	14404
922.244	14282
922.353	14396
922.462	14229
922.571	14183
922.68	14073
922.789	14031
922.898	14039
923.007	13978
923.116	13974
923.224	13921
923.333	13997
923.442	13868
923.55	13704
923.659	13887
923.767	13826
923.876	13712
923.984	13898
924.092	13620
924.201	13708
924.309	13784
924.417	13734
924.525	13677
924.633	13632
924.741	14412
924.849	13544
924.956	13525
925.064	13426
925.172	13381
925.279	13369
925.387	13426
925.494	13434
925.602	13411
925.709	13365
925.816	13320
925.924	13392
926.031	13457
926.138	13301
926.245	13426
926.352	13244
926.459	13411
926.566	13327
926.673	13202
926.779	13217
926.886	13107
926.993	13027
927.099	12958
927.206	12875
927.312	12878
927.419	12962
927.525	12905
927.631	13012
927.737	12802
927.843	12837
927.95	12719
928.056	12734
928.162	12703
928.267	12829
928.373	13422
928.479	12810
928.585	12593
928.69	12642
928.796	12806
928.901	12574
929.007	12525
929.112	12570
929.218	12604
929.323	12517
929.428	12429
929.533	12452
929.638	12407
929.743	12410
929.848	12509
929.953	12350
930.058	12254
930.163	12155
930.267	12144
930.372	12361
930.477	12060
930.581	12342
930.685	12144
930.79	12011
930.894	12022
930.998	11973
931.103	12178
931.207	11802
931.311	11733
931.415	11638
931.519	11410
931.623	11353
