Data from test_V78500241_3347.txt Node
Date: Fri Mar 25 16:04:59 CST 2022
User: usil
Spectrometer: V785-0024
Trigger mode: 0
Integration Time (sec): 4.000000E-1
Scans to average: 1
Nonlinearity correction enabled: false
Boxcar width: 0
Storing dark spectrum: false
XAxis mode: Wavelengths
Number of Pixels in Spectrum: 1024
>>>>>Begin Spectral Data<<<<<
801.071	28668
801.214	28546
801.356	28561
801.499	28497
801.641	28280
801.783	28348
801.926	28318
802.068	28295
802.211	28299
802.353	28097
802.496	28048
802.638	27987
802.78	28017
802.923	27968
803.065	27880
803.208	28021
803.35	28124
803.492	28150
803.635	28207
803.777	28090
803.919	28093
804.061	28436
804.204	28318
804.346	28116
804.488	28150
804.63	28086
804.773	28204
804.915	28325
805.057	28348
805.199	28268
805.341	28306
805.483	28451
805.626	28348
805.768	28337
805.91	28382
806.052	28413
806.194	28401
806.336	28546
806.478	28341
806.62	28299
806.762	28649
806.904	28694
807.046	29010
807.188	28949
807.33	28915
807.472	28888
807.614	28843
807.756	28839
807.898	28580
808.04	28596
808.182	28596
808.324	28580
808.465	28835
808.607	28892
808.749	29113
808.891	29162
809.033	29326
809.174	29200
809.316	29079
809.458	29064
809.6	29071
809.741	29136
809.883	29273
810.025	29353
810.166	29410
810.308	29406
810.45	29417
810.591	29368
810.733	29181
810.875	29140
811.016	29113
811.158	29033
811.299	29189
811.441	29341
811.582	29269
811.724	29220
811.865	29014
812.007	29052
812.148	29223
812.29	29132
812.431	29193
812.573	29436
812.714	29657
812.855	29752
812.997	29828
813.138	29908
813.279	29859
813.421	29657
813.562	29634
813.703	29387
813.845	29261
813.986	29246
814.127	28972
814.268	28923
814.41	28858
814.551	28812
814.692	28984
814.833	28778
814.974	28809
815.115	28904
815.256	28634
815.397	28767
815.539	28763
815.68	28649
815.821	28634
815.962	28569
816.103	28603
816.244	28497
816.385	28481
816.526	28303
816.666	28329
816.807	28036
816.948	28158
817.089	28242
817.23	28215
817.371	28185
817.512	28242
817.653	28128
817.793	28017
817.934	28333
818.075	28143
818.216	28242
818.356	28036
818.497	28162
818.638	27960
818.778	27865
818.919	27911
819.06	27953
819.2	28055
819.341	28284
819.481	28295
819.622	28303
819.762	28363
819.903	28497
820.043	28360
820.184	28375
820.324	28280
820.465	28417
820.605	28455
820.746	28344
820.886	28131
821.026	28234
821.167	28268
821.307	28405
821.447	28196
821.588	28154
821.728	27911
821.868	27873
822.008	27713
822.149	27713
822.289	27625
822.429	27291
822.569	27363
822.709	27389
822.849	27275
822.99	27192
823.13	27039
823.27	27100
823.41	26982
823.55	26967
823.69	26986
823.83	26990
823.97	26944
824.11	26811
824.25	26708
824.389	26689
824.529	26823
824.669	26807
824.809	26834
824.949	26902
825.089	26948
825.228	26895
825.368	26686
825.508	26750
825.648	26750
825.787	26788
825.927	26853
826.067	26644
826.206	26552
826.346	26693
826.485	26724
826.625	26735
826.765	26765
826.904	26705
827.044	26484
827.183	26431
827.323	26453
827.462	26480
827.601	26434
827.741	26286
827.88	26442
828.02	26347
828.159	26408
828.298	26473
828.437	26511
828.577	26400
828.716	26575
828.855	26199
828.994	25986
829.134	26119
829.273	26134
829.412	25932
829.551	25963
829.69	26164
829.829	26119
829.968	26206
830.107	26122
830.246	26103
830.385	26016
830.524	25974
830.663	25997
830.802	25940
830.941	25643
831.08	25696
831.219	25811
831.357	25807
831.496	25940
831.635	25620
831.774	25609
831.913	25624
832.051	25605
832.19	25434
832.329	25468
832.467	25388
832.606	25343
832.744	25426
832.883	25354
833.022	25460
833.16	25365
833.299	25316
833.437	25270
833.576	25449
833.714	25396
833.852	25449
833.991	25578
834.129	25510
834.267	25537
834.406	25400
834.544	25460
834.682	25430
834.821	25479
834.959	25605
835.097	25282
835.235	25457
835.373	25335
835.511	25441
835.65	25206
835.788	25209
835.926	25103
836.064	25046
836.202	25194
836.34	25362
836.478	25396
836.615	25198
836.753	25285
836.891	25297
837.029	25255
837.167	25240
837.305	25114
837.443	25080
837.58	25038
837.718	25160
837.856	25095
837.993	24992
838.131	24996
838.269	25031
838.406	24897
838.544	24913
838.681	24730
838.819	24749
838.956	24486
839.094	24528
839.231	24604
839.369	24703
839.506	24939
839.643	24776
839.781	24547
839.918	24418
840.055	24578
840.193	24460
840.33	24445
840.467	24498
840.604	24509
840.742	24726
840.879	24384
841.016	24353
841.153	24323
841.29	24593
841.427	24494
841.564	24372
841.701	24547
841.838	24388
841.975	24456
842.112	24418
842.249	24342
842.385	24292
842.522	24407
842.659	24330
842.796	24228
842.933	24159
843.069	24049
843.206	24167
843.343	24232
843.479	24125
843.616	24148
843.752	23999
843.889	23988
844.025	24121
844.162	23973
844.298	24049
844.435	23931
844.571	23992
844.708	24026
844.844	24068
844.98	24106
845.117	24102
845.253	24011
845.389	23790
845.525	23908
845.661	23893
845.798	23752
845.934	23680
846.07	23741
846.206	23790
846.342	23832
846.478	23665
846.614	23482
846.75	23299
846.886	23303
847.022	23589
847.158	23505
847.294	23505
847.429	23539
847.565	23433
847.701	23638
847.837	23174
847.972	23223
848.108	23147
848.244	23337
848.379	23132
848.515	23105
848.65	23086
848.786	23113
848.921	22972
849.057	23041
849.192	23113
849.328	23109
849.463	23041
849.598	22942
849.734	22938
849.869	22828
850.004	22850
850.14	22782
850.275	22820
850.41	22713
850.545	22759
850.68	22828
850.815	22900
850.95	22816
851.085	23067
851.22	22877
851.355	22809
851.49	22793
851.625	22809
851.76	22691
851.895	22710
852.03	22839
852.165	22786
852.299	22752
852.434	22763
852.569	22862
852.703	22740
852.838	22850
852.973	22911
853.107	22847
853.242	22706
853.376	22596
853.511	22500
853.645	22592
853.78	22733
853.914	22538
854.048	22634
854.183	22546
854.317	22755
854.451	22729
854.585	22626
854.72	22599
854.854	22622
854.988	22592
855.122	22596
855.256	22607
855.39	22603
855.524	22698
855.658	22603
855.792	22508
855.926	22649
856.06	22858
856.194	22729
856.327	22615
856.461	22649
856.595	22447
856.729	22451
856.862	22733
856.996	22641
857.13	22729
857.263	22733
857.397	22774
857.53	22550
857.664	22599
857.797	22603
857.931	22660
858.064	22687
858.197	22786
858.331	22641
858.464	22459
858.597	22447
858.731	22573
858.864	22550
858.997	22725
859.13	22675
859.263	22664
859.396	22767
859.529	22637
859.662	22710
859.795	22546
859.928	22611
860.061	22767
860.194	22839
860.327	22599
860.46	22615
860.592	22767
860.725	22729
860.858	22687
860.99	22694
861.123	22531
861.256	22527
861.388	22565
861.521	23246
861.653	22428
861.786	22367
861.918	22375
862.05	22443
862.183	22451
862.315	22538
862.447	22542
862.58	22523
862.712	22249
862.844	22280
862.976	22428
863.108	22398
863.24	22706
863.372	22253
863.504	22325
863.636	22348
863.768	22322
863.9	22443
864.032	22284
864.164	22295
864.296	22253
864.428	22413
864.559	22367
864.691	22249
864.823	22303
864.954	22432
865.086	22360
865.217	22249
865.349	22158
865.48	22154
865.612	22074
865.743	22352
865.875	22185
866.006	22090
866.137	22192
866.269	22238
866.4	22093
866.531	22097
866.662	22036
866.793	22063
866.924	22116
867.055	22154
867.186	22154
867.317	22101
867.448	22105
867.579	22211
867.71	22010
867.841	22032
867.972	22154
868.103	22086
868.233	22219
868.364	22192
868.495	22272
868.625	22462
868.756	22504
868.886	22246
869.017	22363
869.147	22592
869.278	22398
869.408	22360
869.539	22398
869.669	22386
869.799	22333
869.929	22462
870.06	22440
870.19	22500
870.32	22687
870.45	22805
870.58	22752
870.71	22767
870.84	22687
870.97	22793
871.1	22615
871.23	22908
871.36	22877
871.489	22812
871.619	22835
871.749	22847
871.879	22968
872.008	23079
872.138	22904
872.267	22984
872.397	22820
872.526	22850
872.656	22736
872.785	22748
872.915	22930
873.044	22987
873.173	23003
873.303	23037
873.432	23006
873.561	23079
873.69	22949
873.819	23037
873.948	23029
874.077	22999
874.206	23048
874.335	22991
874.464	23044
874.593	23174
874.722	23193
874.851	23159
874.979	23193
875.108	23223
875.237	23155
875.365	23086
875.494	23197
875.623	23303
875.751	23143
875.88	23181
876.008	23330
876.136	23414
876.265	23619
876.393	23714
876.521	23646
876.65	23539
876.778	23592
876.906	23558
877.034	23505
877.162	23551
877.29	23539
877.418	23493
877.546	23448
877.674	23661
877.802	23539
877.93	23497
878.058	23524
878.185	23379
878.313	23501
878.441	23558
878.568	23360
878.696	23509
878.824	23566
878.951	23627
879.079	23855
879.206	23946
879.333	23680
879.461	23520
879.588	23642
879.715	23798
879.842	23889
879.97	23497
880.097	23334
880.224	23318
880.351	23429
880.478	23326
880.605	23303
880.732	23440
880.859	23539
880.986	23307
881.112	23448
881.239	23265
881.366	23128
881.493	23090
881.619	22919
881.746	22877
881.872	22885
881.999	22824
882.125	22831
882.252	23044
882.378	22934
882.505	23044
882.631	22729
882.757	22630
882.883	22740
883.01	22519
883.136	22645
883.262	22360
883.388	22379
883.514	22637
883.64	22675
883.766	22516
883.892	22443
884.018	22318
884.143	22516
884.269	22565
884.395	22329
884.52	22173
884.646	22234
884.772	22177
884.897	22078
885.023	22314
885.148	22379
885.274	22337
885.399	22268
885.524	22059
885.65	22261
885.775	22310
885.9	22200
886.025	22413
886.15	22386
886.275	22166
886.4	22131
886.525	22223
886.65	22048
886.775	22109
886.9	22215
887.025	22424
887.149	22196
887.274	22013
887.399	21918
887.523	22006
887.648	21926
887.773	21911
887.897	22150
888.021	22109
888.146	22059
888.27	22067
888.395	22120
888.519	22055
888.643	21968
888.767	22070
888.891	21865
889.015	21797
889.139	21945
889.263	21720
889.387	22025
889.511	21937
889.635	21903
889.759	21884
889.883	21686
890.006	21759
890.13	21762
890.254	21675
890.377	21637
890.501	21439
890.624	21447
890.748	21663
890.871	21382
890.995	21344
891.118	21291
891.241	21313
891.364	21291
891.488	21412
891.611	21382
891.734	21382
891.857	21469
891.98	21367
892.103	21332
892.226	21272
892.349	21226
892.471	21154
892.594	21154
892.717	21184
892.839	21233
892.962	21264
893.085	21367
893.207	21340
893.33	21135
893.452	21188
893.575	21165
893.697	21245
893.819	21401
893.941	21500
894.064	21351
894.186	21135
894.308	21184
894.43	21325
894.552	21260
894.674	21283
894.796	21066
894.918	21123
895.04	21176
895.161	21298
895.283	21135
895.405	21036
895.526	21332
895.648	21154
895.769	21222
895.891	21100
896.012	21378
896.134	21268
896.255	21294
896.376	21165
896.498	21131
896.619	21203
896.74	21214
896.861	21226
896.982	21534
897.103	21580
897.224	21545
897.345	21428
897.466	21370
897.587	21348
897.708	21633
897.828	21443
897.949	21321
898.07	21211
898.19	21359
898.311	21496
898.431	21272
898.552	21370
898.672	21496
898.792	21447
898.913	21412
899.033	21154
899.153	21184
899.273	21036
899.393	21028
899.513	21096
899.633	21218
899.753	21157
899.873	21055
899.993	21055
900.113	21005
900.232	21028
900.352	21043
900.472	20944
900.591	20834
900.711	20918
900.83	20861
900.95	21104
901.069	20937
901.189	20758
901.308	20484
901.427	20465
901.546	20511
901.665	20393
901.784	20339
901.904	20457
902.023	20317
902.141	19997
902.26	19959
902.379	20050
902.498	19894
902.617	19864
902.735	19986
902.854	19928
902.973	19788
903.091	19480
903.21	19643
903.328	19693
903.446	19445
903.565	19449
903.683	19491
903.801	19346
903.919	19320
904.038	19377
904.156	19141
904.274	19247
904.392	19247
904.51	19160
904.627	19080
904.745	19289
904.863	19141
904.981	18993
905.098	18867
905.216	18863
905.334	18852
905.451	18913
905.569	18837
905.686	18848
905.803	18833
905.921	18627
906.038	18753
906.155	18673
906.272	18525
906.389	18528
906.506	18475
906.623	18422
906.74	18346
906.857	18213
906.974	18133
907.091	18319
907.208	18536
907.324	18334
907.441	18201
907.557	18110
907.674	18205
907.79	18011
907.907	18026
908.023	18129
908.139	18110
908.256	17977
908.372	18011
908.488	17927
908.604	17737
908.72	17722
908.836	17661
908.952	17676
909.068	17802
909.184	17859
909.3	17790
909.415	17710
909.531	17714
909.647	17608
909.762	17410
909.878	17360
909.993	17490
910.108	17474
910.224	17349
910.339	17387
910.454	17296
910.57	17181
910.685	17159
910.8	17433
910.915	17395
911.03	17322
911.145	17105
911.259	17037
911.374	17048
911.489	16972
911.604	16976
911.718	16713
911.833	16828
911.947	16641
912.062	16664
912.176	16858
912.291	16854
912.405	16854
912.519	16968
912.633	17052
912.748	16816
912.862	16763
912.976	16660
913.09	16493
913.204	16561
913.318	16596
913.431	16660
913.545	16607
913.659	16706
913.772	16531
913.886	16474
914	16474
914.113	16478
914.226	16497
914.34	16516
914.453	16234
914.566	16447
914.68	16223
914.793	16147
914.906	16135
915.019	15979
915.132	15888
915.245	15960
915.358	15918
915.47	15930
915.583	16021
915.696	15941
915.809	16078
915.921	16135
916.034	15861
916.146	15838
916.259	15850
916.371	15918
916.483	15831
916.595	15762
916.708	15800
916.82	15812
916.932	15755
917.044	15732
917.156	15610
917.268	15564
917.38	15511
917.491	15682
917.603	15576
917.715	15584
917.826	15610
917.938	15458
918.049	15450
918.161	15412
918.272	15656
918.384	15568
918.495	15458
918.606	15374
918.717	15298
918.828	15287
918.939	15382
919.05	15233
919.161	15348
919.272	15077
919.383	15207
919.494	15443
919.604	15488
919.715	15332
919.826	15264
919.936	15252
920.047	15241
920.157	15287
920.267	15473
920.378	15252
920.488	15245
920.598	15481
920.708	15542
920.818	15416
920.928	15405
921.038	15523
921.148	15530
921.258	15268
921.368	15176
921.477	14914
921.587	14960
921.697	14967
921.806	14986
921.916	14887
922.025	14712
922.134	14610
922.244	14594
922.353	14693
922.462	14503
922.571	14408
922.68	14298
922.789	14282
922.898	14244
923.007	14134
923.116	14282
923.224	14259
923.333	14244
923.442	14081
923.55	14130
923.659	14027
923.767	14081
923.876	14001
923.984	14050
924.092	14012
924.201	13944
924.309	13986
924.417	13947
924.525	13868
924.633	13925
924.741	14769
924.849	13795
924.956	13909
925.064	13590
925.172	13696
925.279	13632
925.387	13658
925.494	13624
925.602	13780
925.709	13666
925.816	13548
925.924	13582
926.031	13624
926.138	13620
926.245	13616
926.352	13472
926.459	13571
926.566	13681
926.673	13430
926.779	13331
926.886	13354
926.993	13274
927.099	13179
927.206	13164
927.312	13050
927.419	13209
927.525	13126
927.631	13152
927.737	13042
927.843	12993
927.95	12932
928.056	13019
928.162	12970
928.267	13061
928.373	13605
928.479	13004
928.585	12871
928.69	12954
928.796	12977
928.901	12875
929.007	12646
929.112	12814
929.218	12783
929.323	12719
929.428	12711
929.533	12840
929.638	12620
929.743	12612
929.848	12734
929.953	12578
930.058	12631
930.163	12277
930.267	12445
930.372	12597
930.477	12372
930.581	12563
930.685	12399
930.79	12281
930.894	12194
930.998	12201
931.103	12315
931.207	11958
931.311	11859
931.415	11817
931.519	11630
931.623	11566
