Data from test_V78500241_3069.txt Node
Date: Fri Mar 25 16:03:03 CST 2022
User: usil
Spectrometer: V785-0024
Trigger mode: 0
Integration Time (sec): 4.000000E-1
Scans to average: 1
Nonlinearity correction enabled: false
Boxcar width: 0
Storing dark spectrum: false
XAxis mode: Wavelengths
Number of Pixels in Spectrum: 1024
>>>>>Begin Spectral Data<<<<<
801.071	28725
801.214	28778
801.356	28455
801.499	28497
801.641	28337
801.783	28337
801.926	28360
802.068	28333
802.211	28333
802.353	28211
802.496	28074
802.638	28109
802.78	27956
802.923	28017
803.065	27945
803.208	27975
803.35	28013
803.492	28207
803.635	28314
803.777	28181
803.919	28474
804.061	28599
804.204	28371
804.346	28318
804.488	28124
804.63	28139
804.773	28181
804.915	28261
805.057	28398
805.199	28352
805.341	28474
805.483	28360
805.626	28538
805.768	28447
805.91	28504
806.052	28394
806.194	28367
806.336	28577
806.478	28485
806.62	28455
806.762	28607
806.904	28717
807.046	28991
807.188	28854
807.33	28942
807.472	28904
807.614	28854
807.756	28755
807.898	28790
808.04	28778
808.182	28778
808.324	28801
808.465	28797
808.607	29044
808.749	29124
808.891	29178
809.033	29330
809.174	29124
809.316	29132
809.458	29136
809.6	29033
809.741	29136
809.883	29200
810.025	29360
810.166	29402
810.308	29448
810.45	29349
810.591	29318
810.733	29341
810.875	29147
811.016	29041
811.158	29121
811.299	29261
811.441	29292
811.582	29208
811.724	29166
811.865	29197
812.007	29166
812.148	29197
812.29	29159
812.431	29391
812.573	29425
812.714	29604
812.855	29657
812.997	29802
813.138	30034
813.279	29813
813.421	29771
813.562	29649
813.703	29490
813.845	29307
813.986	29246
814.127	28984
814.268	28980
814.41	28786
814.551	28854
814.692	28888
814.833	28698
814.974	28774
815.115	28934
815.256	28733
815.397	28812
815.539	28740
815.68	28702
815.821	28531
815.962	28626
816.103	28725
816.244	28550
816.385	28516
816.526	28493
816.666	28352
816.807	28177
816.948	28219
817.089	28223
817.23	28230
817.371	28116
817.512	28059
817.653	28147
817.793	27945
817.934	28158
818.075	28219
818.216	28253
818.356	28162
818.497	28128
818.638	27808
818.778	27964
818.919	27975
819.06	27968
819.2	28059
819.341	28177
819.481	28109
819.622	28219
819.762	28573
819.903	28493
820.043	28390
820.184	28421
820.324	28147
820.465	28432
820.605	28287
820.746	28314
820.886	28147
821.026	28325
821.167	28253
821.307	28379
821.447	28188
821.588	28173
821.728	27934
821.868	27835
822.008	27633
822.149	27679
822.289	27629
822.429	27450
822.569	27439
822.709	27367
822.849	27302
822.99	27199
823.13	27112
823.27	27116
823.41	26960
823.55	26944
823.69	26910
823.83	27043
823.97	26944
824.11	26887
824.25	26720
824.389	26857
824.529	26940
824.669	26864
824.809	26944
824.949	26918
825.089	26918
825.228	26800
825.368	26815
825.508	26667
825.648	26754
825.787	26762
825.927	26731
826.067	26693
826.206	26530
826.346	26788
826.485	26686
826.625	26720
826.765	26785
826.904	26659
827.044	26480
827.183	26461
827.323	26465
827.462	26674
827.601	26469
827.741	26427
827.88	26336
828.02	26195
828.159	26381
828.298	26457
828.437	26473
828.577	26423
828.716	26355
828.855	26332
828.994	26024
829.134	26031
829.273	26157
829.412	26001
829.551	26100
829.69	26092
829.829	26240
829.968	26115
830.107	26142
830.246	26081
830.385	26016
830.524	26050
830.663	25864
830.802	25769
830.941	25772
831.08	25495
831.219	25841
831.357	25742
831.496	25982
831.635	25731
831.774	25609
831.913	25605
832.051	25476
832.19	25518
832.329	25666
832.467	25491
832.606	25346
832.744	25430
832.883	25392
833.022	25274
833.16	25392
833.299	25552
833.437	25426
833.576	25476
833.714	25506
833.852	25388
833.991	25533
834.129	25499
834.267	25533
834.406	25419
834.544	25472
834.682	25544
834.821	25441
834.959	25624
835.097	25320
835.235	25510
835.373	25464
835.511	25411
835.65	25384
835.788	25308
835.926	25240
836.064	25034
836.202	25129
836.34	25255
836.478	25308
836.615	25213
836.753	25331
836.891	25320
837.029	25160
837.167	25263
837.305	25206
837.443	25156
837.58	25091
837.718	25236
837.856	25148
837.993	25076
838.131	25027
838.269	25004
838.406	24970
838.544	24981
838.681	24795
838.819	24791
838.956	24601
839.094	24551
839.231	24730
839.369	24749
839.506	24878
839.643	24715
839.781	24559
839.918	24315
840.055	24441
840.193	24646
840.33	24517
840.467	24437
840.604	24555
840.742	24749
840.879	24346
841.016	24342
841.153	24369
841.29	24574
841.427	24414
841.564	24551
841.701	24475
841.838	24342
841.975	24262
842.112	24445
842.249	24330
842.385	24254
842.522	24437
842.659	24441
842.796	24186
842.933	24163
843.069	24235
843.206	24186
843.343	24216
843.479	24296
843.616	24232
843.752	24041
843.889	23999
844.025	24129
844.162	24022
844.298	24049
844.435	23893
844.571	23923
844.708	24022
844.844	24148
844.98	24129
845.117	24003
845.253	23946
845.389	23874
845.525	23973
845.661	23901
845.798	23737
845.934	23638
846.07	23634
846.206	23760
846.342	23767
846.478	23638
846.614	23570
846.75	23486
846.886	23398
847.022	23478
847.158	23615
847.294	23512
847.429	23551
847.565	23433
847.701	23634
847.837	23208
847.972	23090
848.108	23246
848.244	23204
848.379	23117
848.515	23109
848.65	22968
848.786	23143
848.921	22957
849.057	23216
849.192	23239
849.328	23014
849.463	22984
849.598	22923
849.734	22976
849.869	22957
850.004	22873
850.14	22866
850.275	22885
850.41	22687
850.545	22744
850.68	22774
850.815	22843
850.95	22809
851.085	22999
851.22	22805
851.355	22847
851.49	22687
851.625	22710
851.76	22698
851.895	22793
852.03	22717
852.165	22763
852.299	22854
852.434	22809
852.569	22831
852.703	22733
852.838	22869
852.973	22968
853.107	22946
853.242	22782
853.376	22683
853.511	22618
853.645	22615
853.78	22721
853.914	22577
854.048	22577
854.183	22713
854.317	22622
854.451	22934
854.585	22634
854.72	22672
854.854	22713
854.988	22527
855.122	22698
855.256	22504
855.39	22645
855.524	22748
855.658	22725
855.792	22588
855.926	22660
856.06	22706
856.194	22729
856.327	22557
856.461	22523
856.595	22596
856.729	22561
856.862	22660
856.996	22641
857.13	22626
857.263	22683
857.397	22725
857.53	22599
857.664	22656
857.797	22668
857.931	22687
858.064	22641
858.197	22653
858.331	22618
858.464	22668
858.597	22489
858.731	22615
858.864	22542
858.997	22626
859.13	22554
859.263	22649
859.396	22736
859.529	22630
859.662	22630
859.795	22603
859.928	22561
860.061	22805
860.194	22854
860.327	22664
860.46	22580
860.592	22725
860.725	22778
860.858	22809
860.99	22668
861.123	22455
861.256	22694
861.388	22683
861.521	23318
861.653	22569
861.786	22356
861.918	22474
862.05	22417
862.183	22485
862.315	22615
862.447	22656
862.58	22577
862.712	22257
862.844	22382
862.976	22500
863.108	22523
863.24	22733
863.372	22303
863.504	22394
863.636	22204
863.768	22409
863.9	22230
864.032	22196
864.164	22295
864.296	22299
864.428	22443
864.559	22451
864.691	22379
864.823	22322
864.954	22306
865.086	22310
865.217	22272
865.349	22101
865.48	22181
865.612	22230
865.743	22280
865.875	22284
866.006	22181
866.137	22192
866.269	22230
866.4	22139
866.531	22044
866.662	22059
866.793	22070
866.924	22086
867.055	22192
867.186	22070
867.317	22059
867.448	22055
867.579	22017
867.71	21987
867.841	22139
867.972	22131
868.103	22112
868.233	22048
868.364	22135
868.495	22181
868.625	22310
868.756	22462
868.886	22363
869.017	22485
869.147	22466
869.278	22436
869.408	22447
869.539	22481
869.669	22398
869.799	22500
869.929	22508
870.06	22432
870.19	22615
870.32	22664
870.45	22687
870.58	22824
870.71	22892
870.84	22820
870.97	22797
871.1	22778
871.23	23041
871.36	23044
871.489	22896
871.619	22995
871.749	22885
871.879	22942
872.008	23105
872.138	22987
872.267	23003
872.397	22866
872.526	22782
872.656	22805
872.785	22767
872.915	23075
873.044	22976
873.173	23105
873.303	23083
873.432	23105
873.561	23208
873.69	23029
873.819	22873
873.948	23067
874.077	23022
874.206	22885
874.335	22953
874.464	23166
874.593	23159
874.722	23181
874.851	23166
874.979	23246
875.108	23265
875.237	23102
875.365	23178
875.494	23132
875.623	23383
875.751	23140
875.88	23147
876.008	23258
876.136	23383
876.265	23661
876.393	23828
876.521	23611
876.65	23653
876.778	23661
876.906	23509
877.034	23482
877.162	23589
877.29	23573
877.418	23608
877.546	23463
877.674	23600
877.802	23680
877.93	23539
878.058	23535
878.185	23353
878.313	23566
878.441	23570
878.568	23486
878.696	23368
878.824	23501
878.951	23611
879.079	23726
879.206	23870
879.333	23649
879.461	23600
879.588	23661
879.715	23741
879.842	23752
879.97	23646
880.097	23368
880.224	23376
880.351	23368
880.478	23383
880.605	23341
880.732	23353
880.859	23627
880.986	23345
881.112	23531
881.239	23254
881.366	22999
881.493	22968
881.619	22862
881.746	22858
881.872	22991
881.999	22987
882.125	22786
882.252	23003
882.378	22961
882.505	23067
882.631	22786
882.757	22660
882.883	22843
883.01	22687
883.136	22645
883.262	22413
883.388	22402
883.514	22561
883.64	22679
883.766	22599
883.892	22341
884.018	22322
884.143	22615
884.269	22592
884.395	22428
884.52	22253
884.646	22154
884.772	22116
884.897	22154
885.023	22234
885.148	22265
885.274	22329
885.399	22196
885.524	22166
885.65	22162
885.775	22322
885.9	22143
886.025	22329
886.15	22402
886.275	22226
886.4	22010
886.525	22143
886.65	22200
886.775	22010
886.9	22356
887.025	22405
887.149	22124
887.274	21991
887.399	21968
887.523	21956
887.648	21956
887.773	21930
887.897	22006
888.021	21979
888.146	21873
888.27	21979
888.395	21991
888.519	22017
888.643	21968
888.767	21964
888.891	21903
889.015	21842
889.139	21854
889.263	21781
889.387	21873
889.511	21934
889.635	21926
889.759	21698
889.883	21781
890.006	21736
890.13	21937
890.254	21698
890.377	21686
890.501	21637
890.624	21408
890.748	21545
890.871	21382
890.995	21393
891.118	21359
891.241	21306
891.364	21230
891.488	21504
891.611	21226
891.734	21256
891.857	21405
891.98	21462
892.103	21325
892.226	21367
892.349	21306
892.471	21085
892.594	21199
892.717	21245
892.839	21142
892.962	21142
893.085	21397
893.207	21199
893.33	21112
893.452	21100
893.575	21230
893.697	21211
893.819	21325
893.941	21359
894.064	21317
894.186	21112
894.308	21317
894.43	21237
894.552	21389
894.674	21310
894.796	21112
894.918	21169
895.04	21184
895.161	21230
895.283	21203
895.405	21142
895.526	21161
895.648	21268
895.769	21222
895.891	21176
896.012	21340
896.134	21195
896.255	21131
896.376	21195
896.498	21245
896.619	21180
896.74	21135
896.861	21249
896.982	21473
897.103	21599
897.224	21439
897.345	21332
897.466	21192
897.587	21454
897.708	21477
897.828	21317
897.949	21374
898.07	21169
898.19	21302
898.311	21370
898.431	21348
898.552	21302
898.672	21481
898.792	21488
898.913	21393
899.033	21203
899.153	21184
899.273	21127
899.393	21055
899.513	21169
899.633	21047
899.753	21138
899.873	21074
899.993	21013
900.113	21062
900.232	21047
900.352	21119
900.472	20883
900.591	20944
900.711	20857
900.83	20842
900.95	20998
901.069	21074
901.189	20773
901.308	20564
901.427	20419
901.546	20454
901.665	20495
901.784	20415
901.904	20267
902.023	20218
902.141	20001
902.26	19928
902.379	20020
902.498	19993
902.617	19811
902.735	19970
902.854	19986
902.973	19890
903.091	19613
903.21	19689
903.328	19635
903.446	19556
903.565	19426
903.683	19324
903.801	19168
903.919	19373
904.038	19441
904.156	19187
904.274	19304
904.392	19202
904.51	19217
904.627	19038
904.745	19202
904.863	19285
904.981	18947
905.098	18795
905.216	18776
905.334	18791
905.451	18848
905.569	18817
905.686	18810
905.803	18745
905.921	18563
906.038	18665
906.155	18601
906.272	18517
906.389	18612
906.506	18437
906.623	18448
906.74	18338
906.857	18376
906.974	18254
907.091	18384
907.208	18456
907.324	18429
907.441	18254
907.557	18072
907.674	18102
907.79	18053
907.907	18079
908.023	18053
908.139	18091
908.256	18022
908.372	17969
908.488	17882
908.604	17859
908.72	17771
908.836	17790
908.952	17714
909.068	17840
909.184	17821
909.3	17714
909.415	17771
909.531	17687
909.647	17471
909.762	17467
909.878	17448
909.993	17505
910.108	17368
910.224	17455
910.339	17455
910.454	17383
910.57	17220
910.685	17185
910.8	17505
910.915	17421
911.03	17254
911.145	17109
911.259	17052
911.374	17006
911.489	17022
911.604	16900
911.718	16672
911.833	16793
911.947	16641
912.062	16729
912.176	16847
912.291	16729
912.405	16755
912.519	16923
912.633	16957
912.748	16786
912.862	16740
912.976	16656
913.09	16523
913.204	16508
913.318	16664
913.431	16588
913.545	16618
913.659	16736
913.772	16554
913.886	16291
914	16394
914.113	16398
914.226	16462
914.34	16424
914.453	16226
914.566	16367
914.68	16268
914.793	16204
914.906	16093
915.019	16048
915.132	15934
915.245	15873
915.358	15972
915.47	15915
915.583	15934
915.696	15964
915.809	16086
915.921	16082
916.034	15915
916.146	15854
916.259	15907
916.371	15918
916.483	15850
916.595	15895
916.708	15884
916.82	15682
916.932	15759
917.044	15679
917.156	15762
917.268	15584
917.38	15591
917.491	15519
917.603	15595
917.715	15804
917.826	15663
917.938	15549
918.049	15443
918.161	15523
918.272	15675
918.384	15622
918.495	15553
918.606	15363
918.717	15165
918.828	15351
918.939	15386
919.05	15154
919.161	15310
919.272	15116
919.383	15127
919.494	15302
919.604	15523
919.715	15272
919.826	15169
919.936	15241
920.047	15355
920.157	15340
920.267	15370
920.378	15294
920.488	15237
920.598	15458
920.708	15618
920.818	15386
920.928	15378
921.038	15576
921.148	15538
921.258	15291
921.368	15119
921.477	15108
921.587	14960
921.697	14788
921.806	14906
921.916	14823
922.025	14727
922.134	14610
922.244	14651
922.353	14735
922.462	14412
922.571	14419
922.68	14336
922.789	14259
922.898	14282
923.007	14199
923.116	14286
923.224	14187
923.333	14218
923.442	14187
923.55	14012
923.659	14153
923.767	14191
923.876	14054
923.984	14153
924.092	13890
924.201	14035
924.309	14054
924.417	13947
924.525	13974
924.633	13928
924.741	14686
924.849	13685
924.956	13860
925.064	13685
925.172	13548
925.279	13616
925.387	13731
925.494	13609
925.602	13746
925.709	13738
925.816	13487
925.924	13521
926.031	13811
926.138	13556
926.245	13620
926.352	13419
926.459	13586
926.566	13643
926.673	13426
926.779	13377
926.886	13422
926.993	13247
927.099	13145
927.206	13175
927.312	13122
927.419	13168
927.525	13164
927.631	13152
927.737	13019
927.843	12951
927.95	12905
928.056	12905
928.162	12977
928.267	13012
928.373	13510
928.479	13099
928.585	12848
928.69	12894
928.796	13015
928.901	12798
929.007	12764
929.112	12814
929.218	12837
929.323	12711
929.428	12669
929.533	12833
929.638	12574
929.743	12639
929.848	12669
929.953	12642
930.058	12582
930.163	12353
930.267	12300
930.372	12551
930.477	12251
930.581	12490
930.685	12357
930.79	12296
930.894	12190
930.998	12175
931.103	12452
931.207	12030
931.311	11878
931.415	11851
931.519	11562
931.623	11623
