Data from test_V78500241_3276.txt Node
Date: Fri Mar 25 16:04:29 CST 2022
User: usil
Spectrometer: V785-0024
Trigger mode: 0
Integration Time (sec): 4.000000E-1
Scans to average: 1
Nonlinearity correction enabled: false
Boxcar width: 0
Storing dark spectrum: false
XAxis mode: Wavelengths
Number of Pixels in Spectrum: 1024
>>>>>Begin Spectral Data<<<<<
801.071	28565
801.214	28706
801.356	28360
801.499	28363
801.641	28322
801.783	28196
801.926	28325
802.068	28143
802.211	28169
802.353	28192
802.496	28078
802.638	27869
802.78	27911
802.923	27842
803.065	27682
803.208	27937
803.35	27945
803.492	27895
803.635	28082
803.777	28002
803.919	28059
804.061	28337
804.204	28325
804.346	27964
804.488	28101
804.63	28287
804.773	28029
804.915	28177
805.057	28352
805.199	28074
805.341	28207
805.483	28177
805.626	28200
805.768	28131
805.91	28162
806.052	28360
806.194	28082
806.336	28466
806.478	28440
806.62	28341
806.762	28318
806.904	28626
807.046	28664
807.188	28771
807.33	28763
807.472	28866
807.614	28767
807.756	28694
807.898	28630
808.04	28462
808.182	28428
808.324	28535
808.465	28801
808.607	28831
808.749	28915
808.891	29128
809.033	29124
809.174	29003
809.316	28885
809.458	28972
809.6	28866
809.741	29029
809.883	29197
810.025	29292
810.166	29121
810.308	29220
810.45	29102
810.591	29178
810.733	29022
810.875	29037
811.016	29052
811.158	29048
811.299	29025
811.441	29166
811.582	29094
811.724	28946
811.865	29018
812.007	29048
812.148	29014
812.29	29071
812.431	29071
812.573	29463
812.714	29341
812.855	29429
812.997	29570
813.138	29729
813.279	29585
813.421	29539
813.562	29425
813.703	29265
813.845	29193
813.986	28946
814.127	28820
814.268	28767
814.41	28778
814.551	28729
814.692	28892
814.833	28634
814.974	28729
815.115	28603
815.256	28436
815.397	28569
815.539	28451
815.68	28542
815.821	28405
815.962	28542
816.103	28622
816.244	28382
816.385	28192
816.526	28268
816.666	28093
816.807	28032
816.948	27972
817.089	28051
817.23	27975
817.371	28051
817.512	28055
817.653	28051
817.793	27873
817.934	27869
818.075	27968
818.216	27922
818.356	28093
818.497	27926
818.638	27808
818.778	27751
818.919	27793
819.06	27686
819.2	27823
819.341	28006
819.481	28006
819.622	28128
819.762	28299
819.903	28261
820.043	28303
820.184	28063
820.324	28192
820.465	28124
820.605	28249
820.746	28177
820.886	27922
821.026	27972
821.167	27934
821.307	28154
821.447	28067
821.588	27991
821.728	27861
821.868	27625
822.008	27599
822.149	27340
822.289	27545
822.429	27161
822.569	27211
822.709	27096
822.849	26929
822.99	26952
823.13	27036
823.27	26986
823.41	26929
823.55	26743
823.69	26838
823.83	26663
823.97	26845
824.11	26571
824.25	26648
824.389	26701
824.529	26640
824.669	26727
824.809	26636
824.949	26568
825.089	26796
825.228	26663
825.368	26450
825.508	26469
825.648	26636
825.787	26545
825.927	26564
826.067	26541
826.206	26549
826.346	26522
826.485	26697
826.625	26503
826.765	26670
826.904	26636
827.044	26362
827.183	26286
827.323	26237
827.462	26218
827.601	26244
827.741	26259
827.88	26298
828.02	26054
828.159	26149
828.298	26237
828.437	26202
828.577	26237
828.716	26282
828.855	26092
828.994	25959
829.134	25944
829.273	25978
829.412	25970
829.551	25909
829.69	25852
829.829	25849
829.968	26001
830.107	25944
830.246	26012
830.385	25864
830.524	26005
830.663	25753
830.802	25704
830.941	25586
831.08	25506
831.219	25681
831.357	25605
831.496	25753
831.635	25567
831.774	25464
831.913	25407
832.051	25263
832.19	25441
832.329	25259
832.467	25289
832.606	25148
832.744	25137
832.883	25187
833.022	25198
833.16	25213
833.299	25213
833.437	25301
833.576	25346
833.714	25183
833.852	25331
833.991	25141
834.129	25301
834.267	25301
834.406	25164
834.544	25358
834.682	25335
834.821	25278
834.959	25495
835.097	25236
835.235	25247
835.373	25308
835.511	25278
835.65	25263
835.788	25179
835.926	24954
836.064	25012
836.202	24981
836.34	25061
836.478	25122
836.615	25164
836.753	25015
836.891	25069
837.029	25148
837.167	25023
837.305	24939
837.443	24947
837.58	24886
837.718	25038
837.856	25008
837.993	24795
838.131	24992
838.269	24856
838.406	24806
838.544	24814
838.681	24582
838.819	24631
838.956	24391
839.094	24464
839.231	24426
839.369	24544
839.506	24802
839.643	24608
839.781	24467
839.918	24445
840.055	24445
840.193	24243
840.33	24334
840.467	24414
840.604	24330
840.742	24589
840.879	24277
841.016	24144
841.153	24197
841.29	24296
841.427	24243
841.564	24258
841.701	24270
841.838	24243
841.975	24114
842.112	24216
842.249	24205
842.385	24171
842.522	24247
842.659	24133
842.796	24003
842.933	23980
843.069	24049
843.206	24072
843.343	23988
843.479	24060
843.616	24022
843.752	23988
843.889	23939
844.025	24072
844.162	23855
844.298	23980
844.435	23942
844.571	23779
844.708	23889
844.844	23984
844.98	23965
845.117	23863
845.253	23786
845.389	23684
845.525	23729
845.661	23718
845.798	23535
845.934	23604
846.07	23775
846.206	23585
846.342	23596
846.478	23455
846.614	23387
846.75	23250
846.886	23235
847.022	23433
847.158	23326
847.294	23372
847.429	23421
847.565	23318
847.701	23596
847.837	22987
847.972	23010
848.108	23128
848.244	23159
848.379	22949
848.515	22847
848.65	22862
848.786	22854
848.921	22797
849.057	22984
849.192	23060
849.328	22881
849.463	22877
849.598	22725
849.734	22748
849.869	22748
850.004	22733
850.14	22710
850.275	22687
850.41	22356
850.545	22466
850.68	22733
850.815	22637
850.95	22656
851.085	22892
851.22	22755
851.355	22622
851.49	22592
851.625	22664
851.76	22664
851.895	22519
852.03	22611
852.165	22550
852.299	22634
852.434	22911
852.569	22527
852.703	22805
852.838	22702
852.973	22790
853.107	22755
853.242	22607
853.376	22561
853.511	22299
853.645	22451
853.78	22675
853.914	22379
854.048	22409
854.183	22550
854.317	22500
854.451	22706
854.585	22512
854.72	22481
854.854	22500
854.988	22519
855.122	22512
855.256	22352
855.39	22489
855.524	22626
855.658	22527
855.792	22455
855.926	22459
856.06	22550
856.194	22417
856.327	22375
856.461	22367
856.595	22382
856.729	22516
856.862	22485
856.996	22493
857.13	22443
857.263	22630
857.397	22588
857.53	22394
857.664	22519
857.797	22497
857.931	22504
858.064	22538
858.197	22569
858.331	22554
858.464	22341
858.597	22268
858.731	22474
858.864	22379
858.997	22531
859.13	22440
859.263	22322
859.396	22436
859.529	22322
859.662	22523
859.795	22493
859.928	22497
860.061	22577
860.194	22679
860.327	22478
860.46	22367
860.592	22557
860.725	22656
860.858	22618
860.99	22478
861.123	22371
861.256	22421
861.388	22299
861.521	23292
861.653	22265
861.786	22268
861.918	22272
862.05	22363
862.183	22398
862.315	22382
862.447	22390
862.58	22329
862.712	22131
862.844	22078
862.976	22386
863.108	22318
863.24	22466
863.372	22143
863.504	22299
863.636	22215
863.768	22215
863.9	22154
864.032	22101
864.164	22188
864.296	22238
864.428	22238
864.559	22238
864.691	22363
864.823	22131
864.954	22067
865.086	21975
865.217	22021
865.349	21994
865.48	22002
865.612	22131
865.743	22150
865.875	22204
866.006	22124
866.137	22166
866.269	22082
866.4	22010
866.531	22006
866.662	21869
866.793	21884
866.924	22086
867.055	21998
867.186	22067
867.317	22036
867.448	21831
867.579	21865
867.71	21884
867.841	21800
867.972	22109
868.103	22040
868.233	21880
868.364	21930
868.495	22090
868.625	22249
868.756	22314
868.886	22086
869.017	22166
869.147	22402
869.278	22238
869.408	22169
869.539	22112
869.669	22287
869.799	22234
869.929	22352
870.06	22329
870.19	22485
870.32	22440
870.45	22596
870.58	22634
870.71	22649
870.84	22828
870.97	22653
871.1	22474
871.23	22862
871.36	22683
871.489	22740
871.619	22763
871.749	22908
871.879	22801
872.008	22923
872.138	22812
872.267	22862
872.397	22702
872.526	22645
872.656	22656
872.785	22653
872.915	22790
873.044	22934
873.173	22778
873.303	22908
873.432	22892
873.561	22820
873.69	22831
873.819	22850
873.948	22831
874.077	22835
874.206	22999
874.335	22809
874.464	22915
874.593	23044
874.722	23094
874.851	23147
874.979	23117
875.108	23067
875.237	22976
875.365	23064
875.494	23044
875.623	23064
875.751	23147
875.88	23121
876.008	23155
876.136	23223
876.265	23356
876.393	23459
876.521	23585
876.65	23486
876.778	23505
876.906	23391
877.034	23341
877.162	23429
877.29	23425
877.418	23467
877.546	23360
877.674	23395
877.802	23368
877.93	23455
878.058	23414
878.185	23269
878.313	23212
878.441	23269
878.568	23185
878.696	23372
878.824	23402
878.951	23429
879.079	23501
879.206	23786
879.333	23627
879.461	23368
879.588	23509
879.715	23516
879.842	23611
879.97	23383
880.097	23220
880.224	23170
880.351	23216
880.478	23250
880.605	23098
880.732	23220
880.859	23425
880.986	23200
881.112	23227
881.239	23109
881.366	22968
881.493	22862
881.619	22839
881.746	22710
881.872	22889
881.999	22767
882.125	22736
882.252	22847
882.378	22713
882.505	22839
882.631	22577
882.757	22527
882.883	22672
883.01	22443
883.136	22382
883.262	22265
883.388	22291
883.514	22569
883.64	22504
883.766	22451
883.892	22230
884.018	22268
884.143	22413
884.269	22512
884.395	22196
884.52	22036
884.646	22124
884.772	22158
884.897	22059
885.023	22082
885.148	22158
885.274	22242
885.399	22188
885.524	22109
885.65	21983
885.775	22086
885.9	21972
886.025	22196
886.15	22150
886.275	21972
886.4	21926
886.525	22078
886.65	22147
886.775	21991
886.9	22211
887.025	22219
887.149	22105
887.274	21812
887.399	21766
887.523	21785
887.648	21838
887.773	21804
887.897	21842
888.021	21842
888.146	21755
888.27	21930
888.395	21819
888.519	21865
888.643	21926
888.767	21762
888.891	21778
889.015	21656
889.139	21682
889.263	21610
889.387	21690
889.511	21831
889.635	21770
889.759	21701
889.883	21561
890.006	21629
890.13	21675
890.254	21530
890.377	21641
890.501	21378
890.624	21260
890.748	21298
890.871	21222
890.995	21241
891.118	21157
891.241	21192
891.364	21150
891.488	21275
891.611	21192
891.734	21176
891.857	21226
891.98	21131
892.103	21218
892.226	21135
892.349	20986
892.471	21055
892.594	21116
892.717	21085
892.839	21066
892.962	21150
893.085	21188
893.207	21043
893.33	21024
893.452	20990
893.575	21135
893.697	21013
893.819	21192
893.941	21279
894.064	21241
894.186	20876
894.308	21089
894.43	21157
894.552	21230
894.674	21085
894.796	20933
894.918	21081
895.04	21020
895.161	21131
895.283	21055
895.405	20883
895.526	20994
895.648	20994
895.769	21055
895.891	21024
896.012	21150
896.134	21119
896.255	21192
896.376	21127
896.498	21047
896.619	21055
896.74	21039
896.861	21005
896.982	21367
897.103	21382
897.224	21222
897.345	21180
897.466	21256
897.587	21272
897.708	21370
897.828	21298
897.949	21180
898.07	21195
898.19	21195
898.311	21370
898.431	21116
898.552	21222
898.672	21211
898.792	21401
898.913	21340
899.033	21150
899.153	21020
899.273	20906
899.393	20998
899.513	21039
899.633	21066
899.753	20960
899.873	20918
899.993	20982
900.113	20899
900.232	20891
900.352	20925
900.472	20819
900.591	20712
900.711	20769
900.83	20724
900.95	20857
901.069	20899
901.189	20533
901.308	20522
901.427	20244
901.546	20385
901.665	20419
901.784	20259
901.904	20149
902.023	20103
902.141	19898
902.26	19852
902.379	19936
902.498	19890
902.617	19795
902.735	19811
902.854	19738
902.973	19708
903.091	19441
903.21	19468
903.328	19529
903.446	19518
903.565	19217
903.683	19354
903.801	19099
903.919	19213
904.038	19179
904.156	19122
904.274	19194
904.392	19034
904.51	18947
904.627	18954
904.745	19023
904.863	19065
904.981	18810
905.098	18654
905.216	18696
905.334	18703
905.451	18749
905.569	18646
905.686	18688
905.803	18711
905.921	18502
906.038	18452
906.155	18490
906.272	18433
906.389	18365
906.506	18277
906.623	18174
906.74	18136
906.857	18106
906.974	18243
907.091	18209
907.208	18388
907.324	18216
907.441	18133
907.557	17980
907.674	17942
907.79	17840
907.907	17954
908.023	17942
908.139	17901
908.256	17901
908.372	17783
908.488	17802
908.604	17710
908.72	17699
908.836	17680
908.952	17558
909.068	17634
909.184	17707
909.3	17592
909.415	17615
909.531	17600
909.647	17318
909.762	17292
909.878	17345
909.993	17250
910.108	17360
910.224	17261
910.339	17273
910.454	17292
910.57	17136
910.685	17121
910.8	17368
910.915	17159
911.03	16987
911.145	16911
911.259	16908
911.374	16991
911.489	16850
911.604	16900
911.718	16634
911.833	16634
911.947	16561
912.062	16561
912.176	16618
912.291	16672
912.405	16577
912.519	16862
912.633	16915
912.748	16679
912.862	16592
912.976	16531
913.09	16318
913.204	16474
913.318	16489
913.431	16519
913.545	16508
913.659	16615
913.772	16428
913.886	16265
914	16318
914.113	16337
914.226	16363
914.34	16196
914.453	16166
914.566	16291
914.68	16188
914.793	16124
914.906	15998
915.019	15838
915.132	15911
915.245	15880
915.358	15880
915.47	15865
915.583	15842
915.696	15884
915.809	15945
915.921	15979
916.034	15694
916.146	15793
916.259	15713
916.371	15922
916.483	15732
916.595	15728
916.708	15675
916.82	15717
916.932	15633
917.044	15637
917.156	15580
917.268	15564
917.38	15526
917.491	15450
917.603	15523
917.715	15469
917.826	15477
917.938	15405
918.049	15329
918.161	15405
918.272	15530
918.384	15637
918.495	15485
918.606	15211
918.717	15180
918.828	15317
918.939	15310
919.05	15066
919.161	15112
919.272	15009
919.383	15066
919.494	15287
919.604	15310
919.715	15264
919.826	15081
919.936	15157
920.047	15260
920.157	15199
920.267	15256
920.378	15142
920.488	15146
920.598	15336
920.708	15374
920.818	15416
920.928	15275
921.038	15382
921.148	15344
921.258	15104
921.368	14849
921.477	14895
921.587	14880
921.697	14807
921.806	14891
921.916	14735
922.025	14621
922.134	14549
922.244	14556
922.353	14632
922.462	14442
922.571	14377
922.68	14237
922.789	14218
922.898	14183
923.007	14073
923.116	14187
923.224	14180
923.333	14107
923.442	13978
923.55	14020
923.659	14088
923.767	13993
923.876	13963
923.984	14050
924.092	13841
924.201	13883
924.309	13898
924.417	13921
924.525	13814
924.633	13833
924.741	14579
924.849	13681
924.956	13639
925.064	13620
925.172	13495
925.279	13514
925.387	13480
925.494	13480
925.602	13674
925.709	13639
925.816	13430
925.924	13499
926.031	13620
926.138	13438
926.245	13453
926.352	13343
926.459	13533
926.566	13518
926.673	13449
926.779	13346
926.886	13293
926.993	13175
927.099	13088
927.206	13122
927.312	13076
927.419	13069
927.525	13156
927.631	13015
927.737	12970
927.843	12882
927.95	12760
928.056	12897
928.162	12901
928.267	12909
928.373	13537
928.479	12916
928.585	12635
928.69	12871
928.796	12890
928.901	12711
929.007	12639
929.112	12753
929.218	12623
929.323	12574
929.428	12555
929.533	12635
929.638	12597
929.743	12540
929.848	12620
929.953	12506
930.058	12433
930.163	12254
930.267	12365
930.372	12414
930.477	12323
930.581	12429
930.685	12369
930.79	12133
930.894	12159
930.998	12144
931.103	12228
931.207	11908
931.311	11893
931.415	11786
931.519	11543
931.623	11615
