Data from test_V78500241_1278.txt Node
Date: Fri Mar 25 15:50:39 CST 2022
User: usil
Spectrometer: V785-0024
Trigger mode: 0
Integration Time (sec): 4.000000E-1
Scans to average: 1
Nonlinearity correction enabled: false
Boxcar width: 0
Storing dark spectrum: false
XAxis mode: Wavelengths
Number of Pixels in Spectrum: 1024
>>>>>Begin Spectral Data<<<<<
801.071	28219
801.214	27895
801.356	27732
801.499	27694
801.641	27572
801.783	27545
801.926	27606
802.068	27610
802.211	27610
802.353	27363
802.496	27321
802.638	27241
802.78	27226
802.923	27233
803.065	27146
803.208	27096
803.35	27161
803.492	27386
803.635	27279
803.777	27298
803.919	27454
804.061	27728
804.204	27458
804.346	27283
804.488	27298
804.63	27340
804.773	27329
804.915	27348
805.057	27481
805.199	27427
805.341	27386
805.483	27652
805.626	27606
805.768	27431
805.91	27606
806.052	27485
806.194	27348
806.336	27690
806.478	27542
806.62	27458
806.762	27679
806.904	27797
807.046	27987
807.188	27869
807.33	27991
807.472	28029
807.614	27831
807.756	27865
807.898	27899
808.04	27865
808.182	27880
808.324	27880
808.465	27850
808.607	28090
808.749	28173
808.891	28291
809.033	28382
809.174	28112
809.316	28131
809.458	28246
809.6	28082
809.741	28455
809.883	28474
810.025	28371
810.166	28390
810.308	28592
810.45	28497
810.591	28447
810.733	28093
810.875	28150
811.016	28070
811.158	28097
811.299	28390
811.441	28325
811.582	28287
811.724	28082
811.865	28181
812.007	28143
812.148	28226
812.29	28295
812.431	28379
812.573	28508
812.714	28679
812.855	28599
812.997	28717
813.138	28820
813.279	28797
813.421	28767
813.562	28691
813.703	28577
813.845	28322
813.986	28097
814.127	28051
814.268	27975
814.41	28010
814.551	27759
814.692	27934
814.833	27846
814.974	27865
815.115	27914
815.256	27705
815.397	27823
815.539	27816
815.68	27743
815.821	27663
815.962	27701
816.103	27736
816.244	27568
816.385	27405
816.526	27545
816.666	27207
816.807	27184
816.948	27313
817.089	27275
817.23	27131
817.371	27100
817.512	27233
817.653	27157
817.793	27161
817.934	27074
818.075	27283
818.216	27218
818.356	27127
818.497	27138
818.638	26960
818.778	26845
818.919	26823
819.06	26902
819.2	27024
819.341	27199
819.481	27188
819.622	27233
819.762	27534
819.903	27439
820.043	27306
820.184	27230
820.324	27298
820.465	27408
820.605	27351
820.746	27237
820.886	27157
821.026	27188
821.167	27237
821.307	27241
821.447	27230
821.588	27150
821.728	26990
821.868	26762
822.008	26708
822.149	26625
822.289	26606
822.429	26385
822.569	26221
822.709	26298
822.849	26138
822.99	26195
823.13	26134
823.27	26122
823.41	26058
823.55	25879
823.69	26043
823.83	26035
823.97	26043
824.11	25704
824.25	25635
824.389	25807
824.529	25982
824.669	25795
824.809	25868
824.949	25951
825.089	25913
825.228	25890
825.368	25578
825.508	25704
825.648	25674
825.787	25708
825.927	25727
826.067	25708
826.206	25677
826.346	25597
826.485	25712
826.625	25696
826.765	25666
826.904	25643
827.044	25499
827.183	25335
827.323	25476
827.462	25384
827.601	25369
827.741	25365
827.88	25266
828.02	25255
828.159	25251
828.298	25350
828.437	25422
828.577	25289
828.716	25422
828.855	25152
828.994	25164
829.134	24932
829.273	25012
829.412	25019
829.551	25103
829.69	25000
829.829	25038
829.968	25168
830.107	25053
830.246	25023
830.385	24992
830.524	24913
830.663	24890
830.802	24882
830.941	24787
831.08	24661
831.219	24722
831.357	24787
831.496	24859
831.635	24631
831.774	24608
831.913	24547
832.051	24517
832.19	24464
832.329	24441
832.467	24342
832.606	24388
832.744	24338
832.883	24327
833.022	24338
833.16	24369
833.299	24262
833.437	24262
833.576	24509
833.714	24376
833.852	24448
833.991	24350
834.129	24494
834.267	24551
834.406	24467
834.544	24464
834.682	24369
834.821	24391
834.959	24536
835.097	24327
835.235	24563
835.373	24388
835.511	24494
835.65	24266
835.788	24254
835.926	24102
836.064	23996
836.202	24079
836.34	24266
836.478	24258
836.615	24171
836.753	24155
836.891	24369
837.029	24186
837.167	24209
837.305	24129
837.443	24117
837.58	24003
837.718	23992
837.856	24015
837.993	23954
838.131	24133
838.269	23901
838.406	23984
838.544	23912
838.681	23741
838.819	23562
838.956	23581
839.094	23642
839.231	23516
839.369	23653
839.506	23961
839.643	23752
839.781	23627
839.918	23505
840.055	23520
840.193	23642
840.33	23539
840.467	23505
840.604	23581
840.742	23859
840.879	23379
841.016	23425
841.153	23417
841.29	23577
841.427	23551
841.564	23539
841.701	23383
841.838	23353
841.975	23410
842.112	23372
842.249	23254
842.385	23318
842.522	23467
842.659	23356
842.796	23200
842.933	23113
843.069	23140
843.206	23083
843.343	23311
843.479	23208
843.616	23235
843.752	23044
843.889	23037
844.025	23178
844.162	23014
844.298	23029
844.435	22892
844.571	22987
844.708	23033
844.844	23197
844.98	23162
845.117	23140
845.253	22965
845.389	22942
845.525	22858
845.661	22809
845.798	22820
845.934	22896
846.07	22801
846.206	22733
846.342	22850
846.478	22694
846.614	22584
846.75	22462
846.886	22573
847.022	22588
847.158	22508
847.294	22462
847.429	22523
847.565	22611
847.701	22691
847.837	22306
847.972	22325
848.108	22318
848.244	22192
848.379	22116
848.515	22029
848.65	22006
848.786	22010
848.921	22124
849.057	22234
849.192	22013
849.328	22013
849.463	22010
849.598	22078
849.734	21926
849.869	21953
850.004	21797
850.14	21926
850.275	21819
850.41	21842
850.545	21774
850.68	21705
850.815	21956
850.95	21739
851.085	21956
851.22	21937
851.355	21835
851.49	21770
851.625	21861
851.76	21865
851.895	21671
852.03	21781
852.165	21895
852.299	21827
852.434	21945
852.569	21903
852.703	21800
852.838	21774
852.973	21998
853.107	21880
853.242	21816
853.376	21675
853.511	21557
853.645	21641
853.78	21766
853.914	21656
854.048	21534
854.183	21667
854.317	21808
854.451	21812
854.585	21614
854.72	21720
854.854	21603
854.988	21450
855.122	21663
855.256	21488
855.39	21564
855.524	21679
855.658	21625
855.792	21690
855.926	21637
856.06	21682
856.194	21793
856.327	21614
856.461	21542
856.595	21591
856.729	21538
856.862	21774
856.996	21587
857.13	21743
857.263	21739
857.397	21781
857.53	21557
857.664	21751
857.797	21778
857.931	21739
858.064	21705
858.197	21751
858.331	21538
858.464	21679
858.597	21500
858.731	21557
858.864	21526
858.997	21583
859.13	21751
859.263	21622
859.396	21709
859.529	21705
859.662	21599
859.795	21515
859.928	21644
860.061	21816
860.194	21713
860.327	21785
860.46	21557
860.592	21747
860.725	21743
860.858	21709
860.99	21846
861.123	21576
861.256	21530
861.388	21561
861.521	22226
861.653	21542
861.786	21401
861.918	21523
862.05	21500
862.183	21553
862.315	21667
862.447	21595
862.58	21694
862.712	21405
862.844	21325
862.976	21454
863.108	21473
863.24	21709
863.372	21370
863.504	21260
863.636	21325
863.768	21466
863.9	21355
864.032	21287
864.164	21272
864.296	21370
864.428	21348
864.559	21458
864.691	21420
864.823	21340
864.954	21321
865.086	21294
865.217	21275
865.349	21154
865.48	21157
865.612	21294
865.743	21431
865.875	21218
866.006	21272
866.137	21142
866.269	21268
866.4	21199
866.531	21226
866.662	21142
866.793	21264
866.924	21192
867.055	21188
867.186	21283
867.317	21089
867.448	21077
867.579	21176
867.71	21093
867.841	20975
867.972	21207
868.103	21157
868.233	21138
868.364	21184
868.495	21291
868.625	21424
868.756	21542
868.886	21397
869.017	21435
869.147	21583
869.278	21641
869.408	21298
869.539	21386
869.669	21542
869.799	21564
869.929	21580
870.06	21564
870.19	21667
870.32	21732
870.45	21652
870.58	21720
870.71	21975
870.84	21903
870.97	21755
871.1	21785
871.23	21945
871.36	22025
871.489	21892
871.619	21949
871.749	22051
871.879	22112
872.008	21994
872.138	22059
872.267	21991
872.397	21880
872.526	21876
872.656	21888
872.785	21907
872.915	22051
873.044	22181
873.173	22074
873.303	22010
873.432	22059
873.561	22101
873.69	22040
873.819	22055
873.948	22006
874.077	22055
874.206	22006
874.335	22063
874.464	22135
874.593	22192
874.722	22040
874.851	22276
874.979	22272
875.108	22367
875.237	22219
875.365	22135
875.494	22135
875.623	22306
875.751	22219
875.88	22314
876.008	22455
876.136	22440
876.265	22641
876.393	22782
876.521	22691
876.65	22839
876.778	22554
876.906	22573
877.034	22550
877.162	22523
877.29	22527
877.418	22565
877.546	22618
877.674	22626
877.802	22588
877.93	22577
878.058	22668
878.185	22497
878.313	22538
878.441	22592
878.568	22508
878.696	22546
878.824	22557
878.951	22744
879.079	22713
879.206	22843
879.333	22706
879.461	22603
879.588	22599
879.715	22710
879.842	22778
879.97	22637
880.097	22455
880.224	22455
880.351	22519
880.478	22459
880.605	22360
880.732	22318
880.859	22668
880.986	22485
881.112	22451
881.239	22344
881.366	22109
881.493	22059
881.619	21968
881.746	21979
881.872	21907
881.999	21960
882.125	22002
882.252	22006
882.378	21979
882.505	22109
882.631	21991
882.757	21652
882.883	21743
883.01	21667
883.136	21660
883.262	21466
883.388	21435
883.514	21838
883.64	21751
883.766	21564
883.892	21481
884.018	21534
884.143	21610
884.269	21770
884.395	21332
884.52	21249
884.646	21332
884.772	21226
884.897	21199
885.023	21310
885.148	21256
885.274	21336
885.399	21344
885.524	21294
885.65	21214
885.775	21370
885.9	21298
886.025	21386
886.15	21428
886.275	21233
886.4	21184
886.525	21272
886.65	21123
886.775	21302
886.9	21351
887.025	21466
887.149	21291
887.274	21218
887.399	21093
887.523	21165
887.648	21081
887.773	20914
887.897	21176
888.021	21154
888.146	21009
888.27	21199
888.395	21180
888.519	21116
888.643	21161
888.767	21211
888.891	20921
889.015	20960
889.139	20952
889.263	20826
889.387	20914
889.511	21161
889.635	21066
889.759	20762
889.883	20944
890.006	20910
890.13	21017
890.254	20804
890.377	20743
890.501	20629
890.624	20530
890.748	20594
890.871	20503
890.995	20389
891.118	20336
891.241	20423
891.364	20564
891.488	20606
891.611	20423
891.734	20412
891.857	20575
891.98	20377
892.103	20522
892.226	20560
892.349	20366
892.471	20244
892.594	20229
892.717	20457
892.839	20301
892.962	20438
893.085	20385
893.207	20309
893.33	20263
893.452	20286
893.575	20419
893.697	20301
893.819	20530
893.941	20621
894.064	20492
894.186	20286
894.308	20278
894.43	20488
894.552	20495
894.674	20366
894.796	20214
894.918	20324
895.04	20355
895.161	20347
895.283	20339
895.405	20252
895.526	20206
895.648	20172
895.769	20381
895.891	20393
896.012	20469
896.134	20366
896.255	20282
896.376	20286
896.498	20355
896.619	20336
896.74	20313
896.861	20290
896.982	20621
897.103	20777
897.224	20621
897.345	20693
897.466	20590
897.587	20644
897.708	20511
897.828	20602
897.949	20609
898.07	20400
898.19	20499
898.311	20613
898.431	20454
898.552	20511
898.672	20629
898.792	20655
898.913	20507
899.033	20526
899.153	20427
899.273	20313
899.393	20324
899.513	20355
899.633	20195
899.753	20324
899.873	20267
899.993	20320
900.113	20309
900.232	20248
900.352	20233
900.472	20058
900.591	20001
900.711	20092
900.83	20035
900.95	20214
901.069	20119
901.189	20039
901.308	19772
901.427	19708
901.546	19719
901.665	19769
901.784	19738
901.904	19548
902.023	19449
902.141	19221
902.26	19129
902.379	19255
902.498	19206
902.617	19168
902.735	19190
902.854	19164
902.973	19148
903.091	18875
903.21	18825
903.328	18859
903.446	18578
903.565	18623
903.683	18757
903.801	18525
903.919	18536
904.038	18665
904.156	18517
904.274	18452
904.392	18319
904.51	18369
904.627	18319
904.745	18407
904.863	18429
904.981	18091
905.098	17988
905.216	18041
905.334	18060
905.451	18026
905.569	18041
905.686	18106
905.803	18019
905.921	17908
906.038	17939
906.155	17893
906.272	17722
906.389	17783
906.506	17562
906.623	17680
906.74	17558
906.857	17596
906.974	17524
907.091	17646
907.208	17718
907.324	17604
907.441	17497
907.557	17368
907.674	17406
907.79	17231
907.907	17364
908.023	17353
908.139	17280
908.256	17200
908.372	17197
908.488	17208
908.604	17056
908.72	17124
908.836	17132
908.952	16984
909.068	17086
909.184	17174
909.3	17102
909.415	16995
909.531	17014
909.647	16847
909.762	16793
909.878	16664
909.993	16713
910.108	16679
910.224	16748
910.339	16805
910.454	16599
910.57	16500
910.685	16504
910.8	16828
910.915	16740
911.03	16504
911.145	16352
911.259	16265
911.374	16200
911.489	16280
911.604	16268
911.718	16090
911.833	16097
911.947	15994
912.062	15926
912.176	16013
912.291	16128
912.405	16109
912.519	16181
912.633	16280
912.748	16158
912.862	16128
912.976	15888
913.09	15778
913.204	15854
913.318	15831
913.431	15972
913.545	15975
913.659	15865
913.772	15797
913.886	15766
914	15701
914.113	15846
914.226	15717
914.34	15717
914.453	15599
914.566	15633
914.68	15690
914.793	15526
914.906	15405
915.019	15340
915.132	15313
915.245	15294
915.358	15374
915.47	15351
915.583	15230
915.696	15428
915.809	15420
915.921	15447
916.034	15249
916.146	15279
916.259	15214
916.371	15344
916.483	15241
916.595	15123
916.708	15165
916.82	15097
916.932	15093
917.044	15180
917.156	15097
917.268	14971
917.38	15024
917.491	14883
917.603	14906
917.715	15024
917.826	15085
917.938	14910
918.049	14899
918.161	14914
918.272	15116
918.384	15009
918.495	14902
918.606	14800
918.717	14686
918.828	14746
918.939	14655
919.05	14697
919.161	14716
919.272	14514
919.383	14571
919.494	14781
919.604	14914
919.715	14667
919.826	14651
919.936	14716
920.047	14754
920.157	14678
920.267	14861
920.378	14575
920.488	14651
920.598	14826
920.708	14963
920.818	14773
920.928	14880
921.038	14910
921.148	14933
921.258	14594
921.368	14610
921.477	14454
921.587	14374
921.697	14240
921.806	14423
921.916	14214
922.025	14115
922.134	14115
922.244	14081
922.353	14100
922.462	13864
922.571	13909
922.68	13746
922.789	13693
922.898	13723
923.007	13700
923.116	13757
923.224	13719
923.333	13677
923.442	13613
923.55	13483
923.659	13575
923.767	13708
923.876	13476
923.984	13491
924.092	13400
924.201	13514
924.309	13457
924.417	13373
924.525	13392
924.633	13449
924.741	14343
924.849	13137
924.956	13312
925.064	13209
925.172	13076
925.279	13118
925.387	13160
925.494	13156
925.602	13244
925.709	13122
925.816	12970
925.924	13164
926.031	13069
926.138	12985
926.245	13061
926.352	13069
926.459	13038
926.566	13065
926.673	13004
926.779	12779
926.886	12928
926.993	12654
927.099	12753
927.206	12623
927.312	12574
927.419	12627
927.525	12654
927.631	12662
927.737	12559
927.843	12509
927.95	12456
928.056	12532
928.162	12513
928.267	12570
928.373	12985
928.479	12456
928.585	12342
928.69	12399
928.796	12483
928.901	12296
929.007	12258
929.112	12384
929.218	12304
929.323	12266
929.428	12155
929.533	12334
929.638	12163
929.743	12190
929.848	12247
929.953	12228
930.058	11950
930.163	11783
930.267	11870
930.372	12087
930.477	11828
930.581	12091
930.685	11863
930.79	11794
930.894	11832
930.998	11703
931.103	11958
931.207	11478
931.311	11452
931.415	11414
931.519	11189
931.623	11136
