Data from test_V78500241_1377.txt Node
Date: Fri Mar 25 15:51:20 CST 2022
User: usil
Spectrometer: V785-0024
Trigger mode: 0
Integration Time (sec): 4.000000E-1
Scans to average: 1
Nonlinearity correction enabled: false
Boxcar width: 0
Storing dark spectrum: false
XAxis mode: Wavelengths
Number of Pixels in Spectrum: 1024
>>>>>Begin Spectral Data<<<<<
801.071	27960
801.214	27956
801.356	27907
801.499	27667
801.641	27637
801.783	27473
801.926	27660
802.068	27530
802.211	27416
802.353	27382
802.496	27184
802.638	27359
802.78	27249
802.923	27142
803.065	27211
803.208	27127
803.35	27211
803.492	27393
803.635	27427
803.777	27412
803.919	27359
804.061	27679
804.204	27538
804.346	27268
804.488	27355
804.63	27439
804.773	27351
804.915	27374
805.057	27599
805.199	27306
805.341	27526
805.483	27599
805.626	27504
805.768	27603
805.91	27580
806.052	27629
806.194	27485
806.336	27698
806.478	27568
806.62	27610
806.762	27667
806.904	27857
807.046	28010
807.188	27949
807.33	28006
807.472	28032
807.614	27964
807.756	28006
807.898	27819
808.04	27778
808.182	27759
808.324	27823
808.465	27907
808.607	28223
808.749	28226
808.891	28154
809.033	28322
809.174	28356
809.316	28204
809.458	28291
809.6	28169
809.741	28367
809.883	28341
810.025	28599
810.166	28512
810.308	28356
810.45	28523
810.591	28459
810.733	28242
810.875	28112
811.016	28280
811.158	28063
811.299	28284
811.441	28386
811.582	28375
811.724	28169
811.865	28192
812.007	28344
812.148	28185
812.29	28238
812.431	28363
812.573	28531
812.714	28706
812.855	28729
812.997	28828
813.138	28869
813.279	28881
813.421	28892
813.562	28672
813.703	28599
813.845	28481
813.986	28135
814.127	27934
814.268	27899
814.41	27888
814.551	27838
814.692	27934
814.833	27911
814.974	27857
815.115	27876
815.256	27774
815.397	27762
815.539	27751
815.68	27781
815.821	27625
815.962	27747
816.103	27739
816.244	27629
816.385	27568
816.526	27500
816.666	27348
816.807	27180
816.948	27237
817.089	27310
817.23	27264
817.371	27268
817.512	27146
817.653	27108
817.793	27077
817.934	27313
818.075	27226
818.216	27211
818.356	27291
818.497	27043
818.638	26952
818.778	26944
818.919	26918
819.06	27001
819.2	27020
819.341	27230
819.481	27233
819.622	27351
819.762	27511
819.903	27481
820.043	27431
820.184	27268
820.324	27313
820.465	27310
820.605	27287
820.746	27344
820.886	27294
821.026	27332
821.167	27344
821.307	27355
821.447	27154
821.588	27245
821.728	26914
821.868	26834
822.008	26788
822.149	26686
822.289	26678
822.429	26324
822.569	26385
822.709	26305
822.849	26122
822.99	26183
823.13	26248
823.27	26081
823.41	26043
823.55	26016
823.69	25986
823.83	26096
823.97	26043
824.11	25822
824.25	25742
824.389	25799
824.529	25955
824.669	25757
824.809	25951
824.949	25947
825.089	25913
825.228	25849
825.368	25807
825.508	25795
825.648	25639
825.787	25776
825.927	25830
826.067	25700
826.206	25723
826.346	25833
826.485	25811
826.625	25696
826.765	25761
826.904	25708
827.044	25491
827.183	25377
827.323	25422
827.462	25506
827.601	25434
827.741	25472
827.88	25453
828.02	25293
828.159	25438
828.298	25479
828.437	25510
828.577	25556
828.716	25472
828.855	25388
828.994	25148
829.134	25091
829.273	24939
829.412	25110
829.551	25061
829.69	25042
829.829	25164
829.968	25217
830.107	25175
830.246	25171
830.385	25190
830.524	25110
830.663	24848
830.802	24996
830.941	24635
831.08	24627
831.219	24920
831.357	24700
831.496	24947
831.635	24658
831.774	24612
831.913	24593
832.051	24574
832.19	24498
832.329	24555
832.467	24498
832.606	24429
832.744	24330
832.883	24414
833.022	24285
833.16	24456
833.299	24426
833.437	24433
833.576	24544
833.714	24350
833.852	24574
833.991	24464
834.129	24467
834.267	24471
834.406	24452
834.544	24471
834.682	24460
834.821	24403
834.959	24502
835.097	24384
835.235	24513
835.373	24330
835.511	24414
835.65	24270
835.788	24365
835.926	24163
836.064	24057
836.202	24270
836.34	24296
836.478	24270
836.615	24266
836.753	24266
836.891	24380
837.029	24152
837.167	24102
837.305	24243
837.443	24060
837.58	24045
837.718	24152
837.856	24091
837.993	24049
838.131	24068
838.269	23961
838.406	24003
838.544	23954
838.681	23847
838.819	23653
838.956	23543
839.094	23619
839.231	23634
839.369	23630
839.506	23813
839.643	23775
839.781	23547
839.918	23497
840.055	23566
840.193	23482
840.33	23665
840.467	23547
840.604	23691
840.742	23866
840.879	23303
841.016	23372
841.153	23543
841.29	23543
841.427	23414
841.564	23471
841.701	23486
841.838	23486
841.975	23353
842.112	23459
842.249	23258
842.385	23288
842.522	23531
842.659	23250
842.796	23322
842.933	23197
843.069	23197
843.206	23185
843.343	23345
843.479	23178
843.616	23162
843.752	23056
843.889	23117
844.025	23037
844.162	22995
844.298	23064
844.435	23025
844.571	22896
844.708	23029
844.844	23090
844.98	23155
845.117	23140
845.253	23079
845.389	22957
845.525	22923
845.661	22930
845.798	22706
845.934	22736
846.07	22744
846.206	22839
846.342	22873
846.478	22687
846.614	22599
846.75	22398
846.886	22466
847.022	22611
847.158	22557
847.294	22440
847.429	22531
847.565	22497
847.701	22771
847.837	22299
847.972	22143
848.108	22242
848.244	22306
848.379	22040
848.515	22131
848.65	22116
848.786	22097
848.921	22158
849.057	22029
849.192	22173
849.328	22143
849.463	22154
849.598	22055
849.734	21991
849.869	21960
850.004	21888
850.14	21850
850.275	21888
850.41	21789
850.545	21724
850.68	21876
850.815	21819
850.95	21770
851.085	21994
851.22	21922
851.355	21876
851.49	21857
851.625	21785
851.76	21739
851.895	21717
852.03	21846
852.165	21941
852.299	21888
852.434	21930
852.569	21846
852.703	21823
852.838	21922
852.973	21850
853.107	21884
853.242	21724
853.376	21614
853.511	21557
853.645	21755
853.78	21713
853.914	21705
854.048	21564
854.183	21663
854.317	21709
854.451	21865
854.585	21682
854.72	21690
854.854	21759
854.988	21530
855.122	21610
855.256	21564
855.39	21564
855.524	21694
855.658	21705
855.792	21713
855.926	21648
856.06	21732
856.194	21755
856.327	21675
856.461	21618
856.595	21622
856.729	21633
856.862	21827
856.996	21732
857.13	21747
857.263	21880
857.397	21751
857.53	21675
857.664	21781
857.797	21671
857.931	21732
858.064	21804
858.197	21732
858.331	21530
858.464	21515
858.597	21443
858.731	21652
858.864	21523
858.997	21652
859.13	21705
859.263	21709
859.396	21808
859.529	21663
859.662	21633
859.795	21606
859.928	21728
860.061	21903
860.194	21911
860.327	21705
860.46	21701
860.592	21770
860.725	21835
860.858	21755
860.99	21652
861.123	21644
861.256	21564
861.388	21606
861.521	22462
861.653	21488
861.786	21389
861.918	21454
862.05	21519
862.183	21507
862.315	21652
862.447	21648
862.58	21557
862.712	21283
862.844	21310
862.976	21431
863.108	21344
863.24	21964
863.372	21359
863.504	21412
863.636	21431
863.768	21359
863.9	21454
864.032	21389
864.164	21279
864.296	21408
864.428	21454
864.559	21401
864.691	21393
864.823	21374
864.954	21454
865.086	21397
865.217	21272
865.349	21123
865.48	21287
865.612	21287
865.743	21401
865.875	21214
866.006	21218
866.137	21351
866.269	21214
866.4	21207
866.531	21287
866.662	21116
866.793	21291
866.924	21096
867.055	21214
867.186	21245
867.317	21161
867.448	21150
867.579	21108
867.71	21058
867.841	21043
867.972	21256
868.103	21165
868.233	21184
868.364	21256
868.495	21211
868.625	21348
868.756	21359
868.886	21378
869.017	21363
869.147	21477
869.278	21507
869.408	21477
869.539	21382
869.669	21466
869.799	21408
869.929	21443
870.06	21568
870.19	21778
870.32	21762
870.45	21816
870.58	21774
870.71	21953
870.84	21934
870.97	21755
871.1	21842
871.23	21968
871.36	21949
871.489	22051
871.619	22025
871.749	22116
871.879	22097
872.008	22093
872.138	22036
872.267	22101
872.397	21903
872.526	21892
872.656	21838
872.785	21861
872.915	22048
873.044	22074
873.173	22093
873.303	22025
873.432	22158
873.561	22215
873.69	22135
873.819	21934
873.948	22181
874.077	22086
874.206	21987
874.335	22006
874.464	22234
874.593	22234
874.722	22177
874.851	22325
874.979	22253
875.108	22284
875.237	22246
875.365	22188
875.494	22318
875.623	22154
875.751	22287
875.88	22337
876.008	22386
876.136	22405
876.265	22565
876.393	22786
876.521	22778
876.65	22763
876.778	22603
876.906	22580
877.034	22497
877.162	22493
877.29	22531
877.418	22573
877.546	22577
877.674	22637
877.802	22630
877.93	22550
878.058	22516
878.185	22569
878.313	22596
878.441	22668
878.568	22322
878.696	22561
878.824	22588
878.951	22744
879.079	22858
879.206	22858
879.333	22687
879.461	22542
879.588	22653
879.715	22767
879.842	22782
879.97	22725
880.097	22424
880.224	22455
880.351	22523
880.478	22546
880.605	22455
880.732	22379
880.859	22691
880.986	22504
881.112	22451
881.239	22253
881.366	22284
881.493	22116
881.619	22025
881.746	22131
881.872	22097
881.999	21994
882.125	21941
882.252	22086
882.378	21953
882.505	22162
882.631	21926
882.757	21755
882.883	21838
883.01	21660
883.136	21534
883.262	21500
883.388	21542
883.514	21762
883.64	21743
883.766	21701
883.892	21443
884.018	21477
884.143	21755
884.269	21667
884.395	21408
884.52	21329
884.646	21321
884.772	21359
884.897	21241
885.023	21389
885.148	21378
885.274	21374
885.399	21378
885.524	21306
885.65	21374
885.775	21405
885.9	21325
886.025	21477
886.15	21485
886.275	21302
886.4	21195
886.525	21355
886.65	21332
886.775	21336
886.9	21382
887.025	21553
887.149	21268
887.274	21173
887.399	21096
887.523	21116
887.648	21058
887.773	21013
887.897	21211
888.021	21150
888.146	21119
888.27	21138
888.395	21169
888.519	21135
888.643	21252
888.767	21154
888.891	21028
889.015	20902
889.139	20864
889.263	20883
889.387	20902
889.511	21104
889.635	21036
889.759	20773
889.883	20853
890.006	20769
890.13	21085
890.254	20880
890.377	20933
890.501	20621
890.624	20590
890.748	20701
890.871	20545
890.995	20423
891.118	20385
891.241	20484
891.364	20438
891.488	20431
891.611	20518
891.734	20648
891.857	20533
891.98	20530
892.103	20549
892.226	20560
892.349	20457
892.471	20278
892.594	20320
892.717	20374
892.839	20389
892.962	20423
893.085	20545
893.207	20317
893.33	20351
893.452	20275
893.575	20431
893.697	20351
893.819	20492
893.941	20522
894.064	20454
894.186	20343
894.308	20309
894.43	20412
894.552	20609
894.674	20412
894.796	20294
894.918	20442
895.04	20229
895.161	20454
895.283	20446
895.405	20358
895.526	20343
895.648	20389
895.769	20377
895.891	20317
896.012	20511
896.134	20343
896.255	20358
896.376	20427
896.498	20393
896.619	20473
896.74	20298
896.861	20366
896.982	20716
897.103	20906
897.224	20629
897.345	20495
897.466	20461
897.587	20518
897.708	20648
897.828	20651
897.949	20518
898.07	20431
898.19	20549
898.311	20716
898.431	20594
898.552	20613
898.672	20609
898.792	20720
898.913	20606
899.033	20419
899.153	20415
899.273	20324
899.393	20309
899.513	20393
899.633	20351
899.753	20362
899.873	20267
899.993	20298
900.113	20248
900.232	20408
900.352	20244
900.472	20237
900.591	20153
900.711	20161
900.83	20145
900.95	20081
901.069	20275
901.189	19894
901.308	19830
901.427	19738
901.546	19708
901.665	19784
901.784	19860
901.904	19518
902.023	19358
902.141	19365
902.26	19202
902.379	19384
902.498	19171
902.617	19061
902.735	19145
902.854	19076
902.973	19069
903.091	18905
903.21	18916
903.328	18791
903.446	18665
903.565	18585
903.683	18681
903.801	18601
903.919	18631
904.038	18635
904.156	18414
904.274	18334
904.392	18414
904.51	18353
904.627	18399
904.745	18517
904.863	18464
904.981	18224
905.098	18133
905.216	18053
905.334	18159
905.451	18171
905.569	18076
905.686	18022
905.803	18102
905.921	17828
906.038	17950
906.155	17832
906.272	17729
906.389	17783
906.506	17611
906.623	17676
906.74	17539
906.857	17558
906.974	17596
907.091	17630
907.208	17748
907.324	17585
907.441	17440
907.557	17433
907.674	17387
907.79	17288
907.907	17353
908.023	17414
908.139	17315
908.256	17345
908.372	17216
908.488	17216
908.604	17109
908.72	17041
908.836	17075
908.952	16968
909.068	17022
909.184	17117
909.3	16995
909.415	17124
909.531	17048
909.647	16889
909.762	16641
909.878	16748
909.993	16828
910.108	16748
910.224	16656
910.339	16664
910.454	16630
910.57	16645
910.685	16459
910.8	16774
910.915	16675
911.03	16618
911.145	16379
911.259	16451
911.374	16352
911.489	16219
911.604	16291
911.718	16105
911.833	16131
911.947	16074
912.062	15915
912.176	16082
912.291	16074
912.405	16166
912.519	16314
912.633	16226
912.748	16124
912.862	16010
912.976	15983
913.09	15793
913.204	15876
913.318	15945
913.431	15983
913.545	15937
913.659	16032
913.772	15873
913.886	15732
914	15682
914.113	15816
914.226	15812
914.34	15835
914.453	15595
914.566	15774
914.68	15629
914.793	15652
914.906	15359
915.019	15355
915.132	15252
915.245	15313
915.358	15325
915.47	15370
915.583	15233
915.696	15351
915.809	15408
915.921	15454
916.034	15180
916.146	15173
916.259	15055
916.371	15294
916.483	15283
916.595	15154
916.708	15226
916.82	15066
916.932	15119
917.044	15058
917.156	15058
917.268	14956
917.38	14952
917.491	14880
917.603	14933
917.715	14967
917.826	14982
917.938	14868
918.049	14731
918.161	14948
918.272	15062
918.384	15024
918.495	14933
918.606	14735
918.717	14606
918.828	14743
918.939	14807
919.05	14545
919.161	14693
919.272	14446
919.383	14537
919.494	14739
919.604	14906
919.715	14716
919.826	14610
919.936	14579
920.047	14724
920.157	14663
920.267	14842
920.378	14678
920.488	14720
920.598	14777
920.708	15001
920.818	14739
920.928	14819
921.038	14956
921.148	14921
921.258	14640
921.368	14606
921.477	14442
921.587	14408
921.697	14301
921.806	14450
921.916	14240
922.025	14157
922.134	14069
922.244	13993
922.353	14035
922.462	13795
922.571	13906
922.68	13715
922.789	13677
922.898	13662
923.007	13624
923.116	13734
923.224	13719
923.333	13685
923.442	13472
923.55	13556
923.659	13422
923.767	13636
923.876	13510
923.984	13597
924.092	13415
924.201	13499
924.309	13369
924.417	13476
924.525	13377
924.633	13377
924.741	14218
924.849	13133
924.956	13236
925.064	13141
925.172	13027
925.279	13015
925.387	13126
925.494	13129
925.602	13213
925.709	13202
925.816	13038
925.924	13031
926.031	13168
926.138	13023
926.245	13149
926.352	12977
926.459	13091
926.566	13107
926.673	12981
926.779	12776
926.886	12848
926.993	12776
927.099	12635
927.206	12665
927.312	12521
927.419	12639
927.525	12631
927.631	12711
927.737	12547
927.843	12433
927.95	12426
928.056	12471
928.162	12547
928.267	12509
928.373	13164
928.479	12521
928.585	12308
928.69	12422
928.796	12433
928.901	12281
929.007	12175
929.112	12395
929.218	12369
929.323	12201
929.428	12224
929.533	12361
929.638	12163
929.743	12190
929.848	12110
929.953	12159
930.058	12076
930.163	11893
930.267	11923
930.372	12068
930.477	11836
930.581	12053
930.685	11954
930.79	11760
930.894	11786
930.998	11756
931.103	11912
931.207	11474
931.311	11463
931.415	11296
931.519	11170
931.623	11204
