Data from test_V78500241_471.txt Node
Date: Fri Mar 25 15:45:03 CST 2022
User: usil
Spectrometer: V785-0024
Trigger mode: 0
Integration Time (sec): 4.000000E-1
Scans to average: 1
Nonlinearity correction enabled: false
Boxcar width: 0
Storing dark spectrum: false
XAxis mode: Wavelengths
Number of Pixels in Spectrum: 1024
>>>>>Begin Spectral Data<<<<<
801.071	27667
801.214	27690
801.356	27481
801.499	27302
801.641	27287
801.783	27298
801.926	27321
802.068	27302
802.211	27157
802.353	27230
802.496	27009
802.638	26910
802.78	26918
802.923	26876
803.065	26876
803.208	26807
803.35	26834
803.492	26975
803.635	27135
803.777	26902
803.919	26998
804.061	27382
804.204	27039
804.346	26979
804.488	26933
804.63	26982
804.773	27009
804.915	27055
805.057	27188
805.199	27135
805.341	27138
805.483	27055
805.626	27150
805.768	27062
805.91	27127
806.052	27192
806.194	27096
806.336	27336
806.478	27222
806.62	27119
806.762	27260
806.904	27492
807.046	27694
807.188	27481
807.33	27705
807.472	27599
807.614	27458
807.756	27454
807.898	27355
808.04	27378
808.182	27351
808.324	27530
808.465	27306
808.607	27553
808.749	27701
808.891	27884
809.033	27998
809.174	27899
809.316	27911
809.458	27873
809.6	27789
809.741	28040
809.883	27937
810.025	28162
810.166	28124
810.308	28131
810.45	28204
810.591	27892
810.733	27797
810.875	27686
811.016	27656
811.158	27812
811.299	27804
811.441	28013
811.582	27941
811.724	27770
811.865	27739
812.007	27812
812.148	27713
812.29	27846
812.431	27926
812.573	28173
812.714	28173
812.855	28257
812.997	28337
813.138	28508
813.279	28516
813.421	28329
813.562	28268
813.703	28166
813.845	28013
813.986	27732
814.127	27530
814.268	27420
814.41	27481
814.551	27431
814.692	27583
814.833	27344
814.974	27397
815.115	27568
815.256	27367
815.397	27226
815.539	27378
815.68	27233
815.821	27249
815.962	27176
816.103	27245
816.244	27252
816.385	26960
816.526	27039
816.666	26853
816.807	26883
816.948	26845
817.089	26765
817.23	26781
817.371	26712
817.512	26693
817.653	26682
817.793	26670
817.934	26838
818.075	26746
818.216	26663
818.356	26648
818.497	26571
818.638	26446
818.778	26427
818.919	26461
819.06	26396
819.2	26648
819.341	26712
819.481	26689
819.622	26857
819.762	26956
819.903	27062
820.043	26948
820.184	26788
820.324	26769
820.465	26868
820.605	26895
820.746	26796
820.886	26636
821.026	26902
821.167	26712
821.307	26880
821.447	26667
821.588	26735
821.728	26446
821.868	26450
822.008	26180
822.149	26069
822.289	26240
822.429	26016
822.569	25906
822.709	25890
822.849	25708
822.99	25833
823.13	25639
823.27	25639
823.41	25457
823.55	25457
823.69	25613
823.83	25567
823.97	25419
824.11	25331
824.25	25411
824.389	25232
824.529	25240
824.669	25343
824.809	25590
824.949	25350
825.089	25365
825.228	25232
825.368	25266
825.508	25137
825.648	25103
825.787	25225
825.927	25282
826.067	25103
826.206	25190
826.346	24958
826.485	25301
826.625	25183
826.765	25304
826.904	25202
827.044	25061
827.183	25000
827.323	24897
827.462	24973
827.601	24966
827.741	24806
827.88	24973
828.02	24875
828.159	24848
828.298	24817
828.437	24939
828.577	24711
828.716	25110
828.855	24757
828.994	24559
829.134	24627
829.273	24627
829.412	24437
829.551	24437
829.69	24601
829.829	24585
829.968	24593
830.107	24570
830.246	24483
830.385	24467
830.524	24369
830.663	24418
830.802	24418
830.941	24114
831.08	24262
831.219	24266
831.357	24194
831.496	24369
831.635	24239
831.774	24030
831.913	24022
832.051	23950
832.19	24018
832.329	23946
832.467	23813
832.606	23885
832.744	23817
832.883	23707
833.022	23676
833.16	23904
833.299	23851
833.437	23893
833.576	24026
833.714	23847
833.852	23908
833.991	24011
834.129	23973
834.267	24007
834.406	23832
834.544	23847
834.682	23912
834.821	23878
834.959	24045
835.097	23767
835.235	23927
835.373	23878
835.511	23935
835.65	23790
835.788	23687
835.926	23653
836.064	23600
836.202	23611
836.34	23760
836.478	23802
836.615	23646
836.753	23733
836.891	23775
837.029	23866
837.167	23817
837.305	23581
837.443	23630
837.58	23592
837.718	23589
837.856	23551
837.993	23596
838.131	23531
838.269	23376
838.406	23501
838.544	23315
838.681	23277
838.819	23231
838.956	23041
839.094	22980
839.231	23124
839.369	23318
839.506	23474
839.643	23292
839.781	23113
839.918	22949
840.055	23181
840.193	23014
840.33	22968
840.467	23010
840.604	23003
840.742	23178
840.879	22881
841.016	23041
841.153	22885
841.29	23006
841.427	22858
841.564	22892
841.701	22999
841.838	22908
841.975	22889
842.112	22927
842.249	22904
842.385	22702
842.522	22980
842.659	22713
842.796	22816
842.933	22653
843.069	22812
843.206	22710
843.343	22782
843.479	22702
843.616	22736
843.752	22474
843.889	22565
844.025	22561
844.162	22417
844.298	22668
844.435	22462
844.571	22538
844.708	22542
844.844	22615
844.98	22550
845.117	22550
845.253	22398
845.389	22295
845.525	22478
845.661	22440
845.798	22192
845.934	22291
846.07	22166
846.206	22303
846.342	22390
846.478	22207
846.614	21960
846.75	21873
846.886	21880
847.022	22032
847.158	21922
847.294	21975
847.429	21945
847.565	21953
847.701	22112
847.837	21705
847.972	21705
848.108	21622
848.244	21861
848.379	21530
848.515	21466
848.65	21492
848.786	21564
848.921	21648
849.057	21679
849.192	21591
849.328	21660
849.463	21603
849.598	21568
849.734	21397
849.869	21401
850.004	21344
850.14	21317
850.275	21211
850.41	21249
850.545	21351
850.68	21283
850.815	21405
850.95	21256
851.085	21401
851.22	21367
851.355	21260
851.49	21211
851.625	21207
851.76	21252
851.895	21332
852.03	21173
852.165	21317
852.299	21294
852.434	21351
852.569	21477
852.703	21306
852.838	21401
852.973	21523
853.107	21462
853.242	21367
853.376	21176
853.511	21005
853.645	21169
853.78	21180
853.914	21161
854.048	21066
854.183	21188
854.317	21169
854.451	21325
854.585	21176
854.72	21176
854.854	21207
854.988	21081
855.122	21154
855.256	21058
855.39	21093
855.524	21241
855.658	21127
855.792	21233
855.926	21039
856.06	21237
856.194	21279
856.327	21203
856.461	21135
856.595	21127
856.729	21272
856.862	21207
856.996	21325
857.13	21325
857.263	21184
857.397	21214
857.53	21123
857.664	21272
857.797	21237
857.931	21294
858.064	21306
858.197	21218
858.331	21218
858.464	21161
858.597	20960
858.731	21161
858.864	21176
858.997	21047
859.13	21116
859.263	21195
859.396	21382
859.529	21100
859.662	21154
859.795	21146
859.928	21135
860.061	21363
860.194	21287
860.327	21245
860.46	21096
860.592	21218
860.725	21252
860.858	21298
860.99	21256
861.123	21119
861.256	21047
861.388	21230
861.521	21800
861.653	21028
861.786	20910
861.918	20982
862.05	21085
862.183	21173
862.315	21161
862.447	21116
862.58	21001
862.712	20929
862.844	20929
862.976	20979
863.108	20941
863.24	21393
863.372	20883
863.504	20864
863.636	20838
863.768	20845
863.9	20975
864.032	20864
864.164	20857
864.296	20864
864.428	20876
864.559	20948
864.691	21001
864.823	20864
864.954	20739
865.086	20708
865.217	20819
865.349	20720
865.48	20861
865.612	20777
865.743	20944
865.875	20811
866.006	20682
866.137	20804
866.269	20731
866.4	20845
866.531	20663
866.662	20731
866.793	20587
866.924	20644
867.055	20804
867.186	20727
867.317	20648
867.448	20659
867.579	20758
867.71	20625
867.841	20621
867.972	20674
868.103	20804
868.233	20697
868.364	20705
868.495	20815
868.625	20769
868.756	20994
868.886	20918
869.017	20941
869.147	21005
869.278	21108
869.408	21047
869.539	20960
869.669	21020
869.799	20918
869.929	21157
870.06	20956
870.19	21279
870.32	21233
870.45	21302
870.58	21279
870.71	21389
870.84	21530
870.97	21340
871.1	21374
871.23	21564
871.36	21492
871.489	21367
871.619	21500
871.749	21549
871.879	21591
872.008	21591
872.138	21675
872.267	21519
872.397	21332
872.526	21329
872.656	21336
872.785	21275
872.915	21545
873.044	21675
873.173	21545
873.303	21488
873.432	21599
873.561	21671
873.69	21618
873.819	21549
873.948	21622
874.077	21614
874.206	21504
874.335	21557
874.464	21686
874.593	21816
874.722	21747
874.851	21759
874.979	21766
875.108	21842
875.237	21770
875.365	21698
875.494	21804
875.623	21869
875.751	21732
875.88	21831
876.008	21873
876.136	21953
876.265	22246
876.393	22325
876.521	22367
876.65	22272
876.778	22204
876.906	22169
877.034	22150
877.162	22109
877.29	22207
877.418	22147
877.546	22128
877.674	22173
877.802	22162
877.93	22116
878.058	22128
878.185	21972
878.313	22116
878.441	22013
878.568	21994
878.696	22051
878.824	22192
878.951	22253
879.079	22329
879.206	22466
879.333	22363
879.461	22093
879.588	22287
879.715	22249
879.842	22375
879.97	22204
880.097	21979
880.224	21972
880.351	22078
880.478	21873
880.605	21892
880.732	21850
880.859	22124
880.986	21911
881.112	22029
881.239	21823
881.366	21603
881.493	21572
881.619	21595
881.746	21572
881.872	21545
881.999	21629
882.125	21401
882.252	21610
882.378	21507
882.505	21603
882.631	21378
882.757	21241
882.883	21416
883.01	21279
883.136	21157
883.262	21066
883.388	20967
883.514	21138
883.64	21268
883.766	21123
883.892	21055
884.018	21039
884.143	21085
884.269	21142
884.395	20975
884.52	20853
884.646	20876
884.772	20769
884.897	20830
885.023	21013
885.148	20948
885.274	21013
885.399	20914
885.524	20902
885.65	20853
885.775	20815
885.9	20880
886.025	20990
886.15	20861
886.275	20872
886.4	20785
886.525	20864
886.65	20925
886.775	20701
886.9	20941
887.025	21199
887.149	20895
887.274	20724
887.399	20629
887.523	20632
887.648	20743
887.773	20514
887.897	20758
888.021	20613
888.146	20480
888.27	20762
888.395	20678
888.519	20727
888.643	20636
888.767	20663
888.891	20507
889.015	20434
889.139	20423
889.263	20358
889.387	20499
889.511	20606
889.635	20587
889.759	20427
889.883	20423
890.006	20476
890.13	20579
890.254	20370
890.377	20347
890.501	20214
890.624	20172
890.748	20183
890.871	20199
890.995	19974
891.118	19841
891.241	20054
891.364	20069
891.488	20103
891.611	20103
891.734	20065
891.857	20153
891.98	20073
892.103	20130
892.226	19978
892.349	19997
892.471	19788
892.594	19986
892.717	19947
892.839	19864
892.962	19894
893.085	20088
893.207	19963
893.33	19833
893.452	19986
893.575	20039
893.697	19890
893.819	20024
893.941	19970
894.064	20081
894.186	19959
894.308	19883
894.43	19890
894.552	20058
894.674	20084
894.796	19811
894.918	19841
895.04	19871
895.161	19925
895.283	19982
895.405	19997
895.526	19974
895.648	19947
895.769	19913
895.891	19997
896.012	20027
896.134	19951
896.255	20008
896.376	19845
896.498	19978
896.619	19970
896.74	20012
896.861	19997
896.982	20214
897.103	20393
897.224	20180
897.345	20126
897.466	20115
897.587	20237
897.708	20355
897.828	20130
897.949	20111
898.07	20035
898.19	20119
898.311	20244
898.431	20168
898.552	20294
898.672	20199
898.792	20145
898.913	20225
899.033	20081
899.153	20081
899.273	19837
899.393	19890
899.513	19974
899.633	19940
899.753	19932
899.873	19822
899.993	19970
900.113	19883
900.232	19906
900.352	19776
900.472	19917
900.591	19567
900.711	19609
900.83	19613
900.95	19788
901.069	19791
901.189	19582
901.308	19339
901.427	19213
901.546	19335
901.665	19350
901.784	19270
901.904	19187
902.023	19114
902.141	18852
902.26	18916
902.379	18951
902.498	18821
902.617	18734
902.735	18859
902.854	18726
902.973	18620
903.091	18521
903.21	18486
903.328	18365
903.446	18277
903.565	18372
903.683	18167
903.801	18136
903.919	18266
904.038	18216
904.156	18114
904.274	18258
904.392	18007
904.51	17996
904.627	17999
904.745	17999
904.863	18007
904.981	17874
905.098	17775
905.216	17684
905.334	17676
905.451	17707
905.569	17672
905.686	17855
905.803	17691
905.921	17539
906.038	17642
906.155	17528
906.272	17360
906.389	17353
906.506	17372
906.623	17143
906.74	17235
906.857	17102
906.974	17121
907.091	17353
907.208	17448
907.324	17353
907.441	17178
907.557	17003
907.674	17075
907.79	16892
907.907	16858
908.023	16999
908.139	17014
908.256	16858
908.372	16862
908.488	16953
908.604	16763
908.72	16634
908.836	16679
908.952	16607
909.068	16721
909.184	16774
909.3	16615
909.415	16588
909.531	16710
909.647	16348
909.762	16371
909.878	16360
909.993	16413
910.108	16322
910.224	16299
910.339	16382
910.454	16249
910.57	16219
910.685	16086
910.8	16360
910.915	16265
911.03	16150
911.145	15987
911.259	15975
911.374	15949
911.489	15812
911.604	15781
911.718	15766
911.833	15800
911.947	15599
912.062	15557
912.176	15690
912.291	15751
912.405	15762
912.519	15937
912.633	15975
912.748	15762
912.862	15720
912.976	15496
913.09	15458
913.204	15488
913.318	15591
913.431	15667
913.545	15694
913.659	15572
913.772	15526
913.886	15370
914	15344
914.113	15450
914.226	15538
914.34	15351
914.453	15199
914.566	15374
914.68	15340
914.793	15180
914.906	15051
915.019	14944
915.132	14918
915.245	14944
915.358	14982
915.47	15051
915.583	14967
915.696	14998
915.809	15028
915.921	15100
916.034	14918
916.146	14849
916.259	14792
916.371	14967
916.483	14857
916.595	14796
916.708	14864
916.82	14804
916.932	14769
917.044	14796
917.156	14739
917.268	14655
917.38	14587
917.491	14625
917.603	14663
917.715	14701
917.826	14716
917.938	14613
918.049	14522
918.161	14568
918.272	14754
918.384	14606
918.495	14552
918.606	14423
918.717	14385
918.828	14366
918.939	14465
919.05	14248
919.161	14358
919.272	14134
919.383	14225
919.494	14385
919.604	14579
919.715	14366
919.826	14278
919.936	14374
920.047	14442
920.157	14347
920.267	14537
920.378	14317
920.488	14271
920.598	14545
920.708	14743
920.818	14499
920.928	14450
921.038	14594
921.148	14590
921.258	14225
921.368	14237
921.477	14138
921.587	14092
921.697	13944
921.806	14107
921.916	13925
922.025	13837
922.134	13791
922.244	13795
922.353	13662
922.462	13689
922.571	13597
922.68	13445
922.789	13327
922.898	13430
923.007	13304
923.116	13403
923.224	13327
923.333	13316
923.442	13175
923.55	13228
923.659	13194
923.767	13255
923.876	13156
923.984	13198
924.092	13053
924.201	13114
924.309	13095
924.417	13156
924.525	13046
924.633	13080
924.741	13807
924.849	12894
924.956	13038
925.064	12837
925.172	12776
925.279	12741
925.387	12760
925.494	12814
925.602	12875
925.709	12837
925.816	12677
925.924	12757
926.031	12894
926.138	12741
926.245	12817
926.352	12570
926.459	12711
926.566	12802
926.673	12646
926.779	12593
926.886	12593
926.993	12418
927.099	12422
927.206	12365
927.312	12353
927.419	12369
927.525	12414
927.631	12384
927.737	12277
927.843	12228
927.95	12053
928.056	12114
928.162	12182
928.267	12220
928.373	12875
928.479	12292
928.585	12095
928.69	12098
928.796	12163
928.901	12041
929.007	11908
929.112	12015
929.218	12110
929.323	11874
929.428	11965
929.533	12087
929.638	11821
929.743	11828
929.848	11946
929.953	11961
930.058	11805
930.163	11649
930.267	11596
930.372	11817
930.477	11653
930.581	11802
930.685	11638
930.79	11581
930.894	11573
930.998	11436
931.103	11592
931.207	11258
931.311	11197
931.415	11067
931.519	10930
931.623	10797
