Data from test_V78500241_1360.txt Node
Date: Fri Mar 25 15:51:13 CST 2022
User: usil
Spectrometer: V785-0024
Trigger mode: 0
Integration Time (sec): 4.000000E-1
Scans to average: 1
Nonlinearity correction enabled: false
Boxcar width: 0
Storing dark spectrum: false
XAxis mode: Wavelengths
Number of Pixels in Spectrum: 1024
>>>>>Begin Spectral Data<<<<<
801.071	28223
801.214	28147
801.356	27964
801.499	27865
801.641	27846
801.783	27926
801.926	27842
802.068	27804
802.211	27652
802.353	27705
802.496	27473
802.638	27530
802.78	27420
802.923	27325
803.065	27310
803.208	27431
803.35	27496
803.492	27553
803.635	27656
803.777	27466
803.919	27701
804.061	28036
804.204	27724
804.346	27709
804.488	27538
804.63	27614
804.773	27660
804.915	27694
805.057	27759
805.199	27580
805.341	27778
805.483	27743
805.626	27686
805.768	27759
805.91	27770
806.052	27888
806.194	27743
806.336	28078
806.478	27846
806.62	27827
806.762	27953
806.904	28070
807.046	28280
807.188	28265
807.33	28352
807.472	28379
807.614	28097
807.756	28253
807.898	27991
808.04	28188
808.182	28074
808.324	28048
808.465	28223
808.607	28344
808.749	28516
808.891	28527
809.033	28512
809.174	28516
809.316	28550
809.458	28390
809.6	28371
809.741	28557
809.883	28660
810.025	28809
810.166	28786
810.308	28858
810.45	28850
810.591	28634
810.733	28500
810.875	28421
811.016	28356
811.158	28268
811.299	28584
811.441	28763
811.582	28455
811.724	28535
811.865	28459
812.007	28565
812.148	28462
812.29	28398
812.431	28854
812.573	28908
812.714	28873
812.855	28980
812.997	29269
813.138	29326
813.279	29155
813.421	28999
813.562	28869
813.703	28847
813.845	28656
813.986	28367
814.127	28306
814.268	28090
814.41	28147
814.551	28169
814.692	28306
814.833	28177
814.974	28166
815.115	28143
815.256	28120
815.397	28040
815.539	27983
815.68	27911
815.821	27953
815.962	28017
816.103	27953
816.244	27861
816.385	27648
816.526	27747
816.666	27580
816.807	27557
816.948	27542
817.089	27717
817.23	27492
817.371	27515
817.512	27408
817.653	27492
817.793	27435
817.934	27458
818.075	27545
818.216	27515
818.356	27473
818.497	27469
818.638	27256
818.778	27157
818.919	27370
819.06	27313
819.2	27378
819.341	27511
819.481	27545
819.622	27709
819.762	27914
819.903	27717
820.043	27618
820.184	27618
820.324	27641
820.465	27781
820.605	27667
820.746	27743
820.886	27561
821.026	27591
821.167	27477
821.307	27717
821.447	27610
821.588	27462
821.728	27237
821.868	27058
822.008	26963
822.149	27081
822.289	27066
822.429	26807
822.569	26625
822.709	26727
822.849	26450
822.99	26556
823.13	26457
823.27	26396
823.41	26385
823.55	26347
823.69	26309
823.83	26221
823.97	26259
824.11	26096
824.25	26096
824.389	26126
824.529	26240
824.669	26172
824.809	26233
824.949	26115
825.089	26191
825.228	26161
825.368	25940
825.508	25974
825.648	26077
825.787	25970
825.927	26107
826.067	25921
826.206	26161
826.346	25997
826.485	25932
826.625	25959
826.765	26164
826.904	25978
827.044	25742
827.183	25913
827.323	25753
827.462	25647
827.601	25799
827.741	25613
827.88	25677
828.02	25624
828.159	25746
828.298	25628
828.437	25613
828.577	25696
828.716	25879
828.855	25571
828.994	25377
829.134	25266
829.273	25441
829.412	25289
829.551	25259
829.69	25358
829.829	25339
829.968	25518
830.107	25563
830.246	25331
830.385	25232
830.524	25152
830.663	25156
830.802	25091
830.941	25012
831.08	25004
831.219	25057
831.357	25088
831.496	25274
831.635	25137
831.774	24909
831.913	24935
832.051	24707
832.19	24722
832.329	24890
832.467	24665
832.606	24669
832.744	24684
832.883	24764
833.022	24795
833.16	24627
833.299	24772
833.437	24741
833.576	24745
833.714	24688
833.852	24738
833.991	24802
834.129	24890
834.267	24730
834.406	24791
834.544	24810
834.682	24608
834.821	24741
834.959	24863
835.097	24700
835.235	24779
835.373	24741
835.511	24745
835.65	24555
835.788	24623
835.926	24433
836.064	24403
836.202	24330
836.34	24532
836.478	24745
836.615	24456
836.753	24620
836.891	24711
837.029	24570
837.167	24380
837.305	24521
837.443	24281
837.58	24338
837.718	24502
837.856	24509
837.993	24342
838.131	24395
838.269	24334
838.406	24361
838.544	24334
838.681	24045
838.819	24102
838.956	23927
839.094	23935
839.231	24049
839.369	24011
839.506	24300
839.643	24129
839.781	23988
839.918	23866
840.055	23908
840.193	23813
840.33	23809
840.467	23855
840.604	23923
840.742	23999
840.879	23566
841.016	23760
841.153	23684
841.29	23916
841.427	23786
841.564	23718
841.701	23817
841.838	23794
841.975	23764
842.112	23600
842.249	23775
842.385	23562
842.522	23859
842.659	23604
842.796	23596
842.933	23680
843.069	23497
843.206	23562
843.343	23486
843.479	23497
843.616	23512
843.752	23330
843.889	23402
844.025	23512
844.162	23292
844.298	23452
844.435	23269
844.571	23273
844.708	23364
844.844	23486
844.98	23463
845.117	23360
845.253	23254
845.389	23170
845.525	23277
845.661	23220
845.798	23079
845.934	23109
846.07	23109
846.206	23204
846.342	23204
846.478	22938
846.614	23010
846.75	22820
846.886	22885
847.022	22691
847.158	22862
847.294	22744
847.429	22904
847.565	22824
847.701	23041
847.837	22573
847.972	22523
848.108	22664
848.244	22649
848.379	22379
848.515	22322
848.65	22329
848.786	22402
848.921	22344
849.057	22508
849.192	22584
849.328	22417
849.463	22360
849.598	22257
849.734	22360
849.869	22318
850.004	22150
850.14	22242
850.275	22150
850.41	21956
850.545	22131
850.68	22101
850.815	22173
850.95	22143
851.085	22265
851.22	22344
851.355	22215
851.49	22215
851.625	22158
851.76	22051
851.895	21983
852.03	22086
852.165	22185
852.299	22257
852.434	22215
852.569	22268
852.703	22181
852.838	22150
852.973	22287
853.107	22131
853.242	22173
853.376	21968
853.511	22013
853.645	22017
853.78	22135
853.914	21979
854.048	21937
854.183	21998
854.317	21903
854.451	22230
854.585	21876
854.72	21964
854.854	22078
854.988	21926
855.122	21941
855.256	21907
855.39	21964
855.524	22074
855.658	21937
855.792	21968
855.926	22017
856.06	21983
856.194	22013
856.327	21922
856.461	21922
856.595	21903
856.729	21800
856.862	22158
856.996	22013
857.13	22010
857.263	22044
857.397	22067
857.53	22002
857.664	22093
857.797	22040
857.931	22040
858.064	21956
858.197	22074
858.331	21907
858.464	22055
858.597	21865
858.731	22006
858.864	21975
858.997	22059
859.13	21831
859.263	22032
859.396	21960
859.529	21899
859.662	21953
859.795	21850
859.928	22010
860.061	22040
860.194	22128
860.327	22051
860.46	21991
860.592	22082
860.725	22124
860.858	22048
860.99	21922
861.123	21922
861.256	21835
861.388	21972
861.521	22694
861.653	21827
861.786	21804
861.918	21785
862.05	21785
862.183	21922
862.315	21895
862.447	21987
862.58	21915
862.712	21561
862.844	21732
862.976	21709
863.108	21717
863.24	22074
863.372	21656
863.504	21660
863.636	21561
863.768	21656
863.9	21583
864.032	21709
864.164	21614
864.296	21892
864.428	21751
864.559	21732
864.691	21816
864.823	21736
864.954	21561
865.086	21656
865.217	21641
865.349	21481
865.48	21583
865.612	21618
865.743	21667
865.875	21553
866.006	21545
866.137	21466
866.269	21633
866.4	21534
866.531	21469
866.662	21443
866.793	21500
866.924	21416
867.055	21561
867.186	21614
867.317	21485
867.448	21511
867.579	21500
867.71	21450
867.841	21447
867.972	21507
868.103	21450
868.233	21500
868.364	21538
868.495	21481
868.625	21679
868.756	21926
868.886	21720
869.017	21720
869.147	21876
869.278	21835
869.408	21816
869.539	21827
869.669	21793
869.799	21759
869.929	21793
870.06	21842
870.19	22074
870.32	22051
870.45	22188
870.58	22105
870.71	22253
870.84	22253
870.97	22120
871.1	22128
871.23	22310
871.36	22306
871.489	22188
871.619	22299
871.749	22409
871.879	22363
872.008	22478
872.138	22352
872.267	22352
872.397	22219
872.526	22196
872.656	22128
872.785	22185
872.915	22257
873.044	22489
873.173	22318
873.303	22424
873.432	22519
873.561	22379
873.69	22402
873.819	22382
873.948	22409
874.077	22481
874.206	22287
874.335	22462
874.464	22478
874.593	22615
874.722	22546
874.851	22573
874.979	22554
875.108	22630
875.237	22485
875.365	22344
875.494	22504
875.623	22538
875.751	22497
875.88	22611
876.008	22687
876.136	22679
876.265	22961
876.393	22999
876.521	23041
876.65	23117
876.778	22961
876.906	22843
877.034	22961
877.162	22889
877.29	22976
877.418	22942
877.546	22881
877.674	22896
877.802	22911
877.93	22892
878.058	22820
878.185	22839
878.313	22892
878.441	22854
878.568	22835
878.696	22816
878.824	22816
878.951	22953
879.079	23166
879.206	23235
879.333	23079
879.461	22858
879.588	22927
879.715	22972
879.842	23273
879.97	23010
880.097	22767
880.224	22683
880.351	22767
880.478	22698
880.605	22668
880.732	22744
880.859	22965
880.986	22721
881.112	22713
881.239	22653
881.366	22508
881.493	22489
881.619	22451
881.746	22329
881.872	22371
881.999	22238
882.125	22257
882.252	22238
882.378	22356
882.505	22409
882.631	22101
882.757	21998
882.883	22093
883.01	21903
883.136	21975
883.262	21865
883.388	21804
883.514	21994
883.64	22013
883.766	21865
883.892	21762
884.018	21842
884.143	21945
884.269	22032
884.395	21713
884.52	21709
884.646	21682
884.772	21466
884.897	21599
885.023	21663
885.148	21705
885.274	21747
885.399	21717
885.524	21637
885.65	21663
885.775	21679
885.9	21614
886.025	21747
886.15	21679
886.275	21492
886.4	21545
886.525	21644
886.65	21629
886.775	21507
886.9	21675
887.025	21819
887.149	21603
887.274	21401
887.399	21447
887.523	21367
887.648	21408
887.773	21245
887.897	21389
888.021	21416
888.146	21321
888.27	21466
888.395	21378
888.519	21416
888.643	21500
888.767	21447
888.891	21161
889.015	21237
889.139	21226
889.263	21142
889.387	21351
889.511	21336
889.635	21302
889.759	21161
889.883	21093
890.006	21195
890.13	21180
890.254	21119
890.377	21146
890.501	20914
890.624	20864
890.748	20956
890.871	20830
890.995	20670
891.118	20674
891.241	20758
891.364	20769
891.488	20918
891.611	20568
891.734	20796
891.857	20842
891.98	20785
892.103	20693
892.226	20781
892.349	20682
892.471	20621
892.594	20587
892.717	20659
892.839	20507
892.962	20644
893.085	20701
893.207	20651
893.33	20442
893.452	20442
893.575	20746
893.697	20613
893.819	20849
893.941	20826
894.064	20625
894.186	20568
894.308	20568
894.43	20739
894.552	20712
894.674	20762
894.796	20480
894.918	20587
895.04	20556
895.161	20800
895.283	20617
895.405	20499
895.526	20514
895.648	20556
895.769	20617
895.891	20667
896.012	20739
896.134	20743
896.255	20678
896.376	20621
896.498	20617
896.619	20708
896.74	20682
896.861	20720
896.982	21005
897.103	21058
897.224	20971
897.345	20834
897.466	20754
897.587	20929
897.708	20876
897.828	20918
897.949	20819
898.07	20575
898.19	20762
898.311	20845
898.431	20842
898.552	20792
898.672	20891
898.792	20887
898.913	20853
899.033	20777
899.153	20667
899.273	20507
899.393	20678
899.513	20678
899.633	20434
899.753	20686
899.873	20461
899.993	20587
900.113	20511
900.232	20492
900.352	20560
900.472	20389
900.591	20240
900.711	20454
900.83	20256
900.95	20465
901.069	20438
901.189	20202
901.308	20008
901.427	19928
901.546	19906
901.665	19917
901.784	19947
901.904	19894
902.023	19731
902.141	19491
902.26	19487
902.379	19468
902.498	19422
902.617	19430
902.735	19491
902.854	19293
902.973	19266
903.091	19065
903.21	19114
903.328	19069
903.446	18935
903.565	18943
903.683	18916
903.801	18711
903.919	18791
904.038	18878
904.156	18715
904.274	18806
904.392	18612
904.51	18620
904.627	18707
904.745	18661
904.863	18696
904.981	18433
905.098	18418
905.216	18304
905.334	18452
905.451	18330
905.569	18342
905.686	18319
905.803	18258
905.921	18133
906.038	18319
906.155	18110
906.272	17988
906.389	17946
906.506	17939
906.623	17866
906.74	17798
906.857	17729
906.974	17775
907.091	17874
907.208	17969
907.324	17908
907.441	17798
907.557	17547
907.674	17570
907.79	17573
907.907	17486
908.023	17459
908.139	17543
908.256	17414
908.372	17528
908.488	17417
908.604	17318
908.72	17288
908.836	17223
908.952	17315
909.068	17220
909.184	17398
909.3	17356
909.415	17284
909.531	17379
909.647	17014
909.762	17025
909.878	17083
909.993	17018
910.108	17033
910.224	17018
910.339	16991
910.454	16885
910.57	16748
910.685	16653
910.8	17056
910.915	16953
911.03	16831
911.145	16713
911.259	16618
911.374	16603
911.489	16538
911.604	16413
911.718	16257
911.833	16341
911.947	16291
912.062	16211
912.176	16287
912.291	16341
912.405	16333
912.519	16466
912.633	16527
912.748	16325
912.862	16177
912.976	16097
913.09	16090
913.204	16112
913.318	16196
913.431	16242
913.545	16276
913.659	16188
913.772	16090
913.886	15979
914	15915
914.113	15987
914.226	16078
914.34	15991
914.453	15720
914.566	15987
914.68	15797
914.793	15816
914.906	15481
915.019	15504
915.132	15477
915.245	15496
915.358	15564
915.47	15553
915.583	15504
915.696	15515
915.809	15622
915.921	15679
916.034	15458
916.146	15454
916.259	15405
916.371	15542
916.483	15443
916.595	15302
916.708	15370
916.82	15431
916.932	15256
917.044	15355
917.156	15230
917.268	15192
917.38	15260
917.491	15241
917.603	15195
917.715	15214
917.826	15287
917.938	15165
918.049	15009
918.161	15173
918.272	15241
918.384	15203
918.495	15074
918.606	14929
918.717	14906
918.828	14956
918.939	14998
919.05	14823
919.161	14914
919.272	14693
919.383	14773
919.494	14891
919.604	15131
919.715	14895
919.826	14785
919.936	14899
920.047	14960
920.157	14899
920.267	15085
920.378	14857
920.488	14826
920.598	14982
920.708	15211
920.818	14982
920.928	15070
921.038	15127
921.148	15085
921.258	14891
921.368	14807
921.477	14708
921.587	14667
921.697	14412
921.806	14518
921.916	14423
922.025	14362
922.134	14221
922.244	14286
922.353	14374
922.462	14161
922.571	14069
922.68	13909
922.789	13860
922.898	13936
923.007	13917
923.116	13932
923.224	13883
923.333	13841
923.442	13704
923.55	13746
923.659	13712
923.767	13814
923.876	13651
923.984	13788
924.092	13571
924.201	13651
924.309	13605
924.417	13544
924.525	13499
924.633	13571
924.741	14560
924.849	13301
924.956	13521
925.064	13377
925.172	13263
925.279	13320
925.387	13304
925.494	13266
925.602	13343
925.709	13358
925.816	13255
925.924	13209
926.031	13381
926.138	13343
926.245	13282
926.352	13091
926.459	13331
926.566	13263
926.673	13179
926.779	12985
926.886	13019
926.993	12894
927.099	12905
927.206	12833
927.312	12768
927.419	12924
927.525	12856
927.631	12837
927.737	12783
927.843	12730
927.95	12623
928.056	12677
928.162	12669
928.267	12673
928.373	13255
928.479	12764
928.585	12555
928.69	12604
928.796	12642
928.901	12521
929.007	12418
929.112	12582
929.218	12467
929.323	12422
929.428	12448
929.533	12540
929.638	12239
929.743	12304
929.848	12342
929.953	12353
930.058	12235
930.163	12125
930.267	12053
930.372	12182
930.477	12019
930.581	12178
930.685	12091
930.79	11942
930.894	12011
930.998	11946
931.103	12022
931.207	11733
931.311	11551
931.415	11573
931.519	11406
931.623	11315
