Data from test_V78500241_1224.txt Node
Date: Fri Mar 25 15:50:16 CST 2022
User: usil
Spectrometer: V785-0024
Trigger mode: 0
Integration Time (sec): 4.000000E-1
Scans to average: 1
Nonlinearity correction enabled: false
Boxcar width: 0
Storing dark spectrum: false
XAxis mode: Wavelengths
Number of Pixels in Spectrum: 1024
>>>>>Begin Spectral Data<<<<<
801.071	28603
801.214	28656
801.356	28348
801.499	28188
801.641	28215
801.783	28181
801.926	28246
802.068	28177
802.211	28192
802.353	28025
802.496	27941
802.638	27934
802.78	27762
802.923	27778
803.065	27819
803.208	27812
803.35	27907
803.492	27869
803.635	28097
803.777	28105
803.919	28147
804.061	28440
804.204	28173
804.346	27972
804.488	27956
804.63	28013
804.773	27945
804.915	27975
805.057	28196
805.199	28158
805.341	28238
805.483	28291
805.626	28291
805.768	28147
805.91	28265
806.052	28215
806.194	28147
806.336	28573
806.478	28367
806.62	28401
806.762	28276
806.904	28481
807.046	28847
807.188	28740
807.33	28812
807.472	28664
807.614	28816
807.756	28599
807.898	28607
808.04	28577
808.182	28481
808.324	28626
808.465	28622
808.607	28850
808.749	28938
808.891	29018
809.033	28991
809.174	28968
809.316	28927
809.458	28809
809.6	28980
809.741	29105
809.883	29132
810.025	29227
810.166	29216
810.308	29223
810.45	29246
810.591	29193
810.733	29071
810.875	29121
811.016	28854
811.158	28843
811.299	28991
811.441	29235
811.582	29162
811.724	29037
811.865	28972
812.007	29060
812.148	29064
812.29	29033
812.431	29075
812.573	29258
812.714	29307
812.855	29497
812.997	29611
813.138	29638
813.279	29672
813.421	29623
813.562	29433
813.703	29379
813.845	29296
813.986	28904
814.127	28790
814.268	28694
814.41	28683
814.551	28691
814.692	28793
814.833	28675
814.974	28679
815.115	28881
815.256	28603
815.397	28531
815.539	28675
815.68	28531
815.821	28451
815.962	28527
816.103	28413
816.244	28337
816.385	28344
816.526	28390
816.666	28173
816.807	28044
816.948	28162
817.089	28070
817.23	27975
817.371	28051
817.512	27960
817.653	28021
817.793	27991
817.934	27922
818.075	28059
818.216	28070
818.356	27823
818.497	27968
818.638	27785
818.778	27937
818.919	27793
819.06	27800
819.2	27876
819.341	28135
819.481	28021
819.622	28101
819.762	28424
819.903	28303
820.043	28207
820.184	28090
820.324	28215
820.465	28135
820.605	28200
820.746	27998
820.886	28036
821.026	28067
821.167	28032
821.307	28185
821.447	28029
821.588	27991
821.728	27819
821.868	27717
822.008	27526
822.149	27450
822.289	27515
822.429	27233
822.569	27070
822.709	27283
822.849	27100
822.99	27028
823.13	27024
823.27	26872
823.41	26804
823.55	26807
823.69	26849
823.83	26842
823.97	26758
824.11	26648
824.25	26488
824.389	26655
824.529	26811
824.669	26670
824.809	26765
824.949	26670
825.089	26720
825.228	26689
825.368	26556
825.508	26473
825.648	26396
825.787	26689
825.927	26537
826.067	26400
826.206	26453
826.346	26712
826.485	26640
826.625	26495
826.765	26629
826.904	26583
827.044	26351
827.183	26396
827.323	26221
827.462	26419
827.601	26377
827.741	26119
827.88	26282
828.02	26149
828.159	25978
828.298	26221
828.437	26347
828.577	26244
828.716	26305
828.855	26119
828.994	25966
829.134	25932
829.273	26027
829.412	25970
829.551	25887
829.69	25868
829.829	25966
829.968	26050
830.107	26043
830.246	25860
830.385	25738
830.524	25765
830.663	25890
830.802	25639
830.941	25563
831.08	25540
831.219	25582
831.357	25533
831.496	25818
831.635	25499
831.774	25525
831.913	25358
832.051	25362
832.19	25282
832.329	25457
832.467	25152
832.606	25091
832.744	25145
832.883	25164
833.022	25289
833.16	25129
833.299	25221
833.437	25198
833.576	25274
833.714	25171
833.852	25301
833.991	25247
834.129	25304
834.267	25308
834.406	25285
834.544	25293
834.682	25209
834.821	25148
834.959	25445
835.097	25259
835.235	25297
835.373	25217
835.511	25354
835.65	25145
835.788	25164
835.926	24947
836.064	24913
836.202	25027
836.34	25008
836.478	25145
836.615	25156
836.753	25072
836.891	25095
837.029	25114
837.167	25015
837.305	24886
837.443	24943
837.58	24825
837.718	24935
837.856	24905
837.993	24779
838.131	24863
838.269	24692
838.406	24810
838.544	24703
838.681	24559
838.819	24452
838.956	24479
839.094	24346
839.231	24547
839.369	24544
839.506	24795
839.643	24601
839.781	24376
839.918	24330
840.055	24266
840.193	24365
840.33	24315
840.467	24216
840.604	24273
840.742	24563
840.879	24163
841.016	24273
841.153	24251
841.29	24467
841.427	24232
841.564	24327
841.701	24289
841.838	24266
841.975	24205
842.112	24190
842.249	24216
842.385	24125
842.522	24422
842.659	24060
842.796	24026
842.933	24003
843.069	23916
843.206	23882
843.343	24038
843.479	24022
843.616	23973
843.752	23847
843.889	23855
844.025	23893
844.162	23840
844.298	23817
844.435	23882
844.571	23878
844.708	23729
844.844	24064
844.98	23939
845.117	23958
845.253	23703
845.389	23680
845.525	23676
845.661	23748
845.798	23417
845.934	23657
846.07	23547
846.206	23543
846.342	23676
846.478	23486
846.614	23345
846.75	23162
846.886	23322
847.022	23284
847.158	23341
847.294	23292
847.429	23246
847.565	23258
847.701	23505
847.837	23086
847.972	22885
848.108	23098
848.244	22995
848.379	22923
848.515	22949
848.65	22778
848.786	22786
848.921	22881
849.057	22991
849.192	22942
849.328	22820
849.463	22797
849.598	22801
849.734	22797
849.869	22683
850.004	22611
850.14	22599
850.275	22733
850.41	22470
850.545	22531
850.68	22485
850.815	22660
850.95	22592
851.085	22767
851.22	22767
851.355	22736
851.49	22519
851.625	22565
851.76	22577
851.895	22592
852.03	22573
852.165	22679
852.299	22660
852.434	22729
852.569	22664
852.703	22596
852.838	22691
852.973	22782
853.107	22713
853.242	22580
853.376	22466
853.511	22436
853.645	22470
853.78	22599
853.914	22447
854.048	22447
854.183	22443
854.317	22519
854.451	22675
854.585	22390
854.72	22421
854.854	22535
854.988	22280
855.122	22382
855.256	22325
855.39	22352
855.524	22402
855.658	22455
855.792	22367
855.926	22440
856.06	22417
856.194	22535
856.327	22462
856.461	22386
856.595	22424
856.729	22356
856.862	22603
856.996	22394
857.13	22421
857.263	22599
857.397	22615
857.53	22375
857.664	22550
857.797	22379
857.931	22637
858.064	22470
858.197	22615
858.331	22386
858.464	22421
858.597	22386
858.731	22398
858.864	22462
858.997	22424
859.13	22459
859.263	22306
859.396	22485
859.529	22310
859.662	22451
859.795	22356
859.928	22443
860.061	22546
860.194	22565
860.327	22557
860.46	22371
860.592	22557
860.725	22653
860.858	22641
860.99	22512
861.123	22417
861.256	22344
861.388	22375
861.521	23121
861.653	22246
861.786	22318
861.918	22219
862.05	22329
862.183	22348
862.315	22325
862.447	22390
862.58	22402
862.712	22112
862.844	22131
862.976	22215
863.108	22177
863.24	22466
863.372	22093
863.504	22253
863.636	22162
863.768	22268
863.9	22051
864.032	22013
864.164	22150
864.296	22116
864.428	22341
864.559	22166
864.691	22112
864.823	22097
864.954	22048
865.086	22124
865.217	22067
865.349	22025
865.48	21918
865.612	22078
865.743	22105
865.875	21998
866.006	21831
866.137	21960
866.269	22051
866.4	22105
866.531	21979
866.662	21899
866.793	22021
866.924	21964
867.055	21838
867.186	21991
867.317	21991
867.448	21865
867.579	21956
867.71	21789
867.841	21861
867.972	21979
868.103	21899
868.233	22059
868.364	21884
868.495	21994
868.625	22230
868.756	22226
868.886	22154
869.017	22200
869.147	22226
869.278	22295
869.408	22261
869.539	22147
869.669	22280
869.799	22333
869.929	22333
870.06	22215
870.19	22584
870.32	22443
870.45	22531
870.58	22584
870.71	22755
870.84	22565
870.97	22512
871.1	22584
871.23	22862
871.36	22691
871.489	22725
871.619	22565
871.749	22660
871.879	22782
872.008	22934
872.138	22824
872.267	22797
872.397	22717
872.526	22527
872.656	22584
872.785	22607
872.915	22831
873.044	22831
873.173	22797
873.303	22896
873.432	22881
873.561	22831
873.69	22904
873.819	22805
873.948	22801
874.077	22881
874.206	22721
874.335	22752
874.464	22885
874.593	22972
874.722	22968
874.851	23083
874.979	22961
875.108	22999
875.237	22911
875.365	22923
875.494	22927
875.623	23124
875.751	22862
875.88	23060
876.008	23075
876.136	23025
876.265	23421
876.393	23535
876.521	23486
876.65	23406
876.778	23307
876.906	23360
877.034	23330
877.162	23349
877.29	23223
877.418	23337
877.546	23337
877.674	23296
877.802	23341
877.93	23402
878.058	23265
878.185	23208
878.313	23299
878.441	23242
878.568	23170
878.696	23231
878.824	23288
878.951	23520
879.079	23490
879.206	23672
879.333	23478
879.461	23372
879.588	23490
879.715	23535
879.842	23543
879.97	23288
880.097	23166
880.224	22991
880.351	23113
880.478	23159
880.605	23109
880.732	23071
880.859	23360
880.986	23102
881.112	23200
881.239	23067
881.366	22847
881.493	22649
881.619	22778
881.746	22809
881.872	22736
881.999	22694
882.125	22561
882.252	22748
882.378	22603
882.505	22759
882.631	22485
882.757	22303
882.883	22497
883.01	22428
883.136	22333
883.262	22219
883.388	22272
883.514	22379
883.64	22508
883.766	22341
883.892	22276
884.018	22124
884.143	22192
884.269	22272
884.395	22166
884.52	21880
884.646	22055
884.772	21991
884.897	21899
885.023	22048
885.148	22086
885.274	22166
885.399	22124
885.524	21994
885.65	21994
885.775	22010
885.9	21979
886.025	22097
886.15	22154
886.275	22055
886.4	22002
886.525	22101
886.65	21987
886.775	21949
886.9	22093
887.025	22253
887.149	21972
887.274	21926
887.399	21846
887.523	21743
887.648	21701
887.773	21591
887.897	21907
888.021	21648
888.146	21823
888.27	21998
888.395	21922
888.519	21835
888.643	21854
888.767	21808
888.891	21755
889.015	21614
889.139	21610
889.263	21507
889.387	21682
889.511	21682
889.635	21618
889.759	21538
889.883	21420
890.006	21549
890.13	21648
890.254	21492
890.377	21374
890.501	21340
890.624	21367
890.748	21340
890.871	21150
890.995	21066
891.118	21062
891.241	21085
891.364	21085
891.488	21203
891.611	21081
891.734	21127
891.857	21173
891.98	21176
892.103	21184
892.226	21096
892.349	21070
892.471	20921
892.594	20944
892.717	21127
892.839	20982
892.962	21036
893.085	21028
893.207	21047
893.33	20929
893.452	20941
893.575	20967
893.697	20967
893.819	21123
893.941	21287
894.064	21108
894.186	20864
894.308	20910
894.43	21146
894.552	21199
894.674	21150
894.796	20845
894.918	20944
895.04	20895
895.161	21112
895.283	21062
895.405	20845
895.526	20891
895.648	21028
895.769	21028
895.891	20998
896.012	21085
896.134	21039
896.255	20960
896.376	20864
896.498	20819
896.619	21032
896.74	21028
896.861	21077
896.982	21367
897.103	21496
897.224	21249
897.345	21169
897.466	21192
897.587	21310
897.708	21367
897.828	21405
897.949	21081
898.07	20986
898.19	21161
898.311	21222
898.431	21233
898.552	21192
898.672	21275
898.792	21374
898.913	21321
899.033	21123
899.153	20899
899.273	20842
899.393	20899
899.513	20956
899.633	20853
899.753	21043
899.873	20872
899.993	20944
900.113	20785
900.232	20937
900.352	20906
900.472	20693
900.591	20579
900.711	20811
900.83	20663
900.95	20758
901.069	20781
901.189	20568
901.308	20415
901.427	20355
901.546	20343
901.665	20305
901.784	20229
901.904	20107
902.023	19951
902.141	19830
902.26	19826
902.379	19791
902.498	19753
902.617	19807
902.735	19761
902.854	19811
902.973	19594
903.091	19434
903.21	19388
903.328	19388
903.446	19373
903.565	19179
903.683	19236
903.801	19107
903.919	19148
904.038	19179
904.156	18977
904.274	19076
904.392	18989
904.51	18954
904.627	18943
904.745	19004
904.863	18905
904.981	18844
905.098	18700
905.216	18635
905.334	18700
905.451	18897
905.569	18673
905.686	18582
905.803	18616
905.921	18429
906.038	18604
906.155	18464
906.272	18281
906.389	18330
906.506	18201
906.623	18205
906.74	18266
906.857	18015
906.974	18232
907.091	18281
907.208	18277
907.324	18292
907.441	18049
907.557	17882
907.674	17790
907.79	17882
907.907	17946
908.023	17931
908.139	17935
908.256	17889
908.372	17813
908.488	17764
908.604	17718
908.72	17646
908.836	17649
908.952	17608
909.068	17718
909.184	17661
909.3	17562
909.415	17638
909.531	17547
909.647	17448
909.762	17417
909.878	17334
909.993	17273
910.108	17170
910.224	17288
910.339	17356
910.454	17269
910.57	17121
910.685	17102
910.8	17261
910.915	17223
911.03	17178
911.145	16824
911.259	16896
911.374	17033
911.489	16790
911.604	16656
911.718	16641
911.833	16622
911.947	16584
912.062	16500
912.176	16588
912.291	16710
912.405	16592
912.519	16854
912.633	16847
912.748	16771
912.862	16637
912.976	16497
913.09	16375
913.204	16367
913.318	16413
913.431	16417
913.545	16554
913.659	16459
913.772	16493
913.886	16352
914	16242
914.113	16375
914.226	16261
914.34	16379
914.453	16166
914.566	16272
914.68	16192
914.793	16086
914.906	15831
915.019	15774
915.132	15755
915.245	15766
915.358	15819
915.47	15903
915.583	15816
915.696	15831
915.809	15987
915.921	15873
916.034	15770
916.146	15736
916.259	15633
916.371	15816
916.483	15701
916.595	15614
916.708	15629
916.82	15622
916.932	15614
917.044	15660
917.156	15580
917.268	15424
917.38	15473
917.491	15420
917.603	15481
917.715	15553
917.826	15580
917.938	15405
918.049	15230
918.161	15378
918.272	15538
918.384	15629
918.495	15329
918.606	15256
918.717	15104
918.828	15207
918.939	15233
919.05	15043
919.161	15146
919.272	15001
919.383	15024
919.494	15256
919.604	15386
919.715	15249
919.826	15184
919.936	15020
920.047	15176
920.157	15173
920.267	15291
920.378	15169
920.488	15051
920.598	15306
920.708	15401
920.818	15310
920.928	15275
921.038	15439
921.148	15302
921.258	15058
921.368	15028
921.477	14914
921.587	15001
921.697	14724
921.806	14838
921.916	14663
922.025	14541
922.134	14480
922.244	14442
922.353	14556
922.462	14377
922.571	14362
922.68	14183
922.789	14115
922.898	14172
923.007	14084
923.116	14210
923.224	14161
923.333	14058
923.442	13982
923.55	13967
923.659	13955
923.767	14024
923.876	13986
923.984	14088
924.092	13799
924.201	13890
924.309	13890
924.417	13890
924.525	13868
924.633	13845
924.741	14507
924.849	13594
924.956	13746
925.064	13590
925.172	13521
925.279	13464
925.387	13563
925.494	13495
925.602	13594
925.709	13552
925.816	13491
925.924	13468
926.031	13548
926.138	13480
926.245	13495
926.352	13426
926.459	13491
926.566	13552
926.673	13434
926.779	13247
926.886	13312
926.993	13232
927.099	13122
927.206	13065
927.312	13000
927.419	13072
927.525	13107
927.631	13114
927.737	12935
927.843	12966
927.95	12741
928.056	12897
928.162	12863
928.267	12954
928.373	13582
928.479	12958
928.585	12722
928.69	12821
928.796	12840
928.901	12700
929.007	12574
929.112	12795
929.218	12772
929.323	12623
929.428	12646
929.533	12719
929.638	12547
929.743	12525
929.848	12525
929.953	12566
930.058	12433
930.163	12266
930.267	12220
930.372	12426
930.477	12243
930.581	12445
930.685	12323
930.79	12144
930.894	12190
930.998	12148
931.103	12289
931.207	11885
931.311	11832
931.415	11699
931.519	11532
931.623	11425
