Data from test_V78500241_434.txt Node
Date: Fri Mar 25 15:44:48 CST 2022
User: usil
Spectrometer: V785-0024
Trigger mode: 0
Integration Time (sec): 4.000000E-1
Scans to average: 1
Nonlinearity correction enabled: false
Boxcar width: 0
Storing dark spectrum: false
XAxis mode: Wavelengths
Number of Pixels in Spectrum: 1024
>>>>>Begin Spectral Data<<<<<
801.071	28090
801.214	28154
801.356	27842
801.499	27766
801.641	27679
801.783	27644
801.926	27778
802.068	27595
802.211	27481
802.353	27553
802.496	27367
802.638	27439
802.78	27275
802.923	27291
803.065	27310
803.208	27252
803.35	27393
803.492	27431
803.635	27450
803.777	27367
803.919	27427
804.061	27751
804.204	27469
804.346	27488
804.488	27424
804.63	27500
804.773	27435
804.915	27447
805.057	27561
805.199	27420
805.341	27408
805.483	27523
805.626	27454
805.768	27401
805.91	27538
806.052	27534
806.194	27435
806.336	27698
806.478	27720
806.62	27427
806.762	27637
806.904	27793
807.046	28147
807.188	28097
807.33	28109
807.472	28017
807.614	27895
807.756	27884
807.898	27812
808.04	27747
808.182	27914
808.324	27732
808.465	27850
808.607	27953
808.749	28090
808.891	28192
809.033	28401
809.174	28253
809.316	28207
809.458	28325
809.6	28143
809.741	28318
809.883	28299
810.025	28432
810.166	28512
810.308	28382
810.45	28390
810.591	28318
810.733	28036
810.875	28120
811.016	28036
811.158	28029
811.299	28211
811.441	28257
811.582	28337
811.724	28211
811.865	28090
812.007	28048
812.148	28101
812.29	28166
812.431	28276
812.573	28459
812.714	28489
812.855	28630
812.997	28717
813.138	28915
813.279	28733
813.421	28683
813.562	28702
813.703	28481
813.845	28424
813.986	27956
814.127	27861
814.268	27804
814.41	27808
814.551	27679
814.692	27728
814.833	27751
814.974	27808
815.115	27816
815.256	27614
815.397	27583
815.539	27564
815.68	27481
815.821	27443
815.962	27538
816.103	27431
816.244	27485
816.385	27435
816.526	27310
816.666	27051
816.807	26971
816.948	27058
817.089	27203
817.23	27104
817.371	26910
817.512	27001
817.653	26998
817.793	26982
817.934	26849
818.075	26975
818.216	26975
818.356	26960
818.497	26937
818.638	26693
818.778	26746
818.919	26598
819.06	26720
819.2	26842
819.341	26994
819.481	27100
819.622	27001
819.762	27321
819.903	27199
820.043	27138
820.184	27184
820.324	27081
820.465	27150
820.605	26921
820.746	27180
820.886	26921
821.026	27085
821.167	27017
821.307	27024
821.447	26891
821.588	26796
821.728	26845
821.868	26568
822.008	26461
822.149	26374
822.289	26294
822.429	26149
822.569	26187
822.709	26039
822.849	25871
822.99	25837
823.13	25898
823.27	25909
823.41	25670
823.55	25677
823.69	25860
823.83	25742
823.97	25674
824.11	25540
824.25	25438
824.389	25464
824.529	25685
824.669	25594
824.809	25571
824.949	25624
825.089	25578
825.228	25685
825.368	25438
825.508	25381
825.648	25358
825.787	25335
825.927	25373
826.067	25312
826.206	25289
826.346	25354
826.485	25324
826.625	25312
826.765	25449
826.904	25415
827.044	25141
827.183	25038
827.323	24981
827.462	25088
827.601	25061
827.741	24973
827.88	25053
828.02	24837
828.159	25004
828.298	25080
828.437	24989
828.577	24928
828.716	24977
828.855	25046
828.994	24589
829.134	24760
829.273	24772
829.412	24677
829.551	24578
829.69	24608
829.829	24654
829.968	24772
830.107	24726
830.246	24715
830.385	24604
830.524	24642
830.663	24448
830.802	24418
830.941	24330
831.08	24159
831.219	24334
831.357	24414
831.496	24437
831.635	24281
831.774	24247
831.913	24152
832.051	24038
832.19	24117
832.329	24011
832.467	23996
832.606	23756
832.744	23923
832.883	23897
833.022	23916
833.16	23958
833.299	23889
833.437	23920
833.576	24030
833.714	24011
833.852	24015
833.991	24148
834.129	24095
834.267	24087
834.406	23996
834.544	23980
834.682	23912
834.821	23836
834.959	24114
835.097	23958
835.235	24045
835.373	23870
835.511	23855
835.65	23775
835.788	23779
835.926	23600
836.064	23634
836.202	23589
836.34	23786
836.478	23874
836.615	23790
836.753	23794
836.891	23889
837.029	23737
837.167	23752
837.305	23668
837.443	23619
837.58	23687
837.718	23638
837.856	23585
837.993	23680
838.131	23695
838.269	23551
838.406	23467
838.544	23410
838.681	23250
838.819	23227
838.956	23147
839.094	23170
839.231	23098
839.369	23330
839.506	23505
839.643	23478
839.781	23075
839.918	22911
840.055	23128
840.193	22987
840.33	22904
840.467	22968
840.604	23041
840.742	23334
840.879	22816
841.016	22953
841.153	22923
841.29	22904
841.427	22885
841.564	22980
841.701	22850
841.838	22847
841.975	22889
842.112	22869
842.249	22927
842.385	22771
842.522	23003
842.659	22763
842.796	22645
842.933	22687
843.069	22660
843.206	22615
843.343	22713
843.479	22725
843.616	22691
843.752	22542
843.889	22493
844.025	22557
844.162	22523
844.298	22523
844.435	22402
844.571	22432
844.708	22360
844.844	22618
844.98	22653
845.117	22523
845.253	22382
845.389	22318
845.525	22417
845.661	22291
845.798	22185
845.934	22188
846.07	22131
846.206	22177
846.342	22318
846.478	22105
846.614	21915
846.75	21979
846.886	21846
847.022	21964
847.158	21994
847.294	21831
847.429	21968
847.565	21800
847.701	22223
847.837	21755
847.972	21515
848.108	21698
848.244	21610
848.379	21420
848.515	21435
848.65	21408
848.786	21523
848.921	21458
849.057	21568
849.192	21587
849.328	21572
849.463	21496
849.598	21477
849.734	21245
849.869	21325
850.004	21306
850.14	21207
850.275	21348
850.41	21100
850.545	21154
850.68	21214
850.815	21291
850.95	21222
851.085	21416
851.22	21367
851.355	21351
851.49	21203
851.625	21138
851.76	21142
851.895	21226
852.03	21173
852.165	21173
852.299	21249
852.434	21317
852.569	21157
852.703	21214
852.838	21214
852.973	21317
853.107	21294
853.242	21214
853.376	20982
853.511	20979
853.645	21032
853.78	21150
853.914	20990
854.048	21081
854.183	20967
854.317	20960
854.451	21146
854.585	21074
854.72	21135
854.854	21024
854.988	21036
855.122	21096
855.256	20876
855.39	20990
855.524	21070
855.658	20982
855.792	20982
855.926	21058
856.06	21108
856.194	21112
856.327	21043
856.461	21138
856.595	20944
856.729	21017
856.862	21009
856.996	21100
857.13	21192
857.263	21074
857.397	21058
857.53	20956
857.664	20982
857.797	21146
857.931	21135
858.064	20956
858.197	21093
858.331	21013
858.464	21028
858.597	20910
858.731	20933
858.864	20868
858.997	20941
859.13	21009
859.263	21047
859.396	21138
859.529	21058
859.662	21028
859.795	20929
859.928	21081
860.061	21207
860.194	21116
860.327	21077
860.46	21051
860.592	21039
860.725	21237
860.858	21154
860.99	20937
861.123	20899
861.256	21066
861.388	21047
861.521	21580
861.653	20845
861.786	20868
861.918	20849
862.05	20971
862.183	20948
862.315	21138
862.447	20982
862.58	20956
862.712	20918
862.844	20644
862.976	20720
863.108	20785
863.24	21184
863.372	20754
863.504	20750
863.636	20785
863.768	20693
863.9	20765
864.032	20682
864.164	20708
864.296	20750
864.428	20830
864.559	20621
864.691	20887
864.823	20659
864.954	20629
865.086	20800
865.217	20678
865.349	20556
865.48	20640
865.612	20678
865.743	20769
865.875	20632
866.006	20492
866.137	20602
866.269	20613
866.4	20594
866.531	20648
866.662	20613
866.793	20541
866.924	20495
867.055	20564
867.186	20442
867.317	20552
867.448	20495
867.579	20495
867.71	20385
867.841	20389
867.972	20629
868.103	20629
868.233	20678
868.364	20556
868.495	20575
868.625	20785
868.756	20838
868.886	20606
869.017	20838
869.147	20956
869.278	20872
869.408	20754
869.539	20739
869.669	20807
869.799	20781
869.929	20937
870.06	20811
870.19	21081
870.32	21074
870.45	21214
870.58	21218
870.71	21386
870.84	21302
870.97	21245
871.1	21192
871.23	21477
871.36	21389
871.489	21226
871.619	21363
871.749	21447
871.879	21351
872.008	21428
872.138	21405
872.267	21317
872.397	21378
872.526	21188
872.656	21230
872.785	21207
872.915	21302
873.044	21428
873.173	21412
873.303	21401
873.432	21507
873.561	21504
873.69	21325
873.819	21443
873.948	21534
874.077	21500
874.206	21313
874.335	21500
874.464	21542
874.593	21671
874.722	21637
874.851	21660
874.979	21660
875.108	21724
875.237	21663
875.365	21469
875.494	21595
875.623	21743
875.751	21633
875.88	21625
876.008	21880
876.136	21895
876.265	22124
876.393	22204
876.521	22139
876.65	22074
876.778	22101
876.906	22120
877.034	21968
877.162	22051
877.29	21953
877.418	22059
877.546	22032
877.674	22082
877.802	22074
877.93	22010
878.058	21945
878.185	22017
878.313	21907
878.441	21857
878.568	21873
878.696	21994
878.824	21968
878.951	22109
879.079	22147
879.206	22230
879.333	22215
879.461	22021
879.588	22055
879.715	22150
879.842	22188
879.97	22070
880.097	21808
880.224	21663
880.351	21922
880.478	21789
880.605	21861
880.732	21865
880.859	22097
880.986	21800
881.112	21850
881.239	21629
881.366	21633
881.493	21496
881.619	21515
881.746	21408
881.872	21370
881.999	21287
882.125	21321
882.252	21545
882.378	21424
882.505	21507
882.631	21298
882.757	21081
882.883	21138
883.01	21062
883.136	21077
883.262	21089
883.388	20937
883.514	21150
883.64	21199
883.766	21062
883.892	20819
884.018	21032
884.143	20986
884.269	21020
884.395	20746
884.52	20708
884.646	20857
884.772	20693
884.897	20625
885.023	20693
885.148	20899
885.274	20925
885.399	20842
885.524	20705
885.65	20727
885.775	20743
885.9	20773
886.025	20872
886.15	20777
886.275	20659
886.4	20701
886.525	20575
886.65	20735
886.775	20629
886.9	20800
887.025	20948
887.149	20826
887.274	20564
887.399	20606
887.523	20522
887.648	20537
887.773	20457
887.897	20617
888.021	20469
888.146	20476
888.27	20560
888.395	20606
888.519	20583
888.643	20609
888.767	20446
888.891	20461
889.015	20317
889.139	20492
889.263	20240
889.387	20495
889.511	20655
889.635	20427
889.759	20313
889.883	20263
890.006	20339
890.13	20442
890.254	20229
890.377	20218
890.501	20092
890.624	20008
890.748	19986
890.871	19894
890.995	19974
891.118	19917
891.241	19856
891.364	19959
891.488	20111
891.611	19932
891.734	19925
891.857	19974
891.98	19871
892.103	19928
892.226	19856
892.349	19883
892.471	19681
892.594	19841
892.717	19868
892.839	19765
892.962	19826
893.085	19788
893.207	19849
893.33	19765
893.452	19696
893.575	19849
893.697	19712
893.819	19894
893.941	20020
894.064	19799
894.186	19807
894.308	19761
894.43	19826
894.552	19902
894.674	19852
894.796	19719
894.918	19746
895.04	19757
895.161	19849
895.283	19750
895.405	19635
895.526	19811
895.648	19799
895.769	19864
895.891	19803
896.012	19947
896.134	19875
896.255	19814
896.376	19761
896.498	19826
896.619	19734
896.74	19708
896.861	19852
896.982	20199
897.103	20339
897.224	20237
897.345	20164
897.466	20035
897.587	20001
897.708	20130
897.828	20050
897.949	19993
898.07	19807
898.19	20008
898.311	20031
898.431	19932
898.552	19947
898.672	20058
898.792	20119
898.913	20062
899.033	19799
899.153	19841
899.273	19651
899.393	19822
899.513	19647
899.633	19826
899.753	19757
899.873	19647
899.993	19811
900.113	19704
900.232	19822
900.352	19807
900.472	19620
900.591	19510
900.711	19647
900.83	19502
900.95	19647
901.069	19643
901.189	19468
901.308	19247
901.427	19156
901.546	19133
901.665	19148
901.784	19183
901.904	19076
902.023	18958
902.141	18726
902.26	18658
902.379	18802
902.498	18669
902.617	18570
902.735	18631
902.854	18654
902.973	18570
903.091	18380
903.21	18372
903.328	18315
903.446	18220
903.565	18194
903.683	18167
903.801	18011
903.919	18091
904.038	18038
904.156	17977
904.274	18011
904.392	18007
904.51	17958
904.627	17847
904.745	18003
904.863	18049
904.981	17756
905.098	17535
905.216	17516
905.334	17581
905.451	17478
905.569	17585
905.686	17665
905.803	17619
905.921	17330
906.038	17459
906.155	17398
906.272	17250
906.389	17315
906.506	17098
906.623	17166
906.74	17075
906.857	16980
906.974	17025
907.091	17109
907.208	17197
907.324	17143
907.441	17090
907.557	16786
907.674	16752
907.79	16725
907.907	16816
908.023	16949
908.139	16843
908.256	16767
908.372	16782
908.488	16630
908.604	16432
908.72	16516
908.836	16645
908.952	16569
909.068	16462
909.184	16569
909.3	16470
909.415	16527
909.531	16497
909.647	16268
909.762	16200
909.878	16192
909.993	16200
910.108	16196
910.224	16150
910.339	16154
910.454	16169
910.57	16048
910.685	15949
910.8	16314
910.915	16188
911.03	16067
911.145	15930
911.259	15793
911.374	15751
911.489	15739
911.604	15709
911.718	15526
911.833	15549
911.947	15420
912.062	15428
912.176	15671
912.291	15606
912.405	15652
912.519	15766
912.633	15728
912.748	15663
912.862	15481
912.976	15302
913.09	15203
913.204	15317
913.318	15351
913.431	15488
913.545	15420
913.659	15500
913.772	15306
913.886	15241
914	15165
914.113	15233
914.226	15313
914.34	15272
914.453	15074
914.566	15260
914.68	15104
914.793	15081
914.906	14921
915.019	14876
915.132	14693
915.245	14750
915.358	14849
915.47	14883
915.583	14937
915.696	14838
915.809	14834
915.921	14914
916.034	14735
916.146	14727
916.259	14655
916.371	14861
916.483	14785
916.595	14644
916.708	14583
916.82	14621
916.932	14632
917.044	14590
917.156	14583
917.268	14358
917.38	14465
917.491	14495
917.603	14541
917.715	14564
917.826	14545
917.938	14374
918.049	14324
918.161	14362
918.272	14518
918.384	14480
918.495	14473
918.606	14229
918.717	14176
918.828	14374
918.939	14309
919.05	14126
919.161	14221
919.272	14031
919.383	13970
919.494	14244
919.604	14427
919.715	14142
919.826	14081
919.936	14176
920.047	14278
920.157	14290
920.267	14370
920.378	14221
920.488	14153
920.598	14332
920.708	14423
920.818	14252
920.928	14271
921.038	14454
921.148	14492
921.258	14107
921.368	14084
921.477	13837
921.587	13909
921.697	13738
921.806	13925
921.916	13788
922.025	13674
922.134	13567
922.244	13540
922.353	13620
922.462	13464
922.571	13373
922.68	13266
922.789	13225
922.898	13160
923.007	13183
923.116	13225
923.224	13152
923.333	13190
923.442	13076
923.55	12996
923.659	13072
923.767	13061
923.876	13061
923.984	13053
924.092	12993
924.201	12905
924.309	12905
924.417	12973
924.525	12875
924.633	12894
924.741	13727
924.849	12662
924.956	12894
925.064	12700
925.172	12536
925.279	12612
925.387	12639
925.494	12696
925.602	12840
925.709	12616
925.816	12509
925.924	12528
926.031	12688
926.138	12620
926.245	12665
926.352	12506
926.459	12662
926.566	12604
926.673	12616
926.779	12483
926.886	12277
926.993	12311
927.099	12346
927.206	12220
927.312	12197
927.419	12235
927.525	12292
927.631	12243
927.737	12155
927.843	12064
927.95	12064
928.056	12049
928.162	12114
928.267	12144
928.373	12802
928.479	12213
928.585	11851
928.69	12121
928.796	12087
928.901	11950
929.007	11809
929.112	11961
929.218	11901
929.323	11897
929.428	11840
929.533	11859
929.638	11809
929.743	11752
929.848	11824
929.953	11729
930.058	11680
930.163	11551
930.267	11516
930.372	11634
930.477	11459
930.581	11699
930.685	11566
930.79	11353
930.894	11452
930.998	11414
931.103	11482
931.207	11094
931.311	11071
931.415	11045
931.519	10866
931.623	10744
