Data from test_V78500241_3131.txt Node
Date: Fri Mar 25 16:03:29 CST 2022
User: usil
Spectrometer: V785-0024
Trigger mode: 0
Integration Time (sec): 4.000000E-1
Scans to average: 1
Nonlinearity correction enabled: false
Boxcar width: 0
Storing dark spectrum: false
XAxis mode: Wavelengths
Number of Pixels in Spectrum: 1024
>>>>>Begin Spectral Data<<<<<
801.071	29003
801.214	28866
801.356	28664
801.499	28561
801.641	28519
801.783	28443
801.926	28554
802.068	28462
802.211	28478
802.353	28200
802.496	28150
802.638	28200
802.78	28135
802.923	28074
803.065	28078
803.208	28128
803.35	28211
803.492	28333
803.635	28386
803.777	28401
803.919	28481
804.061	28698
804.204	28428
804.346	28405
804.488	28295
804.63	28485
804.773	28295
804.915	28455
805.057	28337
805.199	28306
805.341	28580
805.483	28516
805.626	28443
805.768	28478
805.91	28615
806.052	28554
806.194	28596
806.336	28672
806.478	28618
806.62	28455
806.762	28687
806.904	28805
807.046	28961
807.188	29048
807.33	29010
807.472	29151
807.614	28904
807.756	29064
807.898	28869
808.04	28801
808.182	28965
808.324	28850
808.465	28839
808.607	29193
808.749	29322
808.891	29330
809.033	29440
809.174	29349
809.316	29159
809.458	29277
809.6	29220
809.741	29364
809.883	29551
810.025	29459
810.166	29501
810.308	29509
810.45	29539
810.591	29501
810.733	29326
810.875	29242
811.016	29303
811.158	29280
811.299	29261
811.441	29535
811.582	29459
811.724	29303
811.865	29246
812.007	29368
812.148	29356
812.29	29311
812.431	29391
812.573	29672
812.714	29741
812.855	29764
812.997	29927
813.138	30041
813.279	29954
813.421	29805
813.562	29737
813.703	29695
813.845	29436
813.986	29334
814.127	29102
814.268	28934
814.41	28904
814.551	29071
814.692	29006
814.833	28987
814.974	28980
815.115	29083
815.256	29044
815.397	28877
815.539	28930
815.68	28892
815.821	28862
815.962	28767
816.103	28797
816.244	28569
816.385	28542
816.526	28611
816.666	28466
816.807	28451
816.948	28421
817.089	28573
817.23	28504
817.371	28481
817.512	28443
817.653	28341
817.793	28253
817.934	28318
818.075	28413
818.216	28356
818.356	28310
818.497	28158
818.638	28120
818.778	28090
818.919	28067
819.06	28105
819.2	28177
819.341	28215
819.481	28253
819.622	28466
819.762	28778
819.903	28839
820.043	28500
820.184	28577
820.324	28447
820.465	28401
820.605	28565
820.746	28325
820.886	28386
821.026	28382
821.167	28295
821.307	28485
821.447	28314
821.588	28109
821.728	28185
821.868	28070
822.008	27846
822.149	27797
822.289	27850
822.429	27583
822.569	27538
822.709	27469
822.849	27389
822.99	27310
823.13	27321
823.27	27378
823.41	27058
823.55	26975
823.69	27146
823.83	27245
823.97	26937
824.11	27051
824.25	26940
824.389	26994
824.529	27070
824.669	27013
824.809	27188
824.949	27039
825.089	27020
825.228	27066
825.368	26735
825.508	26834
825.648	26834
825.787	26986
825.927	26960
826.067	26933
826.206	26891
826.346	26883
826.485	27039
826.625	26838
826.765	26948
826.904	26914
827.044	26720
827.183	26682
827.323	26507
827.462	26682
827.601	26587
827.741	26503
827.88	26670
828.02	26575
828.159	26488
828.298	26545
828.437	26644
828.577	26549
828.716	26727
828.855	26568
828.994	26328
829.134	26229
829.273	26324
829.412	26278
829.551	26377
829.69	26267
829.829	26434
829.968	26290
830.107	26427
830.246	26278
830.385	26199
830.524	26088
830.663	26027
830.802	26058
830.941	25864
831.08	25902
831.219	25970
831.357	26054
831.496	26115
831.635	25902
831.774	25856
831.913	25727
832.051	25734
832.19	25791
832.329	25757
832.467	25525
832.606	25457
832.744	25594
832.883	25491
833.022	25419
833.16	25578
833.299	25582
833.437	25590
833.576	25586
833.714	25727
833.852	25772
833.991	25700
834.129	25696
834.267	25769
834.406	25605
834.544	25586
834.682	25540
834.821	25616
834.959	25795
835.097	25559
835.235	25586
835.373	25502
835.511	25586
835.65	25419
835.788	25491
835.926	25293
836.064	25171
836.202	25304
836.34	25396
836.478	25441
836.615	25460
836.753	25419
836.891	25597
837.029	25453
837.167	25316
837.305	25339
837.443	25331
837.58	25206
837.718	25419
837.856	25285
837.993	25076
838.131	25251
838.269	25152
838.406	25072
838.544	25122
838.681	24802
838.819	24878
838.956	24719
839.094	24635
839.231	24764
839.369	24814
839.506	25122
839.643	24989
839.781	24574
839.918	24734
840.055	24677
840.193	24779
840.33	24734
840.467	24707
840.604	24612
840.742	24882
840.879	24540
841.016	24696
841.153	24616
841.29	24665
841.427	24654
841.564	24738
841.701	24642
841.838	24623
841.975	24528
842.112	24555
842.249	24475
842.385	24388
842.522	24566
842.659	24528
842.796	24433
842.933	24395
843.069	24452
843.206	24273
843.343	24395
843.479	24540
843.616	24403
843.752	24194
843.889	24091
844.025	24342
844.162	24045
844.298	24194
844.435	24216
844.571	24091
844.708	24357
844.844	24346
844.98	24266
845.117	24369
845.253	24117
845.389	24072
845.525	24060
845.661	24038
845.798	23908
845.934	23843
846.07	23821
846.206	23836
846.342	24030
846.478	23931
846.614	23604
846.75	23543
846.886	23596
847.022	23710
847.158	23691
847.294	23646
847.429	23695
847.565	23474
847.701	23904
847.837	23414
847.972	23258
848.108	23467
848.244	23379
848.379	23273
848.515	23170
848.65	23227
848.786	23273
848.921	23193
849.057	23307
849.192	23261
849.328	23227
849.463	23250
849.598	23185
849.734	23166
849.869	23079
850.004	22984
850.14	23025
850.275	22881
850.41	22900
850.545	22854
850.68	23025
850.815	23102
850.95	22908
851.085	23143
851.22	23067
851.355	22938
851.49	22946
851.625	23025
851.76	22938
851.895	22850
852.03	22904
852.165	22953
852.299	23018
852.434	23037
852.569	23022
852.703	23003
852.838	23140
852.973	23064
853.107	23052
853.242	22816
853.376	22850
853.511	22831
853.645	22786
853.78	23083
853.914	22702
854.048	22744
854.183	22847
854.317	22767
854.451	22965
854.585	22873
854.72	22831
854.854	22991
854.988	22877
855.122	22706
855.256	22679
855.39	22847
855.524	22835
855.658	22843
855.792	22786
855.926	22733
856.06	22801
856.194	22862
856.327	22797
856.461	22778
856.595	22649
856.729	22733
856.862	22911
856.996	22896
857.13	22805
857.263	22858
857.397	22930
857.53	22892
857.664	22759
857.797	22839
857.931	22976
858.064	22953
858.197	22915
858.331	22763
858.464	22687
858.597	22687
858.731	22805
858.864	22812
858.997	22740
859.13	22710
859.263	22812
859.396	22824
859.529	22763
859.662	22774
859.795	22691
859.928	22774
860.061	22953
860.194	22965
860.327	22908
860.46	22573
860.592	23006
860.725	23048
860.858	22995
860.99	22900
861.123	22805
861.256	22729
861.388	22850
861.521	23349
861.653	22748
861.786	22565
861.918	22698
862.05	22687
862.183	22615
862.315	22607
862.447	22873
862.58	22588
862.712	22713
862.844	22493
862.976	22550
863.108	22508
863.24	22850
863.372	22493
863.504	22519
863.636	22542
863.768	22478
863.9	22413
864.032	22500
864.164	22493
864.296	22443
864.428	22538
864.559	22656
864.691	22554
864.823	22398
864.954	22398
865.086	22497
865.217	22405
865.349	22337
865.48	22253
865.612	22249
865.743	22535
865.875	22367
866.006	22303
866.137	22265
866.269	22379
866.4	22360
866.531	22405
866.662	22299
866.793	22295
866.924	22333
867.055	22402
867.186	22367
867.317	22291
867.448	22242
867.579	22181
867.71	22154
867.841	22093
867.972	22295
868.103	22295
868.233	22295
868.364	22253
868.495	22360
868.625	22455
868.756	22790
868.886	22455
869.017	22470
869.147	22733
869.278	22713
869.408	22561
869.539	22580
869.669	22603
869.799	22702
869.929	22653
870.06	22630
870.19	22976
870.32	22835
870.45	22927
870.58	22889
870.71	22972
870.84	23147
870.97	22957
871.1	23060
871.23	22999
871.36	23117
871.489	23098
871.619	23124
871.749	23124
871.879	23124
872.008	23254
872.138	23204
872.267	23136
872.397	23003
872.526	22889
872.656	23014
872.785	23132
872.915	23155
873.044	23136
873.173	23136
873.303	23311
873.432	23200
873.561	23353
873.69	23269
873.819	23284
873.948	23151
874.077	23220
874.206	23189
874.335	23204
874.464	23368
874.593	23349
874.722	23425
874.851	23417
874.979	23497
875.108	23433
875.237	23440
875.365	23356
875.494	23417
875.623	23539
875.751	23372
875.88	23345
876.008	23471
876.136	23623
876.265	23855
876.393	23969
876.521	23863
876.65	23908
876.778	23687
876.906	23748
877.034	23790
877.162	23756
877.29	23718
877.418	23817
877.546	23779
877.674	23745
877.802	23680
877.93	23695
878.058	23756
878.185	23676
878.313	23794
878.441	23771
878.568	23676
878.696	23805
878.824	23882
878.951	23813
879.079	23988
879.206	24045
879.333	23847
879.461	23809
879.588	23836
879.715	23916
879.842	23923
879.97	23882
880.097	23471
880.224	23535
880.351	23592
880.478	23482
880.605	23414
880.732	23627
880.859	23745
880.986	23516
881.112	23661
881.239	23387
881.366	23368
881.493	23235
881.619	23102
881.746	23197
881.872	23113
881.999	23147
882.125	23029
882.252	23105
882.378	22942
882.505	23223
882.631	23075
882.757	22892
882.883	22873
883.01	22828
883.136	22755
883.262	22637
883.388	22542
883.514	22793
883.64	22771
883.766	22713
883.892	22523
884.018	22573
884.143	22687
884.269	22850
884.395	22504
884.52	22322
884.646	22462
884.772	22360
884.897	22367
885.023	22527
885.148	22440
885.274	22550
885.399	22455
885.524	22386
885.65	22432
885.775	22451
885.9	22341
886.025	22493
886.15	22470
886.275	22417
886.4	22371
886.525	22344
886.65	22272
886.775	22356
886.9	22474
887.025	22474
887.149	22314
887.274	22246
887.399	22112
887.523	22166
887.648	22135
887.773	22086
887.897	22291
888.021	22181
888.146	22048
888.27	22318
888.395	22329
888.519	22257
888.643	22207
888.767	22310
888.891	22093
889.015	21854
889.139	22006
889.263	22025
889.387	22055
889.511	22044
889.635	22017
889.759	21949
889.883	21953
890.006	21884
890.13	22078
890.254	21778
890.377	21835
890.501	21644
890.624	21736
890.748	21762
890.871	21515
890.995	21561
891.118	21435
891.241	21595
891.364	21420
891.488	21656
891.611	21492
891.734	21519
891.857	21523
891.98	21473
892.103	21507
892.226	21420
892.349	21530
892.471	21367
892.594	21462
892.717	21462
892.839	21313
892.962	21435
893.085	21397
893.207	21462
893.33	21214
893.452	21332
893.575	21424
893.697	21272
893.819	21561
893.941	21610
894.064	21572
894.186	21310
894.308	21374
894.43	21435
894.552	21515
894.674	21408
894.796	21344
894.918	21325
895.04	21218
895.161	21462
895.283	21420
895.405	21340
895.526	21412
895.648	21298
895.769	21359
895.891	21443
896.012	21397
896.134	21386
896.255	21298
896.376	21355
896.498	21287
896.619	21313
896.74	21268
896.861	21367
896.982	21572
897.103	21774
897.224	21629
897.345	21591
897.466	21458
897.587	21606
897.708	21625
897.828	21637
897.949	21462
898.07	21302
898.19	21401
898.311	21595
898.431	21485
898.552	21561
898.672	21614
898.792	21732
898.913	21561
899.033	21561
899.153	21348
899.273	21222
899.393	21203
899.513	21317
899.633	21275
899.753	21428
899.873	21237
899.993	21184
900.113	21127
900.232	21279
900.352	21154
900.472	21161
900.591	21093
900.711	21165
900.83	21020
900.95	21055
901.069	21051
901.189	20986
901.308	20636
901.427	20632
901.546	20530
901.665	20629
901.784	20659
901.904	20419
902.023	20381
902.141	20199
902.26	20134
902.379	20202
902.498	20035
902.617	20012
902.735	20164
902.854	20073
902.973	20001
903.091	19780
903.21	19776
903.328	19795
903.446	19826
903.565	19643
903.683	19544
903.801	19468
903.919	19525
904.038	19472
904.156	19324
904.274	19472
904.392	19236
904.51	19289
904.627	19381
904.745	19285
904.863	19426
904.981	19057
905.098	19050
905.216	18989
905.334	19053
905.451	19031
905.569	18947
905.686	19057
905.803	18859
905.921	18669
906.038	18909
906.155	18852
906.272	18650
906.389	18749
906.506	18559
906.623	18471
906.74	18532
906.857	18498
906.974	18414
907.091	18502
907.208	18578
907.324	18532
907.441	18399
907.557	18186
907.674	18243
907.79	18087
907.907	18178
908.023	18194
908.139	18186
908.256	18121
908.372	18064
908.488	18076
908.604	17885
908.72	17958
908.836	17931
908.952	17916
909.068	17885
909.184	18136
909.3	17931
909.415	17920
909.531	17935
909.647	17714
909.762	17661
909.878	17528
909.993	17726
910.108	17490
910.224	17615
910.339	17596
910.454	17463
910.57	17360
910.685	17265
910.8	17486
910.915	17471
911.03	17360
911.145	17299
911.259	17102
911.374	17132
911.489	17109
911.604	17094
911.718	16866
911.833	16930
911.947	16763
912.062	16858
912.176	16892
912.291	16869
912.405	16881
912.519	17174
912.633	17140
912.748	16946
912.862	16831
912.976	16694
913.09	16622
913.204	16691
913.318	16683
913.431	16778
913.545	16934
913.659	16820
913.772	16733
913.886	16485
914	16535
914.113	16649
914.226	16717
914.34	16538
914.453	16341
914.566	16626
914.68	16363
914.793	16367
914.906	16253
915.019	16059
915.132	16090
915.245	16029
915.358	16105
915.47	16223
915.583	16169
915.696	16101
915.809	16173
915.921	16280
916.034	16032
916.146	16082
916.259	15994
916.371	16055
916.483	15975
916.595	15846
916.708	15911
916.82	15831
916.932	15804
917.044	15983
917.156	15793
917.268	15728
917.38	15732
917.491	15690
917.603	15679
917.715	15793
917.826	15800
917.938	15660
918.049	15523
918.161	15595
918.272	15797
918.384	15717
918.495	15739
918.606	15500
918.717	15389
918.828	15549
918.939	15504
919.05	15336
919.161	15389
919.272	15146
919.383	15264
919.494	15450
919.604	15591
919.715	15428
919.826	15272
919.936	15359
920.047	15367
920.157	15340
920.267	15705
920.378	15412
920.488	15310
920.598	15538
920.708	15766
920.818	15557
920.928	15599
921.038	15732
921.148	15595
921.258	15313
921.368	15245
921.477	15127
921.587	15062
921.697	14944
921.806	15123
921.916	14918
922.025	14804
922.134	14857
922.244	14659
922.353	14777
922.462	14648
922.571	14514
922.68	14324
922.789	14431
922.898	14454
923.007	14332
923.116	14469
923.224	14381
923.333	14294
923.442	14278
923.55	14195
923.659	14161
923.767	14290
923.876	14149
923.984	14229
924.092	14100
924.201	14187
924.309	14031
924.417	14031
924.525	13940
924.633	14020
924.741	14724
924.849	13894
924.956	13932
925.064	13837
925.172	13658
925.279	13677
925.387	13723
925.494	13788
925.602	13852
925.709	13731
925.816	13632
925.924	13727
926.031	13704
926.138	13776
926.245	13750
926.352	13578
926.459	13814
926.566	13746
926.673	13651
926.779	13476
926.886	13472
926.993	13327
927.099	13251
927.206	13293
927.312	13232
927.419	13263
927.525	13350
927.631	13232
927.737	13095
927.843	13152
927.95	12973
928.056	13156
928.162	13110
928.267	13118
928.373	13681
928.479	13152
928.585	12901
928.69	13015
928.796	13091
928.901	13004
929.007	12806
929.112	12890
929.218	12897
929.323	12863
929.428	12749
929.533	12924
929.638	12738
929.743	12711
929.848	12787
929.953	12726
930.058	12623
930.163	12479
930.267	12448
930.372	12639
930.477	12448
930.581	12635
930.685	12403
930.79	12407
930.894	12388
930.998	12311
931.103	12433
931.207	12076
931.311	12011
931.415	11821
931.519	11737
931.623	11737
