Data from test_V78500241_3359.txt Node
Date: Fri Mar 25 16:05:04 CST 2022
User: usil
Spectrometer: V785-0024
Trigger mode: 0
Integration Time (sec): 4.000000E-1
Scans to average: 1
Nonlinearity correction enabled: false
Boxcar width: 0
Storing dark spectrum: false
XAxis mode: Wavelengths
Number of Pixels in Spectrum: 1024
>>>>>Begin Spectral Data<<<<<
801.071	28999
801.214	28980
801.356	28767
801.499	28691
801.641	28706
801.783	28440
801.926	28710
802.068	28630
802.211	28546
802.353	28531
802.496	28291
802.638	28352
802.78	28253
802.923	28333
803.065	28268
803.208	28398
803.35	28322
803.492	28451
803.635	28485
803.777	28523
803.919	28584
804.061	28904
804.204	28649
804.346	28451
804.488	28451
804.63	28679
804.773	28596
804.915	28710
805.057	28850
805.199	28618
805.341	28664
805.483	28729
805.626	28672
805.768	28599
805.91	28744
806.052	28885
806.194	28694
806.336	28900
806.478	28679
806.62	28736
806.762	29037
806.904	29117
807.046	29387
807.188	29174
807.33	29322
807.472	29360
807.614	29273
807.756	29109
807.898	29029
808.04	28984
808.182	29090
808.324	29124
808.465	29064
808.607	29383
808.749	29539
808.891	29642
809.033	29665
809.174	29512
809.316	29596
809.458	29444
809.6	29258
809.741	29554
809.883	29783
810.025	29680
810.166	29783
810.308	29729
810.45	29828
810.591	29703
810.733	29592
810.875	29459
811.016	29414
811.158	29387
811.299	29608
811.441	29619
811.582	29608
811.724	29589
811.865	29687
812.007	29684
812.148	29429
812.29	29668
812.431	29585
812.573	29889
812.714	30011
812.855	29969
812.997	30129
813.138	30342
813.279	30300
813.421	29901
813.562	29984
813.703	29798
813.845	29714
813.986	29547
814.127	29364
814.268	29212
814.41	29212
814.551	29212
814.692	29364
814.833	29181
814.974	29269
815.115	29208
815.256	29185
815.397	29094
815.539	29060
815.68	29128
815.821	29064
815.962	29090
816.103	29014
816.244	28839
816.385	28881
816.526	28793
816.666	28691
816.807	28615
816.948	28554
817.089	28812
817.23	28561
817.371	28527
817.512	28569
817.653	28618
817.793	28557
817.934	28637
818.075	28634
818.216	28573
818.356	28504
818.497	28356
818.638	28284
818.778	28360
818.919	28379
819.06	28390
819.2	28504
819.341	28622
819.481	28683
819.622	28862
819.762	28984
819.903	28805
820.043	28824
820.184	28694
820.324	28588
820.465	28881
820.605	28790
820.746	28634
820.886	28615
821.026	28668
821.167	28679
821.307	28923
821.447	28478
821.588	28508
821.728	28375
821.868	28211
822.008	28021
822.149	28135
822.289	28105
822.429	27854
822.569	27705
822.709	27895
822.849	27644
822.99	27622
823.13	27641
823.27	27416
823.41	27458
823.55	27230
823.69	27389
823.83	27408
823.97	27348
824.11	27180
824.25	27268
824.389	27291
824.529	27302
824.669	27192
824.809	27302
824.949	27226
825.089	27283
825.228	27386
825.368	27192
825.508	27066
825.648	27077
825.787	27138
825.927	27313
826.067	27036
826.206	27173
826.346	27272
826.485	27237
826.625	27119
826.765	27203
826.904	27184
827.044	26902
827.183	27013
827.323	26899
827.462	26876
827.601	26971
827.741	26883
827.88	26902
828.02	26667
828.159	26807
828.298	26800
828.437	26944
828.577	26788
828.716	26883
828.855	26712
828.994	26514
829.134	26514
829.273	26587
829.412	26476
829.551	26564
829.69	26396
829.829	26514
829.968	26621
830.107	26587
830.246	26541
830.385	26434
830.524	26370
830.663	26328
830.802	26237
830.941	26111
831.08	26126
831.219	26324
831.357	26244
831.496	26393
831.635	26126
831.774	26096
831.913	26024
832.051	25955
832.19	25795
832.329	25944
832.467	25814
832.606	25750
832.744	25693
832.883	25769
833.022	25811
833.16	25693
833.299	25978
833.437	25750
833.576	25818
833.714	25906
833.852	25784
833.991	25871
834.129	25959
834.267	25970
834.406	25940
834.544	25932
834.682	25879
834.821	25807
834.959	26092
835.097	25780
835.235	25879
835.373	25852
835.511	25803
835.65	25643
835.788	25837
835.926	25582
836.064	25491
836.202	25540
836.34	25791
836.478	25826
836.615	25769
836.753	25704
836.891	25708
837.029	25559
837.167	25655
837.305	25578
837.443	25533
837.58	25422
837.718	25559
837.856	25597
837.993	25472
838.131	25537
838.269	25362
838.406	25468
838.544	25396
838.681	25129
838.819	25069
838.956	25027
839.094	24837
839.231	24992
839.369	25110
839.506	25411
839.643	25194
839.781	24962
839.918	24878
840.055	25053
840.193	24932
840.33	24821
840.467	24897
840.604	25008
840.742	25012
840.879	24688
841.016	24886
841.153	24688
841.29	24992
841.427	24985
841.564	24844
841.701	24829
841.838	24787
841.975	24741
842.112	24852
842.249	24700
842.385	24688
842.522	24894
842.659	24776
842.796	24787
842.933	24547
843.069	24593
843.206	24688
843.343	24715
843.479	24738
843.616	24551
843.752	24426
843.889	24471
844.025	24513
844.162	24429
844.298	24498
844.435	24403
844.571	24448
844.708	24361
844.844	24593
844.98	24509
845.117	24525
845.253	24380
845.389	24289
845.525	24270
845.661	24239
845.798	24190
845.934	24110
846.07	24152
846.206	24018
846.342	24182
846.478	23946
846.614	23969
846.75	23863
846.886	23893
847.022	23885
847.158	24030
847.294	23882
847.429	23878
847.565	23878
847.701	23992
847.837	23707
847.972	23638
848.108	23703
848.244	23699
848.379	23528
848.515	23376
848.65	23349
848.786	23490
848.921	23372
849.057	23528
849.192	23562
849.328	23524
849.463	23379
849.598	23379
849.734	23337
849.869	23288
850.004	23185
850.14	23315
850.275	23208
850.41	23143
850.545	23189
850.68	23098
850.815	23277
850.95	23185
851.085	23288
851.22	23292
851.355	23307
851.49	23216
851.625	23200
851.76	23334
851.895	23155
852.03	23170
852.165	23189
852.299	23265
852.434	23345
852.569	23242
852.703	23197
852.838	23193
852.973	23368
853.107	23341
853.242	23189
853.376	23048
853.511	23003
853.645	22946
853.78	23079
853.914	23178
854.048	22866
854.183	23075
854.317	23056
854.451	23239
854.585	23136
854.72	23060
854.854	23261
854.988	23003
855.122	23003
855.256	22911
855.39	22984
855.524	23136
855.658	23216
855.792	23048
855.926	22987
856.06	23064
856.194	23064
856.327	22911
856.461	22915
856.595	22995
856.729	23006
856.862	23025
856.996	23056
857.13	23265
857.263	23121
857.397	23041
857.53	23060
857.664	23056
857.797	23029
857.931	23140
858.064	23064
858.197	23143
858.331	22866
858.464	22889
858.597	22835
858.731	22984
858.864	23044
858.997	22923
859.13	23124
859.263	23147
859.396	23121
859.529	23102
859.662	23060
859.795	23075
859.928	23018
860.061	23277
860.194	23223
860.327	22987
860.46	23105
860.592	23071
860.725	23185
860.858	23098
860.99	23029
861.123	23010
861.256	23025
861.388	23006
861.521	23748
861.653	22782
861.786	22828
861.918	22843
862.05	22949
862.183	22908
862.315	22976
862.447	22923
862.58	22885
862.712	22755
862.844	22698
862.976	22778
863.108	22782
863.24	23269
863.372	22778
863.504	22736
863.636	22755
863.768	22820
863.9	22774
864.032	22660
864.164	22725
864.296	22793
864.428	22987
864.559	22881
864.691	22771
864.823	22698
864.954	22729
865.086	22771
865.217	22645
865.349	22516
865.48	22645
865.612	22538
865.743	22740
865.875	22622
866.006	22493
866.137	22577
866.269	22569
866.4	22611
866.531	22577
866.662	22500
866.793	22584
866.924	22542
867.055	22611
867.186	22653
867.317	22557
867.448	22485
867.579	22485
867.71	22413
867.841	22512
867.972	22675
868.103	22550
868.233	22508
868.364	22538
868.495	22611
868.625	22828
868.756	22927
868.886	22717
869.017	22752
869.147	22835
869.278	22877
869.408	22801
869.539	22812
869.669	22908
869.799	22809
869.929	22774
870.06	22908
870.19	23075
870.32	23067
870.45	23033
870.58	23041
870.71	23189
870.84	23246
870.97	23162
871.1	23250
871.23	23288
871.36	23490
871.489	23330
871.619	23395
871.749	23387
871.879	23341
872.008	23486
872.138	23246
872.267	23368
872.397	23140
872.526	23227
872.656	23216
872.785	23288
872.915	23299
873.044	23330
873.173	23360
873.303	23311
873.432	23505
873.561	23512
873.69	23406
873.819	23368
873.948	23444
874.077	23467
874.206	23250
874.335	23337
874.464	23463
874.593	23611
874.722	23585
874.851	23604
874.979	23695
875.108	23619
875.237	23566
875.365	23524
875.494	23516
875.623	23547
875.751	23649
875.88	23714
876.008	23745
876.136	23745
876.265	23904
876.393	24038
876.521	23961
876.65	24060
876.778	23939
876.906	23870
877.034	23965
877.162	23988
877.29	23851
877.418	23866
877.546	24076
877.674	23897
877.802	23942
877.93	23935
878.058	23859
878.185	23752
878.313	23908
878.441	23916
878.568	23859
878.696	23821
878.824	24038
878.951	23916
879.079	24114
879.206	24300
879.333	23984
879.461	23897
879.588	23958
879.715	24190
879.842	24323
879.97	23950
880.097	23707
880.224	23767
880.351	23783
880.478	23885
880.605	23649
880.732	23718
880.859	23893
880.986	23653
881.112	23733
881.239	23524
881.366	23512
881.493	23303
881.619	23258
881.746	23368
881.872	23383
881.999	23216
882.125	23368
882.252	23280
882.378	23429
882.505	23433
882.631	23166
882.757	23029
882.883	23102
883.01	23041
883.136	22892
883.262	22904
883.388	22812
883.514	22961
883.64	22965
883.766	23014
883.892	22763
884.018	22778
884.143	22999
884.269	23086
884.395	22653
884.52	22656
884.646	22649
884.772	22668
884.897	22500
885.023	22596
885.148	22588
885.274	22615
885.399	22763
885.524	22573
885.65	22645
885.775	22618
885.9	22535
886.025	22744
886.15	22759
886.275	22634
886.4	22436
886.525	22599
886.65	22580
886.775	22356
886.9	22721
887.025	22778
887.149	22565
887.274	22443
887.399	22329
887.523	22280
887.648	22371
887.773	22284
887.897	22398
888.021	22474
888.146	22390
888.27	22451
888.395	22402
888.519	22329
888.643	22405
888.767	22356
888.891	22166
889.015	22150
889.139	22257
889.263	22128
889.387	22215
889.511	22352
889.635	22291
889.759	22051
889.883	22204
890.006	22173
890.13	22204
890.254	22051
890.377	22109
890.501	21873
890.624	21800
890.748	21937
890.871	21800
890.995	21739
891.118	21675
891.241	21652
891.364	21720
891.488	21701
891.611	21774
891.734	21709
891.857	21732
891.98	21656
892.103	21800
892.226	21709
892.349	21561
892.471	21564
892.594	21553
892.717	21720
892.839	21473
892.962	21523
893.085	21739
893.207	21576
893.33	21420
893.452	21610
893.575	21660
893.697	21644
893.819	21876
893.941	21785
894.064	21652
894.186	21610
894.308	21374
894.43	21675
894.552	21701
894.674	21545
894.796	21420
894.918	21519
895.04	21500
895.161	21610
895.283	21587
895.405	21534
895.526	21477
895.648	21401
895.769	21553
895.891	21523
896.012	21682
896.134	21572
896.255	21447
896.376	21435
896.498	21568
896.619	21519
896.74	21519
896.861	21614
896.982	21686
897.103	21915
897.224	21766
897.345	21739
897.466	21675
897.587	21652
897.708	21861
897.828	21770
897.949	21549
898.07	21534
898.19	21637
898.311	21823
898.431	21686
898.552	21637
898.672	21759
898.792	21808
898.913	21808
899.033	21564
899.153	21557
899.273	21428
899.393	21382
899.513	21359
899.633	21408
899.753	21507
899.873	21435
899.993	21462
900.113	21382
900.232	21351
900.352	21424
900.472	21211
900.591	21317
900.711	21146
900.83	21116
900.95	21226
901.069	21298
901.189	20971
901.308	20880
901.427	20773
901.546	20872
901.665	20800
901.784	20758
901.904	20522
902.023	20457
902.141	20259
902.26	20324
902.379	20408
902.498	20210
902.617	20278
902.735	20400
902.854	20301
902.973	20206
903.091	20065
903.21	19811
903.328	19906
903.446	19791
903.565	19639
903.683	19643
903.801	19556
903.919	19647
904.038	19575
904.156	19453
904.274	19453
904.392	19438
904.51	19514
904.627	19422
904.745	19499
904.863	19537
904.981	19324
905.098	19175
905.216	19168
905.334	19164
905.451	19209
905.569	19038
905.686	19175
905.803	19221
905.921	18913
906.038	19038
906.155	18856
906.272	18810
906.389	18798
906.506	18726
906.623	18688
906.74	18623
906.857	18528
906.974	18486
907.091	18654
907.208	18639
907.324	18677
907.441	18475
907.557	18350
907.674	18357
907.79	18308
907.907	18228
908.023	18441
908.139	18452
908.256	18308
908.372	18300
908.488	18190
908.604	18087
908.72	17992
908.836	18110
908.952	18060
909.068	18057
909.184	18163
909.3	18057
909.415	18060
909.531	18171
909.647	17809
909.762	17737
909.878	17779
909.993	17783
910.108	17703
910.224	17676
910.339	17767
910.454	17627
910.57	17585
910.685	17497
910.8	17756
910.915	17642
911.03	17433
911.145	17459
911.259	17303
911.374	17273
911.489	17277
911.604	17261
911.718	17067
911.833	17052
911.947	16995
912.062	16877
912.176	17025
912.291	17033
912.405	17128
912.519	17212
912.633	17277
912.748	17208
912.862	17098
912.976	16934
913.09	16831
913.204	16782
913.318	16828
913.431	17025
913.545	16953
913.659	16965
913.772	16919
913.886	16706
914	16710
914.113	16778
914.226	16831
914.34	16736
914.453	16634
914.566	16675
914.68	16634
914.793	16527
914.906	16295
915.019	16242
915.132	16200
915.245	16261
915.358	16360
915.47	16230
915.583	16204
915.696	16211
915.809	16318
915.921	16424
916.034	16219
916.146	16093
916.259	16162
916.371	16211
916.483	16265
916.595	16025
916.708	16078
916.82	16071
916.932	16055
917.044	16029
917.156	16025
917.268	15861
917.38	15880
917.491	15797
917.603	15918
917.715	15972
917.826	15956
917.938	15800
918.049	15701
918.161	15827
918.272	16013
918.384	15911
918.495	15698
918.606	15587
918.717	15496
918.828	15656
918.939	15633
919.05	15618
919.161	15736
919.272	15450
919.383	15431
919.494	15660
919.604	15797
919.715	15641
919.826	15519
919.936	15488
920.047	15587
920.157	15492
920.267	15652
920.378	15523
920.488	15492
920.598	15720
920.708	15915
920.818	15698
920.928	15717
921.038	15838
921.148	15755
921.258	15466
921.368	15416
921.477	15291
921.587	15222
921.697	15241
921.806	15344
921.916	15093
922.025	15055
922.134	14826
922.244	14857
922.353	14990
922.462	14823
922.571	14674
922.68	14438
922.789	14621
922.898	14568
923.007	14560
923.116	14499
923.224	14590
923.333	14514
923.442	14423
923.55	14336
923.659	14381
923.767	14400
923.876	14233
923.984	14412
924.092	14191
924.201	14351
924.309	14199
924.417	14271
924.525	14191
924.633	14195
924.741	15066
924.849	13989
924.956	14065
925.064	13894
925.172	13944
925.279	13902
925.387	13913
925.494	13921
925.602	14100
925.709	13852
925.816	13890
925.924	13826
926.031	13947
926.138	13776
926.245	13864
926.352	13677
926.459	13814
926.566	13841
926.673	13799
926.779	13624
926.886	13742
926.993	13582
927.099	13343
927.206	13312
927.312	13381
927.419	13559
927.525	13441
927.631	13434
927.737	13358
927.843	13194
927.95	13122
928.056	13202
928.162	13240
928.267	13316
928.373	13784
928.479	13327
928.585	13023
928.69	13156
928.796	13190
928.901	13099
929.007	12859
929.112	13050
929.218	12985
929.323	12954
929.428	12840
929.533	13065
929.638	12768
929.743	12894
929.848	12920
929.953	12875
930.058	12791
930.163	12639
930.267	12597
930.372	12776
930.477	12551
930.581	12791
930.685	12684
930.79	12445
930.894	12471
930.998	12460
931.103	12547
931.207	12182
931.311	12133
931.415	12129
931.519	11851
931.623	11760
