Data from test_V78500241_1572.txt Node
Date: Fri Mar 25 15:52:41 CST 2022
User: usil
Spectrometer: V785-0024
Trigger mode: 0
Integration Time (sec): 4.000000E-1
Scans to average: 1
Nonlinearity correction enabled: false
Boxcar width: 0
Storing dark spectrum: false
XAxis mode: Wavelengths
Number of Pixels in Spectrum: 1024
>>>>>Begin Spectral Data<<<<<
801.071	28276
801.214	28261
801.356	27968
801.499	27907
801.641	27926
801.783	27819
801.926	27922
802.068	27861
802.211	27770
802.353	27762
802.496	27622
802.638	27507
802.78	27374
802.923	27416
803.065	27359
803.208	27431
803.35	27462
803.492	27705
803.635	27781
803.777	27603
803.919	27644
804.061	28017
804.204	27762
804.346	27686
804.488	27701
804.63	27709
804.773	27701
804.915	27785
805.057	27899
805.199	27690
805.341	27797
805.483	27827
805.626	27892
805.768	27789
805.91	27926
806.052	27732
806.194	27732
806.336	27953
806.478	27880
806.62	27918
806.762	28093
806.904	28021
807.046	28329
807.188	28253
807.33	28280
807.472	28371
807.614	28207
807.756	28348
807.898	28139
808.04	28112
808.182	28063
808.324	28162
808.465	28109
808.607	28447
808.749	28303
808.891	28561
809.033	28698
809.174	28626
809.316	28417
809.458	28459
809.6	28447
809.741	28634
809.883	28706
810.025	28828
810.166	28691
810.308	28790
810.45	28812
810.591	28641
810.733	28500
810.875	28493
811.016	28466
811.158	28352
811.299	28630
811.441	28748
811.582	28573
811.724	28615
811.865	28523
812.007	28436
812.148	28459
812.29	28577
812.431	28615
812.573	28824
812.714	28995
812.855	29174
812.997	29132
813.138	29254
813.279	29121
813.421	29128
813.562	28953
813.703	28869
813.845	28660
813.986	28424
814.127	28356
814.268	28223
814.41	28253
814.551	28363
814.692	28257
814.833	28226
814.974	28185
815.115	28253
815.256	28120
815.397	28112
815.539	28147
815.68	28067
815.821	27972
815.962	28109
816.103	28051
816.244	27785
816.385	27873
816.526	27831
816.666	27671
816.807	27576
816.948	27561
817.089	27469
817.23	27462
817.371	27431
817.512	27515
817.653	27523
817.793	27344
817.934	27515
818.075	27450
818.216	27466
818.356	27481
818.497	27344
818.638	27252
818.778	27135
818.919	27256
819.06	27245
819.2	27416
819.341	27355
819.481	27450
819.622	27622
819.762	27884
819.903	27755
820.043	27705
820.184	27633
820.324	27778
820.465	27644
820.605	27553
820.746	27580
820.886	27583
821.026	27553
821.167	27553
821.307	27667
821.447	27519
821.588	27397
821.728	27313
821.868	27161
822.008	26979
822.149	26952
822.289	26853
822.429	26792
822.569	26590
822.709	26826
822.849	26697
822.99	26514
823.13	26339
823.27	26492
823.41	26339
823.55	26149
823.69	26218
823.83	26381
823.97	26374
824.11	26012
824.25	26138
824.389	26024
824.529	26256
824.669	26191
824.809	26305
824.949	26294
825.089	26370
825.228	26294
825.368	26001
825.508	26012
825.648	26031
825.787	26012
825.927	26119
826.067	26008
826.206	26084
826.346	26161
826.485	26024
826.625	25966
826.765	26244
826.904	26031
827.044	25776
827.183	25803
827.323	25761
827.462	25921
827.601	25784
827.741	25700
827.88	25837
828.02	25662
828.159	25700
828.298	25837
828.437	25845
828.577	25502
828.716	25868
828.855	25696
828.994	25369
829.134	25419
829.273	25632
829.412	25620
829.551	25430
829.69	25457
829.829	25453
829.968	25510
830.107	25514
830.246	25419
830.385	25411
830.524	25350
830.663	25228
830.802	25084
830.941	25076
831.08	24962
831.219	25152
831.357	25110
831.496	25270
831.635	25145
831.774	25099
831.913	24935
832.051	24905
832.19	24783
832.329	24871
832.467	24837
832.606	24688
832.744	24673
832.883	24703
833.022	24658
833.16	24726
833.299	24673
833.437	24798
833.576	24821
833.714	24753
833.852	24779
833.991	24757
834.129	24890
834.267	24913
834.406	24867
834.544	24798
834.682	24696
834.821	24837
834.959	24932
835.097	24760
835.235	24871
835.373	24863
835.511	24878
835.65	24646
835.788	24764
835.926	24570
836.064	24445
836.202	24563
836.34	24612
836.478	24772
836.615	24547
836.753	24772
836.891	24730
837.029	24513
837.167	24483
837.305	24547
837.443	24616
837.58	24361
837.718	24654
837.856	24460
837.993	24319
838.131	24399
838.269	24285
838.406	24311
838.544	24129
838.681	24197
838.819	24167
838.956	24015
839.094	24015
839.231	23912
839.369	24129
839.506	24292
839.643	24239
839.781	23901
839.918	23882
840.055	23863
840.193	23946
840.33	23832
840.467	23798
840.604	23745
840.742	24072
840.879	23596
841.016	23843
841.153	23764
841.29	23927
841.427	23752
841.564	23767
841.701	23729
841.838	23783
841.975	23745
842.112	23733
842.249	23707
842.385	23630
842.522	23733
842.659	23695
842.796	23596
842.933	23528
843.069	23406
843.206	23596
843.343	23760
843.479	23642
843.616	23531
843.752	23326
843.889	23334
844.025	23372
844.162	23360
844.298	23406
844.435	23452
844.571	23421
844.708	23379
844.844	23520
844.98	23463
845.117	23482
845.253	23395
845.389	23166
845.525	23200
845.661	23212
845.798	22991
845.934	23159
846.07	23121
846.206	23185
846.342	23075
846.478	23155
846.614	22873
846.75	22721
846.886	22755
847.022	22900
847.158	22908
847.294	22854
847.429	22843
847.565	22896
847.701	23056
847.837	22523
847.972	22531
848.108	22584
848.244	22542
848.379	22512
848.515	22455
848.65	22421
848.786	22409
848.921	22363
849.057	22447
849.192	22512
849.328	22466
849.463	22409
849.598	22402
849.734	22314
849.869	22242
850.004	22238
850.14	22154
850.275	22234
850.41	22048
850.545	22010
850.68	22051
850.815	22215
850.95	22166
851.085	22417
851.22	22284
851.355	22158
851.49	22162
851.625	22124
851.76	22105
851.895	22150
852.03	22162
852.165	22150
852.299	22207
852.434	22223
852.569	22341
852.703	22124
852.838	22356
852.973	22276
853.107	22215
853.242	22143
853.376	21983
853.511	21979
853.645	21960
853.78	22059
853.914	22074
854.048	21994
854.183	21922
854.317	21930
854.451	22162
854.585	21956
854.72	22078
854.854	22101
854.988	21861
855.122	21998
855.256	21755
855.39	22067
855.524	22036
855.658	21945
855.792	22059
855.926	22017
856.06	22097
856.194	22128
856.327	21945
856.461	21994
856.595	21915
856.729	21895
856.862	22013
856.996	22013
857.13	22074
857.263	22169
857.397	22082
857.53	21972
857.664	22196
857.797	22074
857.931	22173
858.064	21956
858.197	21972
858.331	22029
858.464	21949
858.597	21941
858.731	21937
858.864	21964
858.997	21953
859.13	21922
859.263	21926
859.396	22078
859.529	21934
859.662	21953
859.795	22002
859.928	21876
860.061	22177
860.194	22128
860.327	22078
860.46	21975
860.592	22070
860.725	22135
860.858	22109
860.99	21884
861.123	21953
861.256	21953
861.388	22021
861.521	22611
861.653	21857
861.786	21766
861.918	21903
862.05	21907
862.183	21831
862.315	21930
862.447	21983
862.58	21800
862.712	21656
862.844	21568
862.976	21800
863.108	21637
863.24	22230
863.372	21709
863.504	21675
863.636	21561
863.768	21838
863.9	21568
864.032	21603
864.164	21648
864.296	21690
864.428	21899
864.559	21793
864.691	21739
864.823	21675
864.954	21679
865.086	21682
865.217	21447
865.349	21443
865.48	21568
865.612	21530
865.743	21728
865.875	21652
866.006	21542
866.137	21568
866.269	21519
866.4	21606
866.531	21439
866.662	21439
866.793	21454
866.924	21473
867.055	21564
867.186	21500
867.317	21492
867.448	21492
867.579	21351
867.71	21625
867.841	21515
867.972	21526
868.103	21466
868.233	21633
868.364	21370
868.495	21591
868.625	21599
868.756	21869
868.886	21705
869.017	21747
869.147	21793
869.278	21861
869.408	21808
869.539	21759
869.669	21804
869.799	21835
869.929	21835
870.06	21911
870.19	22006
870.32	21987
870.45	21994
870.58	22059
870.71	22230
870.84	22215
870.97	22109
871.1	22173
871.23	22303
871.36	22360
871.489	22291
871.619	22204
871.749	22295
871.879	22379
872.008	22443
872.138	22284
872.267	22280
872.397	22177
872.526	22188
872.656	22181
872.785	22230
872.915	22310
873.044	22493
873.173	22379
873.303	22440
873.432	22451
873.561	22493
873.69	22481
873.819	22310
873.948	22592
874.077	22417
874.206	22390
874.335	22424
874.464	22428
874.593	22698
874.722	22481
874.851	22694
874.979	22618
875.108	22527
875.237	22519
875.365	22493
875.494	22599
875.623	22500
875.751	22577
875.88	22645
876.008	22546
876.136	22702
876.265	22904
876.393	23105
876.521	23018
876.65	23037
876.778	22942
876.906	22938
877.034	22877
877.162	22919
877.29	22904
877.418	22835
877.546	23029
877.674	22839
877.802	22908
877.93	22938
878.058	22843
878.185	22710
878.313	22820
878.441	22896
878.568	22786
878.696	22801
878.824	22946
878.951	22999
879.079	22987
879.206	23151
879.333	23132
879.461	22976
879.588	23060
879.715	23098
879.842	23216
879.97	23029
880.097	22801
880.224	22744
880.351	22900
880.478	22645
880.605	22683
880.732	22843
880.859	22942
880.986	22919
881.112	22729
881.239	22550
881.366	22573
881.493	22341
881.619	22352
881.746	22424
881.872	22299
881.999	22341
882.125	22325
882.252	22348
882.378	22150
882.505	22299
882.631	22284
882.757	22029
882.883	22188
883.01	22002
883.136	21911
883.262	21812
883.388	21831
883.514	22059
883.64	21979
883.766	21934
883.892	21774
884.018	21857
884.143	22025
884.269	22051
884.395	21679
884.52	21614
884.646	21629
884.772	21576
884.897	21397
885.023	21576
885.148	21759
885.274	21682
885.399	21770
885.524	21549
885.65	21656
885.775	21660
885.9	21580
886.025	21766
886.15	21781
886.275	21679
886.4	21591
886.525	21591
886.65	21557
886.775	21576
886.9	21759
887.025	21804
887.149	21530
887.274	21443
887.399	21416
887.523	21310
887.648	21488
887.773	21233
887.897	21462
888.021	21412
888.146	21291
888.27	21523
888.395	21450
888.519	21439
888.643	21485
888.767	21424
888.891	21272
889.015	21214
889.139	21245
889.263	21169
889.387	21329
889.511	21260
889.635	21313
889.759	21192
889.883	21089
890.006	21131
890.13	21329
890.254	21032
890.377	21131
890.501	20887
890.624	20914
890.748	20944
890.871	20781
890.995	20796
891.118	20743
891.241	20693
891.364	20743
891.488	20807
891.611	20777
891.734	20708
891.857	20777
891.98	20697
892.103	20933
892.226	20701
892.349	20773
892.471	20655
892.594	20640
892.717	20796
892.839	20571
892.962	20587
893.085	20716
893.207	20663
893.33	20492
893.452	20549
893.575	20655
893.697	20617
893.819	20762
893.941	20864
894.064	20693
894.186	20568
894.308	20484
894.43	20762
894.552	20750
894.674	20701
894.796	20537
894.918	20674
895.04	20708
895.161	20564
895.283	20670
895.405	20511
895.526	20613
895.648	20594
895.769	20583
895.891	20667
896.012	20667
896.134	20712
896.255	20575
896.376	20590
896.498	20697
896.619	20720
896.74	20670
896.861	20674
896.982	20921
897.103	21135
897.224	20914
897.345	20773
897.466	20746
897.587	20933
897.708	20921
897.828	20899
897.949	20773
898.07	20606
898.19	20796
898.311	20994
898.431	20754
898.552	20979
898.672	20887
898.792	20921
898.913	20781
899.033	20826
899.153	20640
899.273	20670
899.393	20579
899.513	20697
899.633	20530
899.753	20583
899.873	20488
899.993	20446
900.113	20552
900.232	20552
900.352	20377
900.472	20336
900.591	20320
900.711	20427
900.83	20374
900.95	20461
901.069	20503
901.189	20202
901.308	19898
901.427	19811
901.546	19982
901.665	19989
901.784	19967
901.904	19761
902.023	19727
902.141	19510
902.26	19358
902.379	19597
902.498	19491
902.617	19422
902.735	19472
902.854	19476
902.973	19232
903.091	19145
903.21	19145
903.328	19152
903.446	19012
903.565	18954
903.683	18852
903.801	18875
903.919	18890
904.038	18837
904.156	18757
904.274	18783
904.392	18627
904.51	18669
904.627	18673
904.745	18707
904.863	18711
904.981	18388
905.098	18388
905.216	18334
905.334	18319
905.451	18372
905.569	18254
905.686	18391
905.803	18357
905.921	18129
906.038	18270
906.155	18197
906.272	18007
906.389	18026
906.506	17992
906.623	17996
906.74	17836
906.857	17771
906.974	17809
907.091	17893
907.208	17961
907.324	17779
907.441	17798
907.557	17623
907.674	17680
907.79	17615
907.907	17547
908.023	17505
908.139	17611
908.256	17539
908.372	17448
908.488	17585
908.604	17288
908.72	17269
908.836	17231
908.952	17204
909.068	17269
909.184	17307
909.3	17261
909.415	17239
909.531	17284
909.647	17033
909.762	17037
909.878	16900
909.993	17018
910.108	16968
910.224	16900
910.339	16858
910.454	16835
910.57	16900
910.685	16729
910.8	17010
910.915	16987
911.03	16778
911.145	16748
911.259	16542
911.374	16603
911.489	16493
911.604	16436
911.718	16356
911.833	16337
911.947	16352
912.062	16207
912.176	16447
912.291	16306
912.405	16291
912.519	16538
912.633	16440
912.748	16314
912.862	16257
912.976	16272
913.09	16010
913.204	16040
913.318	16131
913.431	16215
913.545	16074
913.659	16234
913.772	16021
913.886	15956
914	15869
914.113	15934
914.226	16002
914.34	16002
914.453	15869
914.566	16032
914.68	15857
914.793	15785
914.906	15679
915.019	15553
915.132	15408
915.245	15545
915.358	15545
915.47	15572
915.583	15504
915.696	15473
915.809	15606
915.921	15759
916.034	15458
916.146	15462
916.259	15302
916.371	15500
916.483	15488
916.595	15260
916.708	15466
916.82	15359
916.932	15249
917.044	15336
917.156	15306
917.268	15093
917.38	15222
917.491	14963
917.603	15294
917.715	15226
917.826	15173
917.938	15093
918.049	14975
918.161	15081
918.272	15283
918.384	15199
918.495	15150
918.606	14883
918.717	14735
918.828	14918
918.939	14971
919.05	14853
919.161	14887
919.272	14716
919.383	14617
919.494	14880
919.604	15165
919.715	14872
919.826	14758
919.936	14887
920.047	14956
920.157	14941
920.267	14967
920.378	14887
920.488	14834
920.598	15028
920.708	15184
920.818	15058
920.928	14971
921.038	15074
921.148	15093
921.258	14716
921.368	14682
921.477	14560
921.587	14617
921.697	14454
921.806	14598
921.916	14393
922.025	14301
922.134	14214
922.244	14153
922.353	14252
922.462	14119
922.571	13986
922.68	13928
922.789	13864
922.898	13887
923.007	13822
923.116	13868
923.224	13875
923.333	13799
923.442	13738
923.55	13636
923.659	13727
923.767	13837
923.876	13620
923.984	13685
924.092	13571
924.201	13616
924.309	13540
924.417	13639
924.525	13487
924.633	13506
924.741	14476
924.849	13369
924.956	13525
925.064	13381
925.172	13274
925.279	13244
925.387	13343
925.494	13297
925.602	13369
925.709	13270
925.816	13156
925.924	13263
926.031	13236
926.138	13198
926.245	13206
926.352	13031
926.459	13236
926.566	13255
926.673	13069
926.779	13027
926.886	12958
926.993	12943
927.099	12909
927.206	12719
927.312	12760
927.419	12939
927.525	12821
927.631	12867
927.737	12745
927.843	12684
927.95	12486
928.056	12639
928.162	12639
928.267	12642
928.373	13320
928.479	12620
928.585	12544
928.69	12570
928.796	12525
928.901	12464
929.007	12292
929.112	12464
929.218	12456
929.323	12399
929.428	12448
929.533	12441
929.638	12311
929.743	12369
929.848	12300
929.953	12334
930.058	12235
930.163	11999
930.267	12030
930.372	12182
930.477	11863
930.581	12190
930.685	12049
930.79	11916
930.894	11946
930.998	11939
931.103	11984
931.207	11661
931.311	11619
931.415	11623
931.519	11307
931.623	11307
