Data from test_V78500241_3389.txt Node
Date: Fri Mar 25 16:05:16 CST 2022
User: usil
Spectrometer: V785-0024
Trigger mode: 0
Integration Time (sec): 4.000000E-1
Scans to average: 1
Nonlinearity correction enabled: false
Boxcar width: 0
Storing dark spectrum: false
XAxis mode: Wavelengths
Number of Pixels in Spectrum: 1024
>>>>>Begin Spectral Data<<<<<
801.071	28664
801.214	28645
801.356	28394
801.499	28360
801.641	28120
801.783	28169
801.926	28424
802.068	28154
802.211	28048
802.353	28169
802.496	28105
802.638	27968
802.78	27983
802.923	27861
803.065	27759
803.208	27983
803.35	27930
803.492	28070
803.635	27998
803.777	28074
803.919	28112
804.061	28455
804.204	28223
804.346	27987
804.488	28032
804.63	28147
804.773	27994
804.915	28139
805.057	28310
805.199	28048
805.341	28405
805.483	28253
805.626	28173
805.768	28078
805.91	28348
806.052	28382
806.194	28280
806.336	28455
806.478	28352
806.62	28253
806.762	28535
806.904	28550
807.046	28687
807.188	28691
807.33	28717
807.472	28923
807.614	28702
807.756	28698
807.898	28607
808.04	28508
808.182	28527
808.324	28645
808.465	28580
808.607	28843
808.749	29006
808.891	28942
809.033	29128
809.174	28957
809.316	28987
809.458	28900
809.6	28957
809.741	29098
809.883	29273
810.025	29239
810.166	29375
810.308	29349
810.45	29277
810.591	29151
810.733	29075
810.875	28908
811.016	28972
811.158	28942
811.299	29140
811.441	29052
811.582	29265
811.724	29018
811.865	29022
812.007	28942
812.148	29117
812.29	29113
812.431	29220
812.573	29410
812.714	29410
812.855	29501
812.997	29668
813.138	29798
813.279	29718
813.421	29459
813.562	29493
813.703	29364
813.845	29181
813.986	28976
814.127	28729
814.268	28835
814.41	28790
814.551	28592
814.692	28869
814.833	28535
814.974	28523
815.115	28713
815.256	28516
815.397	28683
815.539	28584
815.68	28519
815.821	28363
815.962	28573
816.103	28421
816.244	28478
816.385	28325
816.526	28276
816.666	28181
816.807	27926
816.948	28086
817.089	27994
817.23	28147
817.371	27975
817.512	27964
817.653	27861
817.793	28090
817.934	27983
818.075	28032
818.216	28051
818.356	28010
818.497	27937
818.638	27759
818.778	27682
818.919	27785
819.06	27903
819.2	27823
819.341	27949
819.481	27949
819.622	28124
819.762	28371
819.903	28318
820.043	28215
820.184	28101
820.324	28101
820.465	28257
820.605	28109
820.746	28017
820.886	27972
821.026	28109
821.167	28139
821.307	28074
821.447	28093
821.588	27911
821.728	27766
821.868	27679
822.008	27564
822.149	27583
822.289	27504
822.429	27169
822.569	27150
822.709	27157
822.849	27142
822.99	27150
823.13	26994
823.27	27024
823.41	26967
823.55	26773
823.69	26758
823.83	26788
823.97	26758
824.11	26568
824.25	26583
824.389	26564
824.529	26606
824.669	26724
824.809	26750
824.949	26777
825.089	26705
825.228	26655
825.368	26564
825.508	26530
825.648	26541
825.787	26476
825.927	26625
826.067	26564
826.206	26503
826.346	26606
826.485	26644
826.625	26537
826.765	26568
826.904	26594
827.044	26381
827.183	26427
827.323	26206
827.462	26305
827.601	26199
827.741	26233
827.88	26237
828.02	26115
828.159	26294
828.298	26233
828.437	26256
828.577	26176
828.716	26339
828.855	26229
828.994	25955
829.134	25807
829.273	26008
829.412	25856
829.551	25841
829.69	25868
829.829	25970
829.968	26058
830.107	26008
830.246	25883
830.385	25989
830.524	25849
830.663	25761
830.802	25753
830.941	25472
831.08	25605
831.219	25643
831.357	25609
831.496	25883
831.635	25586
831.774	25556
831.913	25396
832.051	25430
832.19	25247
832.329	25343
832.467	25232
832.606	25202
832.744	25301
832.883	25118
833.022	25171
833.16	25141
833.299	25228
833.437	25301
833.576	25320
833.714	25297
833.852	25301
833.991	25316
834.129	25388
834.267	25381
834.406	25354
834.544	25266
834.682	25369
834.821	25358
834.959	25434
835.097	25209
835.235	25225
835.373	25293
835.511	25293
835.65	25145
835.788	25091
835.926	25118
836.064	24916
836.202	24970
836.34	25110
836.478	25179
836.615	25107
836.753	25137
836.891	25118
837.029	25091
837.167	24954
837.305	24981
837.443	25027
837.58	24909
837.718	24985
837.856	24905
837.993	24920
838.131	24951
838.269	24768
838.406	24810
838.544	24719
838.681	24532
838.819	24604
838.956	24399
839.094	24429
839.231	24475
839.369	24566
839.506	24844
839.643	24627
839.781	24422
839.918	24361
840.055	24285
840.193	24330
840.33	24391
840.467	24308
840.604	24376
840.742	24612
840.879	24281
841.016	24159
841.153	24239
841.29	24448
841.427	24388
841.564	24323
841.701	24330
841.838	24220
841.975	24209
842.112	24209
842.249	24163
842.385	24163
842.522	24251
842.659	24007
842.796	23942
842.933	24053
843.069	24068
843.206	24076
843.343	24152
843.479	23977
843.616	24159
843.752	23847
843.889	23840
844.025	24041
844.162	23855
844.298	23927
844.435	23798
844.571	23790
844.708	23843
844.844	23988
844.98	23866
845.117	23821
845.253	23874
845.389	23786
845.525	23703
845.661	23745
845.798	23543
845.934	23630
846.07	23615
846.206	23634
846.342	23733
846.478	23687
846.614	23440
846.75	23269
846.886	23311
847.022	23341
847.158	23280
847.294	23368
847.429	23421
847.565	23284
847.701	23478
847.837	23166
847.972	22961
848.108	23102
848.244	22984
848.379	22942
848.515	22908
848.65	22923
848.786	22984
848.921	22892
849.057	22999
849.192	22816
849.328	22919
849.463	22862
849.598	22759
849.734	22729
849.869	22740
850.004	22649
850.14	22664
850.275	22694
850.41	22592
850.545	22573
850.68	22653
850.815	22603
850.95	22626
851.085	22919
851.22	22755
851.355	22599
851.49	22557
851.625	22561
851.76	22538
851.895	22519
852.03	22641
852.165	22729
852.299	22584
852.434	22656
852.569	22733
852.703	22759
852.838	22599
852.973	22664
853.107	22717
853.242	22778
853.376	22519
853.511	22390
853.645	22291
853.78	22440
853.914	22508
854.048	22615
854.183	22409
854.317	22634
854.451	22687
854.585	22535
854.72	22599
854.854	22462
854.988	22500
855.122	22417
855.256	22360
855.39	22489
855.524	22481
855.658	22462
855.792	22360
855.926	22485
856.06	22481
856.194	22645
856.327	22516
856.461	22428
856.595	22322
856.729	22386
856.862	22656
856.996	22519
857.13	22565
857.263	22588
857.397	22653
857.53	22455
857.664	22500
857.797	22592
857.931	22451
858.064	22535
858.197	22535
858.331	22405
858.464	22306
858.597	22409
858.731	22538
858.864	22421
858.997	22474
859.13	22417
859.263	22516
859.396	22592
859.529	22485
859.662	22443
859.795	22440
859.928	22470
860.061	22694
860.194	22603
860.327	22535
860.46	22459
860.592	22630
860.725	22725
860.858	22672
860.99	22466
861.123	22394
861.256	22451
861.388	22470
861.521	23056
861.653	22413
861.786	22169
861.918	22306
862.05	22276
862.183	22424
862.315	22402
862.447	22428
862.58	22489
862.712	22185
862.844	22101
862.976	22261
863.108	22200
863.24	22672
863.372	22093
863.504	22192
863.636	22090
863.768	22139
863.9	22093
864.032	22150
864.164	22116
864.296	22204
864.428	22105
864.559	22109
864.691	22257
864.823	22169
864.954	22200
865.086	22257
865.217	22116
865.349	22025
865.48	21979
865.612	22120
865.743	22173
865.875	22055
866.006	21972
866.137	22109
866.269	21975
866.4	22013
866.531	22017
866.662	22021
866.793	21937
866.924	22002
867.055	21953
867.186	21960
867.317	22006
867.448	21994
867.579	21911
867.71	21975
867.841	21945
867.972	21964
868.103	22002
868.233	21998
868.364	21956
868.495	22177
868.625	22097
868.756	22363
868.886	22166
869.017	22166
869.147	22272
869.278	22295
869.408	22329
869.539	22261
869.669	22246
869.799	22265
869.929	22310
870.06	22272
870.19	22478
870.32	22535
870.45	22523
870.58	22569
870.71	22653
870.84	22588
870.97	22607
871.1	22596
871.23	22698
871.36	22755
871.489	22759
871.619	22896
871.749	22767
871.879	22839
872.008	22953
872.138	22816
872.267	22748
872.397	22721
872.526	22527
872.656	22603
872.785	22588
872.915	22816
873.044	22919
873.173	22869
873.303	22854
873.432	22801
873.561	22911
873.69	22869
873.819	22866
873.948	22900
874.077	22862
874.206	22759
874.335	22850
874.464	23037
874.593	23124
874.722	23029
874.851	23094
874.979	23079
875.108	23193
875.237	23079
875.365	22896
875.494	23010
875.623	23090
875.751	23006
875.88	23090
876.008	23223
876.136	23242
876.265	23478
876.393	23570
876.521	23490
876.65	23387
876.778	23417
876.906	23292
877.034	23330
877.162	23444
877.29	23349
877.418	23421
877.546	23337
877.674	23360
877.802	23433
877.93	23326
878.058	23368
878.185	23387
878.313	23376
878.441	23345
878.568	23170
878.696	23315
878.824	23482
878.951	23505
879.079	23543
879.206	23623
879.333	23566
879.461	23505
879.588	23497
879.715	23531
879.842	23691
879.97	23509
880.097	23265
880.224	23193
880.351	23250
880.478	23200
880.605	23170
880.732	23208
880.859	23467
880.986	23105
881.112	23318
881.239	23033
881.366	22919
881.493	22843
881.619	22911
881.746	22885
881.872	22820
881.999	22797
882.125	22668
882.252	22843
882.378	22588
882.505	22885
882.631	22561
882.757	22535
882.883	22649
883.01	22432
883.136	22550
883.262	22394
883.388	22196
883.514	22424
883.64	22542
883.766	22322
883.892	22207
884.018	22219
884.143	22402
884.269	22379
884.395	22234
884.52	22131
884.646	22105
884.772	21994
884.897	21930
885.023	21956
885.148	22143
885.274	22181
885.399	22215
885.524	22120
885.65	22128
885.775	21979
885.9	21968
886.025	22207
886.15	22200
886.275	21895
886.4	22051
886.525	22025
886.65	22116
886.775	22032
886.9	22105
887.025	22268
887.149	22177
887.274	21907
887.399	21766
887.523	21747
887.648	21705
887.773	21911
887.897	22013
888.021	21876
888.146	21835
888.27	21918
888.395	21926
888.519	21915
888.643	21895
888.767	21915
888.891	21846
889.015	21591
889.139	21690
889.263	21652
889.387	21736
889.511	21884
889.635	21800
889.759	21625
889.883	21542
890.006	21656
890.13	21812
890.254	21652
890.377	21599
890.501	21272
890.624	21275
890.748	21329
890.871	21184
890.995	21138
891.118	21157
891.241	21173
891.364	21195
891.488	21195
891.611	21100
891.734	21313
891.857	21272
891.98	21112
892.103	21207
892.226	21264
892.349	21138
892.471	20994
892.594	21131
892.717	21256
892.839	21142
892.962	21058
893.085	21036
893.207	21036
893.33	20921
893.452	20929
893.575	21093
893.697	21089
893.819	21306
893.941	21313
894.064	21313
894.186	20944
894.308	21116
894.43	21131
894.552	21268
894.674	21173
894.796	20883
894.918	21093
895.04	21077
895.161	21116
895.283	21070
895.405	21013
895.526	21100
895.648	21039
895.769	21077
895.891	21100
896.012	21070
896.134	21070
896.255	21066
896.376	21013
896.498	20982
896.619	21127
896.74	21184
896.861	21173
896.982	21344
897.103	21450
897.224	21450
897.345	21363
897.466	21192
897.587	21237
897.708	21405
897.828	21367
897.949	21192
898.07	21039
898.19	21252
898.311	21268
898.431	21329
898.552	21154
898.672	21325
898.792	21321
898.913	21237
899.033	21127
899.153	21081
899.273	21017
899.393	20967
899.513	20990
899.633	20933
899.753	20948
899.873	21001
899.993	21017
900.113	20834
900.232	20883
900.352	20811
900.472	20777
900.591	20689
900.711	20773
900.83	20575
900.95	20773
901.069	20887
901.189	20625
901.308	20393
901.427	20317
901.546	20298
901.665	20298
901.784	20256
901.904	20259
902.023	20180
902.141	19978
902.26	19849
902.379	19791
902.498	19712
902.617	19738
902.735	19913
902.854	19818
902.973	19765
903.091	19483
903.21	19540
903.328	19483
903.446	19453
903.565	19312
903.683	19289
903.801	19137
903.919	19244
904.038	19160
904.156	18996
904.274	19084
904.392	19019
904.51	19012
904.627	18924
904.745	19084
904.863	19042
904.981	18932
905.098	18719
905.216	18741
905.334	18833
905.451	18722
905.569	18757
905.686	18745
905.803	18635
905.921	18513
906.038	18631
906.155	18517
906.272	18330
906.389	18376
906.506	18251
906.623	18285
906.74	18155
906.857	18106
906.974	18159
907.091	18281
907.208	18456
907.324	18323
907.441	18133
907.557	17999
907.674	17965
907.79	17927
907.907	17859
908.023	17923
908.139	18053
908.256	17790
908.372	17809
908.488	17840
908.604	17710
908.72	17592
908.836	17710
908.952	17646
909.068	17646
909.184	17760
909.3	17608
909.415	17623
909.531	17600
909.647	17353
909.762	17364
909.878	17258
909.993	17341
910.108	17334
910.224	17265
910.339	17299
910.454	17189
910.57	17071
910.685	17014
910.8	17455
910.915	17254
911.03	17098
911.145	16980
911.259	16965
911.374	16824
911.489	16847
911.604	16717
911.718	16603
911.833	16668
911.947	16584
912.062	16481
912.176	16622
912.291	16713
912.405	16630
912.519	16839
912.633	16892
912.748	16683
912.862	16656
912.976	16527
913.09	16382
913.204	16379
913.318	16436
913.431	16573
913.545	16561
913.659	16577
913.772	16432
913.886	16287
914	16261
914.113	16424
914.226	16352
914.34	16291
914.453	16147
914.566	16173
914.68	16093
914.793	16105
914.906	15888
915.019	15873
915.132	15747
915.245	15804
915.358	15869
915.47	15865
915.583	15869
915.696	15827
915.809	15922
915.921	15922
916.034	15762
916.146	15778
916.259	15614
916.371	15816
916.483	15895
916.595	15698
916.708	15663
916.82	15576
916.932	15622
917.044	15618
917.156	15572
917.268	15504
917.38	15435
917.491	15443
917.603	15511
917.715	15523
917.826	15545
917.938	15329
918.049	15287
918.161	15431
918.272	15538
918.384	15580
918.495	15378
918.606	15272
918.717	15081
918.828	15287
918.939	15264
919.05	15169
919.161	15116
919.272	14944
919.383	15039
919.494	15192
919.604	15424
919.715	15214
919.826	15100
919.936	15077
920.047	15142
920.157	15066
920.267	15272
920.378	15180
920.488	15043
920.598	15207
920.708	15408
920.818	15230
920.928	15378
921.038	15511
921.148	15367
921.258	14982
921.368	15036
921.477	14990
921.587	14902
921.697	14762
921.806	14838
921.916	14651
922.025	14640
922.134	14568
922.244	14396
922.353	14495
922.462	14385
922.571	14267
922.68	14187
922.789	14088
922.898	14229
923.007	14065
923.116	14221
923.224	14168
923.333	14142
923.442	14058
923.55	13890
923.659	14012
923.767	14164
923.876	13875
923.984	13955
924.092	13788
924.201	13974
924.309	13879
924.417	13902
924.525	13871
924.633	13883
924.741	14735
924.849	13628
924.956	13784
925.064	13548
925.172	13578
925.279	13472
925.387	13430
925.494	13540
925.602	13594
925.709	13670
925.816	13487
925.924	13506
926.031	13578
926.138	13502
926.245	13521
926.352	13422
926.459	13556
926.566	13525
926.673	13381
926.779	13259
926.886	13335
926.993	13110
927.099	13209
927.206	13080
927.312	13019
927.419	13122
927.525	13069
927.631	13057
927.737	12985
927.843	12943
927.95	12749
928.056	12886
928.162	12966
928.267	12939
928.373	13373
928.479	12920
928.585	12749
928.69	12715
928.796	12825
928.901	12772
929.007	12620
929.112	12722
929.218	12776
929.323	12570
929.428	12616
929.533	12730
929.638	12585
929.743	12582
929.848	12559
929.953	12570
930.058	12483
930.163	12300
930.267	12277
930.372	12452
930.477	12308
930.581	12437
930.685	12342
930.79	12182
930.894	12224
930.998	12144
931.103	12281
931.207	11889
931.311	11790
931.415	11741
931.519	11490
931.623	11543
