Data from test_V78500241_3706.txt Node
Date: Fri Mar 25 16:07:28 CST 2022
User: usil
Spectrometer: V785-0024
Trigger mode: 0
Integration Time (sec): 4.000000E-1
Scans to average: 1
Nonlinearity correction enabled: false
Boxcar width: 0
Storing dark spectrum: false
XAxis mode: Wavelengths
Number of Pixels in Spectrum: 1024
>>>>>Begin Spectral Data<<<<<
801.071	28280
801.214	28443
801.356	28082
801.499	28036
801.641	27926
801.783	27778
801.926	28029
802.068	27987
802.211	27884
802.353	27785
802.496	27732
802.638	27561
802.78	27587
802.923	27587
803.065	27496
803.208	27538
803.35	27603
803.492	27884
803.635	27876
803.777	27770
803.919	27854
804.061	28253
804.204	27926
804.346	27831
804.488	27648
804.63	27922
804.773	27884
804.915	28048
805.057	27979
805.199	27838
805.341	27949
805.483	28097
805.626	28044
805.768	27899
805.91	28010
806.052	27960
806.194	27926
806.336	28169
806.478	28048
806.62	27895
806.762	28246
806.904	28287
807.046	28436
807.188	28470
807.33	28493
807.472	28508
807.614	28470
807.756	28588
807.898	28265
808.04	28215
808.182	28169
808.324	28272
808.465	28398
808.607	28466
808.749	28729
808.891	28702
809.033	28839
809.174	28923
809.316	28710
809.458	28664
809.6	28634
809.741	28767
809.883	28736
810.025	29022
810.166	28961
810.308	29048
810.45	28942
810.591	28862
810.733	28778
810.875	28713
811.016	28641
811.158	28683
811.299	28725
811.441	28888
811.582	28824
811.724	28748
811.865	28744
812.007	28637
812.148	28717
812.29	28771
812.431	28824
812.573	29136
812.714	29265
812.855	29147
812.997	29353
813.138	29524
813.279	29269
813.421	29254
813.562	29299
813.703	29124
813.845	28995
813.986	28710
814.127	28497
814.268	28413
814.41	28341
814.551	28443
814.692	28417
814.833	28432
814.974	28367
815.115	28333
815.256	28181
815.397	28303
815.539	28272
815.68	28261
815.821	28040
815.962	28230
816.103	28219
816.244	28276
816.385	27930
816.526	27991
816.666	27759
816.807	27762
816.948	27831
817.089	27869
817.23	27743
817.371	27785
817.512	27739
817.653	27671
817.793	27637
817.934	27523
818.075	27739
818.216	27739
818.356	27648
818.497	27530
818.638	27435
818.778	27378
818.919	27530
819.06	27488
819.2	27667
819.341	27736
819.481	27557
819.622	27914
819.762	28032
819.903	27949
820.043	27865
820.184	27937
820.324	27819
820.465	27918
820.605	27835
820.746	27854
820.886	27724
821.026	27785
821.167	27869
821.307	28025
821.447	27755
821.588	27614
821.728	27542
821.868	27321
822.008	27195
822.149	27123
822.289	27074
822.429	26925
822.569	26902
822.709	26842
822.849	26682
822.99	26720
823.13	26792
823.27	26667
823.41	26549
823.55	26495
823.69	26507
823.83	26385
823.97	26492
824.11	26301
824.25	26290
824.389	26301
824.529	26587
824.669	26290
824.809	26453
824.949	26355
825.089	26488
825.228	26336
825.368	26229
825.508	26298
825.648	26199
825.787	26358
825.927	26366
826.067	26191
826.206	26229
826.346	26286
826.485	26328
826.625	26259
826.765	26313
826.904	26237
827.044	26031
827.183	26088
827.323	25887
827.462	26050
827.601	26012
827.741	26062
827.88	25966
828.02	25822
828.159	25822
828.298	25928
828.437	25963
828.577	25776
828.716	25986
828.855	25856
828.994	25590
829.134	25670
829.273	25651
829.412	25651
829.551	25556
829.69	25605
829.829	25715
829.968	25738
830.107	25666
830.246	25685
830.385	25544
830.524	25529
830.663	25339
830.802	25445
830.941	25384
831.08	25053
831.219	25434
831.357	25308
831.496	25518
831.635	25236
831.774	25160
831.913	25156
832.051	25152
832.19	25129
832.329	25015
832.467	24962
832.606	24916
832.744	24779
832.883	24882
833.022	24817
833.16	24935
833.299	24901
833.437	24913
833.576	24996
833.714	24924
833.852	25023
833.991	24859
834.129	25110
834.267	25031
834.406	25015
834.544	25027
834.682	25061
834.821	25110
834.959	25076
835.097	24890
835.235	24962
835.373	25031
835.511	24916
835.65	24852
835.788	24829
835.926	24707
836.064	24654
836.202	24673
836.34	24776
836.478	24886
836.615	24753
836.753	24825
836.891	24947
837.029	24760
837.167	24582
837.305	24665
837.443	24692
837.58	24669
837.718	24798
837.856	24654
837.993	24661
838.131	24688
838.269	24635
838.406	24642
838.544	24460
838.681	24372
838.819	24167
838.956	24011
839.094	24114
839.231	24110
839.369	24289
839.506	24448
839.643	24372
839.781	24129
839.918	23999
840.055	24095
840.193	24030
840.33	24136
840.467	24041
840.604	24045
840.742	24174
840.879	23885
841.016	23961
841.153	23863
841.29	24018
841.427	24011
841.564	24030
841.701	23961
841.838	23824
841.975	23984
842.112	23901
842.249	23733
842.385	23805
842.522	23939
842.659	23908
842.796	23767
842.933	23760
843.069	23794
843.206	23691
843.343	23847
843.479	23657
843.616	23729
843.752	23516
843.889	23699
844.025	23589
844.162	23524
844.298	23661
844.435	23687
844.571	23589
844.708	23615
844.844	23596
844.98	23741
845.117	23665
845.253	23535
845.389	23444
845.525	23372
845.661	23349
845.798	23330
845.934	23326
846.07	23337
846.206	23223
846.342	23429
846.478	23258
846.614	23147
846.75	22961
846.886	22965
847.022	23178
847.158	23052
847.294	22980
847.429	23064
847.565	22919
847.701	23322
847.837	22820
847.972	22694
848.108	22923
848.244	22877
848.379	22679
848.515	22656
848.65	22580
848.786	22713
848.921	22603
849.057	22733
849.192	22542
849.328	22649
849.463	22592
849.598	22474
849.734	22421
849.869	22405
850.004	22417
850.14	22322
850.275	22310
850.41	22363
850.545	22341
850.68	22303
850.815	22470
850.95	22329
851.085	22527
851.22	22405
851.355	22344
851.49	22379
851.625	22325
851.76	22352
851.895	22295
852.03	22386
852.165	22523
852.299	22299
852.434	22394
852.569	22356
852.703	22272
852.838	22390
852.973	22497
853.107	22527
853.242	22322
853.376	22226
853.511	22112
853.645	22021
853.78	22318
853.914	22257
854.048	22093
854.183	22234
854.317	22139
854.451	22371
854.585	22169
854.72	22265
854.854	22181
854.988	22177
855.122	22325
855.256	22105
855.39	22234
855.524	22166
855.658	22284
855.792	22135
855.926	22185
856.06	22139
856.194	22314
856.327	22192
856.461	22124
856.595	22135
856.729	22253
856.862	22234
856.996	22188
857.13	22261
857.263	22363
857.397	22325
857.53	22036
857.664	22253
857.797	22246
857.931	22390
858.064	22131
858.197	22295
858.331	22223
858.464	22116
858.597	22013
858.731	22261
858.864	22131
858.997	22093
859.13	22242
859.263	22261
859.396	22405
859.529	22223
859.662	22116
859.795	22169
859.928	22226
860.061	22356
860.194	22405
860.327	22185
860.46	22337
860.592	22344
860.725	22325
860.858	22200
860.99	22196
861.123	22036
861.256	22086
861.388	22166
861.521	22824
861.653	21994
861.786	21994
861.918	22070
862.05	22101
862.183	22097
862.315	22116
862.447	22204
862.58	22147
862.712	21850
862.844	21869
862.976	21968
863.108	21892
863.24	22470
863.372	21857
863.504	21918
863.636	21827
863.768	21994
863.9	21907
864.032	21709
864.164	21812
864.296	21895
864.428	22017
864.559	22025
864.691	22010
864.823	21793
864.954	21831
865.086	21930
865.217	21846
865.349	21698
865.48	21857
865.612	21751
865.743	21842
865.875	21785
866.006	21755
866.137	21717
866.269	21705
866.4	21713
866.531	21797
866.662	21675
866.793	21652
866.924	21778
867.055	21774
867.186	21698
867.317	21774
867.448	21591
867.579	21785
867.71	21622
867.841	21701
867.972	21671
868.103	21663
868.233	21667
868.364	21720
868.495	21873
868.625	21861
868.756	22101
868.886	21926
869.017	21888
869.147	22131
869.278	21960
869.408	22048
869.539	21941
869.669	21953
869.799	22128
869.929	21998
870.06	22093
870.19	22276
870.32	22238
870.45	22291
870.58	22196
870.71	22508
870.84	22447
870.97	22333
871.1	22413
871.23	22569
871.36	22634
871.489	22390
871.619	22542
871.749	22599
871.879	22649
872.008	22596
872.138	22557
872.267	22615
872.397	22550
872.526	22352
872.656	22440
872.785	22413
872.915	22626
873.044	22641
873.173	22565
873.303	22634
873.432	22683
873.561	22763
873.69	22569
873.819	22504
873.948	22641
874.077	22615
874.206	22527
874.335	22546
874.464	22634
874.593	22850
874.722	22717
874.851	22790
874.979	22892
875.108	22820
875.237	22801
875.365	22668
875.494	22721
875.623	22881
875.751	22706
875.88	22710
876.008	22850
876.136	22858
876.265	23220
876.393	23387
876.521	23296
876.65	23098
876.778	23197
876.906	23140
877.034	23121
877.162	23136
877.29	23083
877.418	23159
877.546	23109
877.674	23071
877.802	23083
877.93	23086
878.058	23090
878.185	23105
878.313	23010
878.441	23086
878.568	22938
878.696	23075
878.824	23109
878.951	23216
879.079	23299
879.206	23402
879.333	23353
879.461	23197
879.588	23200
879.715	23162
879.842	23315
879.97	23242
880.097	22946
880.224	22976
880.351	23067
880.478	22927
880.605	22930
880.732	22900
880.859	23105
880.986	22980
881.112	23064
881.239	22900
881.366	22748
881.493	22615
881.619	22577
881.746	22535
881.872	22561
881.999	22504
882.125	22417
882.252	22584
882.378	22538
882.505	22577
882.631	22265
882.757	22246
882.883	22348
883.01	22352
883.136	22200
883.262	22044
883.388	22025
883.514	22223
883.64	22295
883.766	22120
883.892	21922
884.018	21975
884.143	22158
884.269	22295
884.395	22021
884.52	21915
884.646	21903
884.772	21633
884.897	21781
885.023	21808
885.148	21857
885.274	21975
885.399	21964
885.524	21766
885.65	21804
885.775	21983
885.9	21861
886.025	21964
886.15	21793
886.275	21808
886.4	21797
886.525	21869
886.65	21720
886.775	21785
886.9	21911
887.025	21994
887.149	21778
887.274	21743
887.399	21656
887.523	21568
887.648	21610
887.773	21519
887.897	21641
888.021	21747
888.146	21549
888.27	21610
888.395	21701
888.519	21534
888.643	21663
888.767	21728
888.891	21614
889.015	21397
889.139	21447
889.263	21378
889.387	21526
889.511	21523
889.635	21473
889.759	21424
889.883	21370
890.006	21382
890.13	21519
890.254	21359
890.377	21283
890.501	21222
890.624	21100
890.748	21264
890.871	21074
890.995	21001
891.118	21009
891.241	20971
891.364	20906
891.488	20944
891.611	20933
891.734	20887
891.857	21104
891.98	21009
892.103	21020
892.226	21074
892.349	20979
892.471	20750
892.594	20891
892.717	20941
892.839	20765
892.962	20864
893.085	20880
893.207	20781
893.33	20750
893.452	20849
893.575	20925
893.697	20906
893.819	20933
893.941	21089
894.064	20895
894.186	20758
894.308	20838
894.43	20925
894.552	20994
894.674	20914
894.796	20769
894.918	20788
895.04	20849
895.161	20826
895.283	20902
895.405	20796
895.526	20720
895.648	20785
895.769	20921
895.891	20842
896.012	20941
896.134	20887
896.255	20941
896.376	20807
896.498	20773
896.619	20918
896.74	20724
896.861	20914
896.982	21192
897.103	21325
897.224	21184
897.345	20963
897.466	21013
897.587	21070
897.708	21214
897.828	21077
897.949	20960
898.07	20906
898.19	20944
898.311	21051
898.431	20986
898.552	21005
898.672	21043
898.792	21093
898.913	21032
899.033	20937
899.153	20788
899.273	20682
899.393	20823
899.513	20682
899.633	20754
899.753	20777
899.873	20670
899.993	20743
900.113	20674
900.232	20746
900.352	20724
900.472	20575
900.591	20530
900.711	20499
900.83	20423
900.95	20682
901.069	20564
901.189	20454
901.308	20153
901.427	19986
901.546	20065
901.665	20157
901.784	20176
901.904	20001
902.023	19826
902.141	19666
902.26	19674
902.379	19731
902.498	19643
902.617	19571
902.735	19594
902.854	19674
902.973	19472
903.091	19358
903.21	19312
903.328	19324
903.446	19209
903.565	19183
903.683	19103
903.801	18970
903.919	19023
904.038	18916
904.156	18825
904.274	19027
904.392	18757
904.51	18810
904.627	18878
904.745	18848
904.863	18867
904.981	18620
905.098	18486
905.216	18448
905.334	18509
905.451	18555
905.569	18452
905.686	18544
905.803	18467
905.921	18319
906.038	18296
906.155	18361
906.272	18049
906.389	18083
906.506	18083
906.623	18068
906.74	17996
906.857	17878
906.974	17939
907.091	18060
907.208	18205
907.324	18045
907.441	17969
907.557	17832
907.674	17718
907.79	17577
907.907	17828
908.023	17729
908.139	17703
908.256	17691
908.372	17668
908.488	17653
908.604	17444
908.72	17478
908.836	17448
908.952	17395
909.068	17539
909.184	17505
909.3	17436
909.415	17452
909.531	17376
909.647	17178
909.762	17109
909.878	17086
909.993	17143
910.108	17083
910.224	17151
910.339	17029
910.454	17010
910.57	16915
910.685	16869
910.8	17090
910.915	17105
911.03	16923
911.145	16759
911.259	16725
911.374	16660
911.489	16729
911.604	16599
911.718	16512
911.833	16455
911.947	16500
912.062	16379
912.176	16417
912.291	16516
912.405	16500
912.519	16660
912.633	16675
912.748	16447
912.862	16394
912.976	16325
913.09	16299
913.204	16287
913.318	16314
913.431	16375
913.545	16318
913.659	16352
913.772	16268
913.886	16105
914	16032
914.113	16219
914.226	16242
914.34	16090
914.453	16063
914.566	16120
914.68	16021
914.793	15857
914.906	15785
915.019	15663
915.132	15660
915.245	15701
915.358	15629
915.47	15690
915.583	15705
915.696	15660
915.809	15789
915.921	15751
916.034	15595
916.146	15629
916.259	15568
916.371	15694
916.483	15641
916.595	15530
916.708	15496
916.82	15557
916.932	15466
917.044	15450
917.156	15431
917.268	15310
917.38	15389
917.491	15355
917.603	15264
917.715	15386
917.826	15428
917.938	15336
918.049	15264
918.161	15176
918.272	15428
918.384	15405
918.495	15359
918.606	15195
918.717	15089
918.828	15180
918.939	15146
919.05	15005
919.161	15131
919.272	14891
919.383	14982
919.494	15146
919.604	15275
919.715	15009
919.826	15017
919.936	15081
920.047	15218
920.157	15104
920.267	15226
920.378	15089
920.488	14944
920.598	15287
920.708	15294
920.818	15195
920.928	15211
921.038	15386
921.148	15249
921.258	14887
921.368	14902
921.477	14842
921.587	14727
921.697	14678
921.806	14777
921.916	14598
922.025	14480
922.134	14476
922.244	14374
922.353	14377
922.462	14172
922.571	14229
922.68	14020
922.789	14054
922.898	14005
923.007	14027
923.116	14092
923.224	14039
923.333	13989
923.442	13947
923.55	13769
923.659	13890
923.767	13852
923.876	13852
923.984	13875
924.092	13712
924.201	13879
924.309	13738
924.417	13738
924.525	13601
924.633	13685
924.741	14465
924.849	13464
924.956	13586
925.064	13449
925.172	13453
925.279	13468
925.387	13518
925.494	13468
925.602	13605
925.709	13499
925.816	13339
925.924	13369
926.031	13487
926.138	13316
926.245	13411
926.352	13263
926.459	13403
926.566	13487
926.673	13343
926.779	13266
926.886	13187
926.993	12947
927.099	13053
927.206	12970
927.312	12977
927.419	12928
927.525	12989
927.631	12973
927.737	12848
927.843	12856
927.95	12639
928.056	12787
928.162	12783
928.267	12848
928.373	13426
928.479	12878
928.585	12544
928.69	12772
928.796	12814
928.901	12585
929.007	12513
929.112	12681
929.218	12597
929.323	12517
929.428	12498
929.533	12532
929.638	12414
929.743	12467
929.848	12486
929.953	12525
930.058	12311
930.163	12129
930.267	12148
930.372	12365
930.477	12087
930.581	12464
930.685	12197
930.79	11965
930.894	12083
930.998	11939
931.103	12125
931.207	11828
931.311	11771
931.415	11680
931.519	11497
931.623	11532
