Data from test_V78500241_72.txt Node
Date: Fri Mar 25 15:42:18 CST 2022
User: usil
Spectrometer: V785-0024
Trigger mode: 0
Integration Time (sec): 4.000000E-1
Scans to average: 1
Nonlinearity correction enabled: false
Boxcar width: 0
Storing dark spectrum: false
XAxis mode: Wavelengths
Number of Pixels in Spectrum: 1024
>>>>>Begin Spectral Data<<<<<
801.071	30057
801.214	29862
801.356	29497
801.499	29661
801.641	29429
801.783	29478
801.926	29486
802.068	29505
802.211	29349
802.353	29307
802.496	29090
802.638	29090
802.78	28911
802.923	29086
803.065	28972
803.208	28972
803.35	29064
803.492	29185
803.635	29318
803.777	29185
803.919	29326
804.061	29421
804.204	29250
804.346	29086
804.488	29212
804.63	29060
804.773	29166
804.915	29185
805.057	29326
805.199	29185
805.341	29117
805.483	29330
805.626	29178
805.768	29189
805.91	29303
806.052	29387
806.194	29391
806.336	29482
806.478	29288
806.62	29269
806.762	29459
806.904	29490
807.046	29718
807.188	29729
807.33	29676
807.472	29661
807.614	29729
807.756	29516
807.898	29474
808.04	29463
808.182	29368
808.324	29482
808.465	29501
808.607	29619
808.749	29805
808.891	29958
809.033	30110
809.174	29817
809.316	29851
809.458	29874
809.6	29824
809.741	29935
809.883	29927
810.025	30003
810.166	30030
810.308	30053
810.45	30034
810.591	29999
810.733	29828
810.875	29771
811.016	29608
811.158	29718
811.299	29935
811.441	29965
811.582	29977
811.724	29771
811.865	29672
812.007	29634
812.148	29722
812.29	29828
812.431	29904
812.573	30072
812.714	30167
812.855	30327
812.997	30323
813.138	30460
813.279	30334
813.421	30174
813.562	30171
813.703	30041
813.845	29855
813.986	29657
814.127	29539
814.268	29459
814.41	29402
814.551	29398
814.692	29490
814.833	29436
814.974	29292
815.115	29296
815.256	29094
815.397	29151
815.539	29151
815.68	29029
815.821	29010
815.962	29128
816.103	29109
816.244	28972
816.385	28767
816.526	28809
816.666	28618
816.807	28535
816.948	28557
817.089	28565
817.23	28557
817.371	28470
817.512	28455
817.653	28417
817.793	28363
817.934	28569
818.075	28489
818.216	28443
818.356	28401
818.497	28303
818.638	28280
818.778	28093
818.919	28173
819.06	28234
819.2	28409
819.341	28390
819.481	28223
819.622	28485
819.762	28717
819.903	28664
820.043	28474
820.184	28531
820.324	28390
820.465	28428
820.605	28447
820.746	28405
820.886	28246
821.026	28565
821.167	28363
821.307	28497
821.447	28329
821.588	28112
821.728	27979
821.868	27983
822.008	27766
822.149	27842
822.289	27739
822.429	27553
822.569	27485
822.709	27625
822.849	27378
822.99	27138
823.13	27116
823.27	27169
823.41	27108
823.55	27036
823.69	27184
823.83	27222
823.97	27123
824.11	26674
824.25	26781
824.389	26731
824.529	26914
824.669	26861
824.809	26975
824.949	26823
825.089	26956
825.228	26876
825.368	26663
825.508	26762
825.648	26735
825.787	26678
825.927	26648
826.067	26537
826.206	26655
826.346	26663
826.485	26796
826.625	26552
826.765	26712
826.904	26693
827.044	26317
827.183	26415
827.323	26161
827.462	26370
827.601	26252
827.741	26229
827.88	26347
828.02	26107
828.159	26393
828.298	26218
828.437	26225
828.577	26214
828.716	26381
828.855	26259
828.994	26054
829.134	25966
829.273	26073
829.412	25883
829.551	25890
829.69	25982
829.829	26001
829.968	26031
830.107	26035
830.246	25921
830.385	25883
830.524	25799
830.663	25677
830.802	25628
830.941	25529
831.08	25430
831.219	25548
831.357	25422
831.496	25753
831.635	25449
831.774	25381
831.913	25468
832.051	25346
832.19	25244
832.329	25240
832.467	25164
832.606	25042
832.744	25175
832.883	25061
833.022	25031
833.16	25107
833.299	25213
833.437	25038
833.576	25061
833.714	25171
833.852	25137
833.991	25133
834.129	25228
834.267	25107
834.406	25080
834.544	25228
834.682	25091
834.821	24985
834.959	25255
835.097	24981
835.235	25240
835.373	24992
835.511	25114
835.65	24882
835.788	24894
835.926	24814
836.064	24517
836.202	24700
836.34	24802
836.478	24962
836.615	24878
836.753	24954
836.891	24962
837.029	25008
837.167	24795
837.305	24700
837.443	24916
837.58	24612
837.718	24867
837.856	24840
837.993	24681
838.131	24703
838.269	24612
838.406	24673
838.544	24582
838.681	24292
838.819	24376
838.956	24277
839.094	24117
839.231	24235
839.369	24342
839.506	24532
839.643	24395
839.781	24144
839.918	24038
840.055	24030
840.193	24068
840.33	23996
840.467	24079
840.604	24038
840.742	24247
840.879	23908
841.016	23916
841.153	23912
841.29	24015
841.427	23946
841.564	23939
841.701	23901
841.838	23923
841.975	23912
842.112	23927
842.249	23733
842.385	23729
842.522	23893
842.659	23817
842.796	23600
842.933	23687
843.069	23551
843.206	23581
843.343	23802
843.479	23798
843.616	23649
843.752	23455
843.889	23440
844.025	23520
844.162	23330
844.298	23520
844.435	23334
844.571	23353
844.708	23364
844.844	23547
844.98	23524
845.117	23455
845.253	23162
845.389	23231
845.525	23204
845.661	23223
845.798	23075
845.934	23197
846.07	23064
846.206	23117
846.342	23258
846.478	23117
846.614	22858
846.75	22740
846.886	22869
847.022	22805
847.158	22900
847.294	22919
847.429	22828
847.565	22752
847.701	23060
847.837	22519
847.972	22573
848.108	22611
848.244	22493
848.379	22348
848.515	22344
848.65	22242
848.786	22333
848.921	22451
849.057	22280
849.192	22402
849.328	22363
849.463	22303
849.598	22318
849.734	22265
849.869	22192
850.004	22139
850.14	22109
850.275	22200
850.41	22025
850.545	22040
850.68	22036
850.815	22181
850.95	21926
851.085	22139
851.22	22166
851.355	22029
851.49	21934
851.625	21983
851.76	22017
851.895	21975
852.03	21998
852.165	22105
852.299	22112
852.434	22124
852.569	22048
852.703	21915
852.838	22112
852.973	22112
853.107	22059
853.242	21892
853.376	21846
853.511	21778
853.645	21781
853.78	21941
853.914	21941
854.048	21831
854.183	21789
854.317	21869
854.451	22021
854.585	21743
854.72	21857
854.854	21934
854.988	21694
855.122	21816
855.256	21682
855.39	21720
855.524	21800
855.658	22002
855.792	21850
855.926	21831
856.06	21861
856.194	21892
856.327	21941
856.461	21743
856.595	21759
856.729	21797
856.862	22040
856.996	21899
857.13	21800
857.263	21972
857.397	21861
857.53	21641
857.664	22017
857.797	21838
857.931	22048
858.064	21846
858.197	21911
858.331	21800
858.464	21694
858.597	21580
858.731	21759
858.864	21778
858.997	21743
859.13	21720
859.263	21793
859.396	21812
859.529	21545
859.662	21633
859.795	21557
859.928	21633
860.061	21876
860.194	21991
860.327	21743
860.46	21781
860.592	21759
860.725	21778
860.858	21865
860.99	21854
861.123	21705
861.256	21595
861.388	21770
861.521	22344
861.653	21641
861.786	21557
861.918	21564
862.05	21747
862.183	21785
862.315	21827
862.447	21857
862.58	21690
862.712	21549
862.844	21564
862.976	21583
863.108	21469
863.24	21956
863.372	21428
863.504	21450
863.636	21424
863.768	21439
863.9	21542
864.032	21389
864.164	21393
864.296	21420
864.428	21504
864.559	21450
864.691	21572
864.823	21469
864.954	21355
865.086	21424
865.217	21397
865.349	21165
865.48	21241
865.612	21367
865.743	21363
865.875	21222
866.006	21306
866.137	21287
866.269	21340
866.4	21222
866.531	21249
866.662	21184
866.793	21230
866.924	21207
867.055	21218
867.186	21233
867.317	21043
867.448	21203
867.579	21119
867.71	21089
867.841	21176
867.972	21222
868.103	21203
868.233	21287
868.364	21275
868.495	21313
868.625	21439
868.756	21504
868.886	21401
869.017	21473
869.147	21538
869.278	21622
869.408	21519
869.539	21523
869.669	21599
869.799	21542
869.929	21447
870.06	21530
870.19	21755
870.32	21774
870.45	21751
870.58	21880
870.71	22010
870.84	21759
870.97	21705
871.1	21827
871.23	22116
871.36	22029
871.489	21930
871.619	21854
871.749	21937
871.879	22070
872.008	22109
872.138	22112
872.267	22048
872.397	21876
872.526	21861
872.656	21873
872.785	21838
872.915	22090
873.044	22226
873.173	22040
873.303	22135
873.432	22158
873.561	22139
873.69	22139
873.819	21983
873.948	22150
874.077	22116
874.206	21888
874.335	21964
874.464	22242
874.593	22280
874.722	22177
874.851	22500
874.979	22356
875.108	22257
875.237	22261
875.365	22207
875.494	22284
875.623	22421
875.751	22204
875.88	22249
876.008	22470
876.136	22443
876.265	22653
876.393	22839
876.521	22740
876.65	22835
876.778	22694
876.906	22554
877.034	22538
877.162	22713
877.29	22577
877.418	22634
877.546	22622
877.674	22489
877.802	22542
877.93	22565
878.058	22668
878.185	22622
878.313	22504
878.441	22687
878.568	22436
878.696	22531
878.824	22649
878.951	22759
879.079	22774
879.206	22866
879.333	22683
879.461	22672
879.588	22702
879.715	22763
879.842	22839
879.97	22801
880.097	22413
880.224	22516
880.351	22577
880.478	22462
880.605	22402
880.732	22481
880.859	22675
880.986	22531
881.112	22485
881.239	22341
881.366	22261
881.493	22101
881.619	22063
881.746	22055
881.872	22013
881.999	22070
882.125	21972
882.252	22025
882.378	21998
882.505	22154
882.631	21861
882.757	21766
882.883	21823
883.01	21732
883.136	21652
883.262	21637
883.388	21610
883.514	21800
883.64	21861
883.766	21667
883.892	21644
884.018	21568
884.143	21656
884.269	21732
884.395	21534
884.52	21378
884.646	21428
884.772	21359
884.897	21389
885.023	21454
885.148	21431
885.274	21504
885.399	21424
885.524	21321
885.65	21439
885.775	21325
885.9	21336
886.025	21447
886.15	21317
886.275	21363
886.4	21233
886.525	21389
886.65	21241
886.775	21351
886.9	21355
887.025	21576
887.149	21211
887.274	21222
887.399	21100
887.523	21100
887.648	20975
887.773	21066
887.897	21351
888.021	21154
888.146	21024
888.27	21085
888.395	21150
888.519	21138
888.643	21039
888.767	21199
888.891	21146
889.015	20765
889.139	20929
889.263	20910
889.387	21089
889.511	21096
889.635	20921
889.759	20948
889.883	20933
890.006	20975
890.13	20948
890.254	20830
890.377	20807
890.501	20602
890.624	20492
890.748	20560
890.871	20648
890.995	20514
891.118	20469
891.241	20465
891.364	20492
891.488	20571
891.611	20469
891.734	20488
891.857	20499
891.98	20556
892.103	20526
892.226	20415
892.349	20423
892.471	20210
892.594	20347
892.717	20423
892.839	20374
892.962	20385
893.085	20446
893.207	20457
893.33	20286
893.452	20202
893.575	20442
893.697	20282
893.819	20503
893.941	20556
894.064	20499
894.186	20347
894.308	20267
894.43	20480
894.552	20469
894.674	20377
894.796	20267
894.918	20324
895.04	20377
895.161	20374
895.283	20446
895.405	20332
895.526	20237
895.648	20358
895.769	20336
895.891	20347
896.012	20427
896.134	20507
896.255	20355
896.376	20275
896.498	20434
896.619	20522
896.74	20408
896.861	20408
896.982	20727
897.103	20910
897.224	20648
897.345	20484
897.466	20579
897.587	20640
897.708	20701
897.828	20667
897.949	20484
898.07	20495
898.19	20461
898.311	20594
898.431	20450
898.552	20507
898.672	20617
898.792	20594
898.913	20499
899.033	20408
899.153	20412
899.273	20149
899.393	20252
899.513	20267
899.633	20229
899.753	20324
899.873	20180
899.993	20187
900.113	20176
900.232	20195
900.352	20271
900.472	20183
900.591	20012
900.711	20073
900.83	20088
900.95	20172
901.069	20088
901.189	20001
901.308	19666
901.427	19628
901.546	19666
901.665	19620
901.784	19643
901.904	19544
902.023	19369
902.141	19175
902.26	19156
902.379	19278
902.498	18993
902.617	19103
902.735	19084
902.854	19050
902.973	18878
903.091	18665
903.21	18726
903.328	18703
903.446	18688
903.565	18544
903.683	18585
903.801	18464
903.919	18540
904.038	18467
904.156	18266
904.274	18426
904.392	18388
904.51	18281
904.627	18304
904.745	18350
904.863	18441
904.981	18155
905.098	17958
905.216	17958
905.334	18079
905.451	17984
905.569	17794
905.686	18007
905.803	18022
905.921	17767
906.038	17901
906.155	17798
906.272	17680
906.389	17737
906.506	17623
906.623	17577
906.74	17558
906.857	17414
906.974	17425
907.091	17474
907.208	17665
907.324	17440
907.441	17258
907.557	17277
907.674	17220
907.79	17102
907.907	17117
908.023	17280
908.139	17071
908.256	17041
908.372	17060
908.488	17003
908.604	16942
908.72	16923
908.836	16839
908.952	16824
909.068	16984
909.184	16942
909.3	16782
909.415	16828
909.531	16862
909.647	16535
909.762	16615
909.878	16455
909.993	16588
910.108	16447
910.224	16516
910.339	16443
910.454	16303
910.57	16428
910.685	16310
910.8	16584
910.915	16504
911.03	16318
911.145	16246
911.259	16124
911.374	16143
911.489	16078
911.604	16002
911.718	15831
911.833	15846
911.947	15789
912.062	15759
912.176	15922
912.291	15968
912.405	15888
912.519	16059
912.633	16032
912.748	15827
912.862	15759
912.976	15717
913.09	15549
913.204	15584
913.318	15675
913.431	15785
913.545	15648
913.659	15728
913.772	15587
913.886	15584
914	15401
914.113	15549
914.226	15511
914.34	15507
914.453	15469
914.566	15481
914.68	15393
914.793	15237
914.906	15199
915.019	15062
915.132	15093
915.245	15058
915.358	15142
915.47	15066
915.583	15039
915.696	15047
915.809	15203
915.921	15237
916.034	15074
916.146	15028
916.259	14952
916.371	15028
916.483	14971
916.595	14941
916.708	14956
916.82	14826
916.932	14899
917.044	14781
917.156	14750
917.268	14686
917.38	14674
917.491	14701
917.603	14762
917.715	14785
917.826	14899
917.938	14587
918.049	14549
918.161	14644
918.272	14750
918.384	14788
918.495	14739
918.606	14511
918.717	14461
918.828	14492
918.939	14579
919.05	14480
919.161	14533
919.272	14183
919.383	14309
919.494	14469
919.604	14571
919.715	14431
919.826	14412
919.936	14396
920.047	14514
920.157	14415
920.267	14632
920.378	14457
920.488	14301
920.598	14670
920.708	14629
920.818	14541
920.928	14514
921.038	14708
921.148	14575
921.258	14412
921.368	14282
921.477	14096
921.587	14065
921.697	14027
921.806	14142
921.916	13898
922.025	13788
922.134	13807
922.244	13708
922.353	13822
922.462	13674
922.571	13563
922.68	13544
922.789	13468
922.898	13373
923.007	13308
923.116	13430
923.224	13343
923.333	13354
923.442	13255
923.55	13225
923.659	13213
923.767	13362
923.876	13080
923.984	13244
924.092	13069
924.201	13137
924.309	13160
924.417	13152
924.525	13072
924.633	13080
924.741	14043
924.849	12829
924.956	12973
925.064	12837
925.172	12817
925.279	12745
925.387	12837
925.494	12871
925.602	12947
925.709	12856
925.816	12806
925.924	12829
926.031	12753
926.138	12791
926.245	12703
926.352	12715
926.459	12833
926.566	12814
926.673	12802
926.779	12506
926.886	12597
926.993	12460
927.099	12388
927.206	12418
927.312	12243
927.419	12391
927.525	12369
927.631	12361
927.737	12258
927.843	12163
927.95	12129
928.056	12224
928.162	12273
928.267	12334
928.373	12795
928.479	12254
928.585	12076
928.69	12064
928.796	12220
928.901	12076
929.007	11954
929.112	12007
929.218	12041
929.323	11904
929.428	11824
929.533	12064
929.638	11885
929.743	11870
929.848	11920
929.953	11851
930.058	11790
930.163	11676
930.267	11661
930.372	11646
930.477	11589
930.581	11745
930.685	11646
930.79	11535
930.894	11539
930.998	11463
931.103	11570
931.207	11246
931.311	11056
931.415	10976
931.519	10858
931.623	10847
