Data from test_V78500241_3721.txt Node
Date: Fri Mar 25 16:07:34 CST 2022
User: usil
Spectrometer: V785-0024
Trigger mode: 0
Integration Time (sec): 4.000000E-1
Scans to average: 1
Nonlinearity correction enabled: false
Boxcar width: 0
Storing dark spectrum: false
XAxis mode: Wavelengths
Number of Pixels in Spectrum: 1024
>>>>>Begin Spectral Data<<<<<
801.071	28413
801.214	28314
801.356	28036
801.499	28093
801.641	27918
801.783	27793
801.926	27994
802.068	27804
802.211	27759
802.353	27728
802.496	27762
802.638	27523
802.78	27549
802.923	27523
803.065	27447
803.208	27488
803.35	27568
803.492	27675
803.635	27827
803.777	27545
803.919	27804
804.061	28112
804.204	27937
804.346	27728
804.488	27686
804.63	27766
804.773	27667
804.915	27774
805.057	27994
805.199	27873
805.341	27972
805.483	27914
805.626	27884
805.768	27762
805.91	28074
806.052	27998
806.194	27914
806.336	28162
806.478	28006
806.62	27926
806.762	28067
806.904	28352
807.046	28466
807.188	28363
807.33	28333
807.472	28447
807.614	28363
807.756	28440
807.898	28150
808.04	28147
808.182	28154
808.324	28200
808.465	28200
808.607	28550
808.749	28748
808.891	28656
809.033	28698
809.174	28557
809.316	28660
809.458	28687
809.6	28634
809.741	28557
809.883	28778
810.025	28809
810.166	28961
810.308	28888
810.45	28835
810.591	28759
810.733	28653
810.875	28512
811.016	28394
811.158	28531
811.299	28710
811.441	28812
811.582	28660
811.724	28656
811.865	28641
812.007	28675
812.148	28668
812.29	28778
812.431	28866
812.573	29041
812.714	28942
812.855	29113
812.997	29193
813.138	29353
813.279	29421
813.421	29170
813.562	29193
813.703	28984
813.845	28923
813.986	28592
814.127	28421
814.268	28314
814.41	28367
814.551	28257
814.692	28379
814.833	28181
814.974	28249
815.115	28314
815.256	28166
815.397	28169
815.539	28318
815.68	28090
815.821	28090
815.962	28166
816.103	28048
816.244	27930
816.385	27930
816.526	27812
816.666	27724
816.807	27759
816.948	27694
817.089	27568
817.23	27660
817.371	27698
817.512	27652
817.653	27534
817.793	27599
817.934	27519
818.075	27671
818.216	27625
818.356	27504
818.497	27397
818.638	27329
818.778	27382
818.919	27393
819.06	27427
819.2	27599
819.341	27663
819.481	27720
819.622	27968
819.762	27911
819.903	28017
820.043	27690
820.184	27728
820.324	27705
820.465	27937
820.605	27724
820.746	27774
820.886	27587
821.026	27743
821.167	27583
821.307	27766
821.447	27679
821.588	27500
821.728	27412
821.868	27245
822.008	27119
822.149	27180
822.289	27062
822.429	26800
822.569	26830
822.709	26948
822.849	26720
822.99	26648
823.13	26621
823.27	26571
823.41	26358
823.55	26358
823.69	26533
823.83	26484
823.97	26442
824.11	26263
824.25	26244
824.389	26282
824.529	26233
824.669	26244
824.809	26374
824.949	26427
825.089	26522
825.228	26400
825.368	26115
825.508	26107
825.648	26138
825.787	26172
825.927	26233
826.067	26202
826.206	26058
826.346	26183
826.485	26206
826.625	26210
826.765	26301
826.904	26343
827.044	25982
827.183	25944
827.323	25906
827.462	25879
827.601	25898
827.741	25917
827.88	26024
828.02	25704
828.159	25963
828.298	25772
828.437	25955
828.577	25765
828.716	26035
828.855	25723
828.994	25499
829.134	25567
829.273	25613
829.412	25540
829.551	25464
829.69	25495
829.829	25624
829.968	25601
830.107	25643
830.246	25537
830.385	25540
830.524	25457
830.663	25381
830.802	25232
830.941	25107
831.08	25122
831.219	25247
831.357	25415
831.496	25388
831.635	25160
831.774	25133
831.913	25050
832.051	25023
832.19	24973
832.329	24875
832.467	24901
832.606	24692
832.744	24859
832.883	24878
833.022	24681
833.16	24844
833.299	24802
833.437	24962
833.576	25019
833.714	24856
833.852	24909
833.991	25088
834.129	24798
834.267	25000
834.406	25027
834.544	24985
834.682	24962
834.821	24802
834.959	25152
835.097	24817
835.235	24985
835.373	24859
835.511	24787
835.65	24798
835.788	24817
835.926	24700
836.064	24566
836.202	24544
836.34	24570
836.478	24700
836.615	24661
836.753	24760
836.891	24779
837.029	24738
837.167	24661
837.305	24665
837.443	24639
837.58	24536
837.718	24627
837.856	24738
837.993	24399
838.131	24445
838.269	24350
838.406	24521
838.544	24262
838.681	24285
838.819	24338
838.956	23988
839.094	23965
839.231	24159
839.369	24163
839.506	24448
839.643	24281
839.781	24190
839.918	24003
840.055	24041
840.193	23904
840.33	24045
840.467	23950
840.604	23977
840.742	24209
840.879	23824
841.016	23874
841.153	23824
841.29	24076
841.427	23958
841.564	23946
841.701	23935
841.838	23931
841.975	23786
842.112	23840
842.249	23767
842.385	23661
842.522	23863
842.659	23794
842.796	23707
842.933	23668
843.069	23672
843.206	23790
843.343	23737
843.479	23748
843.616	23729
843.752	23398
843.889	23570
844.025	23695
844.162	23497
844.298	23471
844.435	23395
844.571	23364
844.708	23440
844.844	23608
844.98	23535
845.117	23642
845.253	23395
845.389	23337
845.525	23353
845.661	23440
845.798	23326
845.934	23318
846.07	23303
846.206	23345
846.342	23189
846.478	23246
846.614	23033
846.75	22885
846.886	22976
847.022	22995
847.158	23029
847.294	22972
847.429	23102
847.565	22854
847.701	23143
847.837	22622
847.972	22630
848.108	22740
848.244	22710
848.379	22607
848.515	22466
848.65	22531
848.786	22531
848.921	22497
849.057	22653
849.192	22516
849.328	22687
849.463	22497
849.598	22424
849.734	22451
849.869	22432
850.004	22242
850.14	22440
850.275	22303
850.41	22131
850.545	22162
850.68	22325
850.815	22405
850.95	22234
851.085	22424
851.22	22413
851.355	22223
851.49	22253
851.625	22265
851.76	22367
851.895	22291
852.03	22139
852.165	22329
852.299	22238
852.434	22474
852.569	22386
852.703	22360
852.838	22295
852.973	22500
853.107	22299
853.242	22314
853.376	22219
853.511	21972
853.645	22128
853.78	22226
853.914	22219
854.048	21972
854.183	22021
854.317	22105
854.451	22382
854.585	22246
854.72	22181
854.854	22223
854.988	22143
855.122	22040
855.256	21892
855.39	22116
855.524	22101
855.658	22185
855.792	22112
855.926	22166
856.06	22280
856.194	22097
856.327	22166
856.461	22017
856.595	22154
856.729	22105
856.862	22253
856.996	22166
857.13	22105
857.263	22143
857.397	22166
857.53	22093
857.664	22131
857.797	22086
857.931	22211
858.064	22284
858.197	22131
858.331	22078
858.464	22105
858.597	22006
858.731	22120
858.864	22025
858.997	22139
859.13	22124
859.263	22097
859.396	22226
859.529	22029
859.662	21945
859.795	22128
859.928	22223
860.061	22226
860.194	22276
860.327	22101
860.46	22158
860.592	22261
860.725	22211
860.858	22268
860.99	22246
861.123	21983
861.256	21983
861.388	22166
861.521	22755
861.653	22044
861.786	21808
861.918	22101
862.05	21922
862.183	22120
862.315	22055
862.447	22116
862.58	22036
862.712	22002
862.844	21743
862.976	21892
863.108	21899
863.24	22257
863.372	21766
863.504	21800
863.636	21766
863.768	21831
863.9	21922
864.032	21850
864.164	21835
864.296	21964
864.428	21975
864.559	21945
864.691	21895
864.823	21899
864.954	21739
865.086	21884
865.217	21641
865.349	21774
865.48	21724
865.612	21781
865.743	21793
865.875	21660
866.006	21679
866.137	21663
866.269	21747
866.4	21690
866.531	21667
866.662	21591
866.793	21580
866.924	21568
867.055	21705
867.186	21610
867.317	21629
867.448	21564
867.579	21599
867.71	21595
867.841	21500
867.972	21873
868.103	21641
868.233	21591
868.364	21675
868.495	21793
868.625	21804
868.756	22120
868.886	21770
869.017	21789
869.147	21975
869.278	21983
869.408	21888
869.539	21812
869.669	21991
869.799	21998
869.929	22040
870.06	21972
870.19	22246
870.32	22211
870.45	22200
870.58	22257
870.71	22299
870.84	22436
870.97	22295
871.1	22337
871.23	22394
871.36	22299
871.489	22356
871.619	22462
871.749	22493
871.879	22497
872.008	22664
872.138	22531
872.267	22341
872.397	22287
872.526	22265
872.656	22371
872.785	22371
872.915	22588
873.044	22618
873.173	22424
873.303	22577
873.432	22504
873.561	22599
873.69	22577
873.819	22535
873.948	22500
874.077	22637
874.206	22394
874.335	22546
874.464	22611
874.593	22801
874.722	22812
874.851	22828
874.979	22702
875.108	22717
875.237	22637
875.365	22664
875.494	22691
875.623	22881
875.751	22694
875.88	22694
876.008	22835
876.136	22869
876.265	23204
876.393	23239
876.521	23181
876.65	23235
876.778	23094
876.906	23044
877.034	23048
877.162	23075
877.29	23018
877.418	23037
877.546	23117
877.674	23136
877.802	23044
877.93	23029
878.058	23067
878.185	22987
878.313	23010
878.441	23033
878.568	22755
878.696	23018
878.824	23048
878.951	23193
879.079	23288
879.206	23368
879.333	23166
879.461	23143
879.588	23113
879.715	23223
879.842	23296
879.97	23132
880.097	22892
880.224	22911
880.351	23010
880.478	23018
880.605	22889
880.732	22748
880.859	23124
880.986	22957
881.112	22915
881.239	22782
881.366	22664
881.493	22603
881.619	22569
881.746	22485
881.872	22474
881.999	22421
882.125	22367
882.252	22485
882.378	22497
882.505	22451
882.631	22306
882.757	22329
882.883	22272
883.01	22059
883.136	22143
883.262	21819
883.388	21907
883.514	22135
883.64	22276
883.766	21979
883.892	21964
884.018	21888
884.143	22029
884.269	22238
884.395	21953
884.52	21705
884.646	21724
884.772	21705
884.897	21755
885.023	21694
885.148	21907
885.274	22006
885.399	21857
885.524	21770
885.65	21751
885.775	21751
885.9	21713
886.025	21873
886.15	21854
886.275	21770
886.4	21610
886.525	21698
886.65	21671
886.775	21652
886.9	21804
887.025	21873
887.149	21644
887.274	21561
887.399	21633
887.523	21523
887.648	21504
887.773	21496
887.897	21580
888.021	21648
888.146	21481
888.27	21656
888.395	21523
888.519	21583
888.643	21530
888.767	21629
888.891	21477
889.015	21488
889.139	21424
889.263	21329
889.387	21348
889.511	21519
889.635	21454
889.759	21298
889.883	21374
890.006	21264
890.13	21405
890.254	21218
890.377	21237
890.501	21119
890.624	21001
890.748	21154
890.871	20990
890.995	20921
891.118	20830
891.241	20883
891.364	20872
891.488	20967
891.611	20975
891.734	20785
891.857	20929
891.98	20804
892.103	20883
892.226	20925
892.349	20724
892.471	20705
892.594	20716
892.717	20792
892.839	20910
892.962	20845
893.085	20853
893.207	20724
893.33	20629
893.452	20735
893.575	20792
893.697	20716
893.819	21028
893.941	21032
894.064	20956
894.186	20705
894.308	20636
894.43	20868
894.552	20762
894.674	20838
894.796	20560
894.918	20716
895.04	20735
895.161	20902
895.283	20785
895.405	20674
895.526	20826
895.648	20667
895.769	20781
895.891	20891
896.012	20891
896.134	20845
896.255	20819
896.376	20785
896.498	20785
896.619	20952
896.74	20773
896.861	20758
896.982	21089
897.103	21165
897.224	21131
897.345	20986
897.466	20952
897.587	21005
897.708	21138
897.828	21001
897.949	20838
898.07	20838
898.19	20849
898.311	21028
898.431	21005
898.552	21017
898.672	20998
898.792	20986
898.913	20891
899.033	20746
899.153	20705
899.273	20727
899.393	20686
899.513	20735
899.633	20705
899.753	20686
899.873	20667
899.993	20682
900.113	20575
900.232	20621
900.352	20667
900.472	20621
900.591	20545
900.711	20545
900.83	20381
900.95	20507
901.069	20606
901.189	20237
901.308	20145
901.427	20096
901.546	20027
901.665	20065
901.784	20077
901.904	19879
902.023	19715
902.141	19693
902.26	19533
902.379	19609
902.498	19594
902.617	19529
902.735	19620
902.854	19491
902.973	19552
903.091	19225
903.21	19145
903.328	19171
903.446	19133
903.565	18993
903.683	19065
903.801	18897
903.919	19019
904.038	19027
904.156	18878
904.274	18867
904.392	18837
904.51	18715
904.627	18810
904.745	18745
904.863	18772
904.981	18677
905.098	18623
905.216	18551
905.334	18547
905.451	18506
905.569	18399
905.686	18433
905.803	18452
905.921	18140
906.038	18418
906.155	18262
906.272	18182
906.389	18186
906.506	18045
906.623	18106
906.74	17908
906.857	17843
906.974	17866
907.091	18098
907.208	18106
907.324	17950
907.441	17851
907.557	17764
907.674	17718
907.79	17630
907.907	17771
908.023	17760
908.139	17707
908.256	17608
908.372	17737
908.488	17551
908.604	17486
908.72	17402
908.836	17528
908.952	17459
909.068	17433
909.184	17585
909.3	17486
909.415	17379
909.531	17452
909.647	17162
909.762	17178
909.878	17159
909.993	17121
910.108	17010
910.224	17140
910.339	17124
910.454	17052
910.57	16934
910.685	16987
910.8	17071
910.915	17094
911.03	16957
911.145	16706
911.259	16683
911.374	16820
911.489	16675
911.604	16546
911.718	16470
911.833	16474
911.947	16386
912.062	16306
912.176	16462
912.291	16500
912.405	16394
912.519	16634
912.633	16793
912.748	16428
912.862	16424
912.976	16287
913.09	16230
913.204	16306
913.318	16200
913.431	16207
913.545	16348
913.659	16363
913.772	16272
913.886	16105
914	15987
914.113	16215
914.226	16131
914.34	16147
914.453	16002
914.566	16082
914.68	15903
914.793	15895
914.906	15751
915.019	15644
915.132	15587
915.245	15739
915.358	15587
915.47	15701
915.583	15675
915.696	15679
915.809	15831
915.921	15766
916.034	15561
916.146	15584
916.259	15591
916.371	15648
916.483	15568
916.595	15469
916.708	15382
916.82	15485
916.932	15447
917.044	15416
917.156	15466
917.268	15313
917.38	15332
917.491	15351
917.603	15287
917.715	15321
917.826	15351
917.938	15211
918.049	15089
918.161	15249
918.272	15408
918.384	15351
918.495	15077
918.606	15070
918.717	14925
918.828	15070
918.939	15032
919.05	14960
919.161	15047
919.272	14868
919.383	14830
919.494	15085
919.604	15272
919.715	14910
919.826	14895
919.936	15043
920.047	15074
920.157	15085
920.267	15169
920.378	14952
920.488	14853
920.598	15214
920.708	15302
920.818	15135
920.928	15077
921.038	15195
921.148	15241
921.258	14872
921.368	14921
921.477	14762
921.587	14712
921.697	14537
921.806	14743
921.916	14579
922.025	14389
922.134	14480
922.244	14294
922.353	14343
922.462	14282
922.571	14202
922.68	14031
922.789	13997
922.898	14012
923.007	13917
923.116	14027
923.224	14008
923.333	14012
923.442	13856
923.55	13879
923.659	13814
923.767	13841
923.876	13708
923.984	13894
924.092	13719
924.201	13750
924.309	13719
924.417	13715
924.525	13613
924.633	13723
924.741	14457
924.849	13533
924.956	13559
925.064	13449
925.172	13369
925.279	13365
925.387	13396
925.494	13419
925.602	13476
925.709	13438
925.816	13179
925.924	13400
926.031	13373
926.138	13373
926.245	13445
926.352	13213
926.459	13304
926.566	13343
926.673	13244
926.779	13099
926.886	13012
926.993	13050
927.099	12905
927.206	12973
927.312	12913
927.419	12996
927.525	12920
927.631	12935
927.737	12817
927.843	12821
927.95	12665
928.056	12768
928.162	12791
928.267	12837
928.373	13346
928.479	12821
928.585	12566
928.69	12654
928.796	12817
928.901	12582
929.007	12414
929.112	12604
929.218	12665
929.323	12456
929.428	12521
929.533	12525
929.638	12460
929.743	12346
929.848	12441
929.953	12433
930.058	12399
930.163	12182
930.267	12197
930.372	12350
930.477	12072
930.581	12369
930.685	12159
930.79	11961
930.894	12091
930.998	11939
931.103	12095
931.207	11878
931.311	11726
931.415	11604
931.519	11433
931.623	11398
