Data from test_V78500241_2459.txt Node
Date: Fri Mar 25 15:58:50 CST 2022
User: usil
Spectrometer: V785-0024
Trigger mode: 0
Integration Time (sec): 4.000000E-1
Scans to average: 1
Nonlinearity correction enabled: false
Boxcar width: 0
Storing dark spectrum: false
XAxis mode: Wavelengths
Number of Pixels in Spectrum: 1024
>>>>>Begin Spectral Data<<<<<
801.071	29242
801.214	29113
801.356	28930
801.499	28740
801.641	28740
801.783	28713
801.926	28850
802.068	28691
802.211	28820
802.353	28626
802.496	28561
802.638	28405
802.78	28367
802.923	28459
803.065	28386
803.208	28401
803.35	28485
803.492	28660
803.635	28660
803.777	28603
803.919	28641
804.061	28896
804.204	28733
804.346	28717
804.488	28645
804.63	28660
804.773	28607
804.915	28862
805.057	28858
805.199	28824
805.341	28759
805.483	28892
805.626	28892
805.768	28774
805.91	28923
806.052	28919
806.194	28934
806.336	29003
806.478	28919
806.62	28854
806.762	29155
806.904	29105
807.046	29356
807.188	29349
807.33	29239
807.472	29414
807.614	29311
807.756	29197
807.898	29147
808.04	29075
808.182	29075
808.324	29143
808.465	29280
808.607	29436
808.749	29558
808.891	29737
809.033	29802
809.174	29695
809.316	29687
809.458	29512
809.6	29573
809.741	29642
809.883	29676
810.025	29764
810.166	29821
810.308	29809
810.45	29855
810.591	29870
810.733	29672
810.875	29486
811.016	29600
811.158	29463
811.299	29687
811.441	29646
811.582	29657
811.724	29634
811.865	29512
812.007	29592
812.148	29653
812.29	29684
812.431	29832
812.573	29878
812.714	30057
812.855	30159
812.997	30209
813.138	30296
813.279	30209
813.421	30106
813.562	30015
813.703	29843
813.845	29889
813.986	29512
814.127	29448
814.268	29337
814.41	29372
814.551	29337
814.692	29467
814.833	29284
814.974	29341
815.115	29299
815.256	29117
815.397	29098
815.539	29178
815.68	29239
815.821	29044
815.962	29075
816.103	29200
816.244	29143
816.385	28961
816.526	28881
816.666	28660
816.807	28603
816.948	28630
817.089	28702
817.23	28546
817.371	28607
817.512	28607
817.653	28611
817.793	28618
817.934	28660
818.075	28736
818.216	28596
818.356	28577
818.497	28577
818.638	28314
818.778	28325
818.919	28447
819.06	28611
819.2	28596
819.341	28691
819.481	28672
819.622	28995
819.762	28930
819.903	29003
820.043	28858
820.184	28645
820.324	28786
820.465	28877
820.605	28858
820.746	28736
820.886	28630
821.026	28672
821.167	28881
821.307	28790
821.447	28607
821.588	28637
821.728	28428
821.868	28185
822.008	28173
822.149	28029
822.289	28219
822.429	28059
822.569	27869
822.709	27766
822.849	27682
822.99	27682
823.13	27652
823.27	27538
823.41	27568
823.55	27401
823.69	27435
823.83	27458
823.97	27473
824.11	27230
824.25	27272
824.389	27287
824.529	27348
824.669	27291
824.809	27523
824.949	27481
825.089	27378
825.228	27416
825.368	27108
825.508	27230
825.648	27123
825.787	27298
825.927	27161
826.067	27131
826.206	27283
826.346	27230
826.485	27306
826.625	27264
826.765	27123
826.904	27184
827.044	27062
827.183	26948
827.323	26918
827.462	27013
827.601	26891
827.741	26838
827.88	26914
828.02	26933
828.159	26940
828.298	26861
828.437	26883
828.577	27005
828.716	26952
828.855	26842
828.994	26499
829.134	26560
829.273	26541
829.412	26564
829.551	26465
829.69	26575
829.829	26629
829.968	26549
830.107	26568
830.246	26488
830.385	26503
830.524	26461
830.663	26442
830.802	26328
830.941	26233
831.08	26122
831.219	26282
831.357	26233
831.496	26370
831.635	26225
831.774	26153
831.913	26039
832.051	26020
832.19	26058
832.329	25966
832.467	25890
832.606	25791
832.744	25852
832.883	25791
833.022	25784
833.16	25860
833.299	26005
833.437	25856
833.576	25875
833.714	25978
833.852	25970
833.991	25970
834.129	25944
834.267	25993
834.406	25894
834.544	25978
834.682	25833
834.821	25879
834.959	26077
835.097	25868
835.235	25833
835.373	25852
835.511	25917
835.65	25757
835.788	25818
835.926	25693
836.064	25616
836.202	25552
836.34	25833
836.478	25807
836.615	25860
836.753	25727
836.891	25849
837.029	25590
837.167	25772
837.305	25715
837.443	25567
837.58	25487
837.718	25582
837.856	25594
837.993	25586
838.131	25670
838.269	25479
838.406	25556
838.544	25419
838.681	25148
838.819	25236
838.956	25027
839.094	24932
839.231	24962
839.369	25114
839.506	25449
839.643	25301
839.781	25027
839.918	24970
840.055	25050
840.193	24962
840.33	24871
840.467	25072
840.604	24943
840.742	25236
840.879	24856
841.016	24894
841.153	24848
841.29	24890
841.427	24977
841.564	25046
841.701	24932
841.838	25008
841.975	24707
842.112	24707
842.249	24772
842.385	24779
842.522	24909
842.659	24897
842.796	24703
842.933	24802
843.069	24661
843.206	24521
843.343	24658
843.479	24582
843.616	24684
843.752	24410
843.889	24357
844.025	24532
844.162	24422
844.298	24525
844.435	24540
844.571	24410
844.708	24551
844.844	24642
844.98	24551
845.117	24578
845.253	24327
845.389	24395
845.525	24361
845.661	24407
845.798	24159
845.934	24353
846.07	24182
846.206	24201
846.342	24281
846.478	24220
846.614	23897
846.75	23809
846.886	23939
847.022	24076
847.158	23912
847.294	23904
847.429	24022
847.565	23828
847.701	24152
847.837	23695
847.972	23604
848.108	23783
848.244	23691
848.379	23398
848.515	23474
848.65	23425
848.786	23345
848.921	23600
849.057	23661
849.192	23528
849.328	23467
849.463	23414
849.598	23455
849.734	23391
849.869	23440
850.004	23322
850.14	23242
850.275	23372
850.41	23143
850.545	23086
850.68	23136
850.815	23208
850.95	23212
851.085	23524
851.22	23391
851.355	23292
851.49	23269
851.625	23041
851.76	23143
851.895	23162
852.03	23212
852.165	23204
852.299	23143
852.434	23197
852.569	23220
852.703	23273
852.838	23121
852.973	23318
853.107	23383
853.242	23208
853.376	23162
853.511	22881
853.645	23155
853.78	23162
853.914	23143
854.048	23044
854.183	23086
854.317	23181
854.451	23364
854.585	23033
854.72	23216
854.854	23155
854.988	22995
855.122	23094
855.256	22930
855.39	23022
855.524	23113
855.658	23136
855.792	23128
855.926	23136
856.06	23113
856.194	23075
856.327	23159
856.461	22930
856.595	22961
856.729	23075
856.862	23159
856.996	23048
857.13	23060
857.263	23258
857.397	23159
857.53	23037
857.664	23041
857.797	23147
857.931	23094
858.064	23136
858.197	23162
858.331	23006
858.464	23003
858.597	22854
858.731	22885
858.864	22934
858.997	23098
859.13	23014
859.263	22953
859.396	23174
859.529	23006
859.662	23056
859.795	23056
859.928	23010
860.061	23292
860.194	23178
860.327	23170
860.46	23166
860.592	23212
860.725	23048
860.858	23105
860.99	23033
861.123	22976
861.256	23029
861.388	23094
861.521	23859
861.653	23052
861.786	22904
861.918	22896
862.05	22949
862.183	22953
862.315	23071
862.447	23105
862.58	22919
862.712	22744
862.844	22866
862.976	22820
863.108	22816
863.24	23170
863.372	22721
863.504	22740
863.636	22725
863.768	22965
863.9	22729
864.032	22615
864.164	22744
864.296	22820
864.428	22885
864.559	22733
864.691	22801
864.823	22698
864.954	22755
865.086	22740
865.217	22603
865.349	22596
865.48	22622
865.612	22702
865.743	22854
865.875	22573
866.006	22656
866.137	22698
866.269	22634
866.4	22706
866.531	22611
866.662	22462
866.793	22523
866.924	22577
867.055	22546
867.186	22527
867.317	22561
867.448	22489
867.579	22569
867.71	22390
867.841	22318
867.972	22660
868.103	22531
868.233	22542
868.364	22481
868.495	22763
868.625	22881
868.756	22858
868.886	22713
869.017	22805
869.147	22790
869.278	22877
869.408	22923
869.539	22767
869.669	22862
869.799	22797
869.929	22995
870.06	23041
870.19	23029
870.32	23181
870.45	23185
870.58	23185
870.71	23311
870.84	23383
870.97	23086
871.1	23197
871.23	23376
871.36	23455
871.489	23337
871.619	23200
871.749	23318
871.879	23490
872.008	23482
872.138	23471
872.267	23296
872.397	23246
872.526	23292
872.656	23216
872.785	23067
872.915	23436
873.044	23379
873.173	23524
873.303	23368
873.432	23402
873.561	23493
873.69	23406
873.819	23448
873.948	23452
874.077	23505
874.206	23284
874.335	23474
874.464	23474
874.593	23562
874.722	23516
874.851	23589
874.979	23592
875.108	23760
875.237	23501
875.365	23444
875.494	23535
875.623	23566
875.751	23729
875.88	23543
876.008	23870
876.136	23714
876.265	23961
876.393	24053
876.521	24018
876.65	24098
876.778	24007
876.906	23942
877.034	23904
877.162	23931
877.29	23863
877.418	23992
877.546	23980
877.674	23893
877.802	23912
877.93	23878
878.058	23817
878.185	23885
878.313	24049
878.441	23939
878.568	23824
878.696	23885
878.824	23988
878.951	24053
879.079	24098
879.206	24167
879.333	24140
879.461	24110
879.588	24102
879.715	24079
879.842	24072
879.97	23946
880.097	23828
880.224	23824
880.351	23855
880.478	23691
880.605	23722
880.732	23832
880.859	23946
880.986	23737
881.112	23707
881.239	23733
881.366	23421
881.493	23330
881.619	23421
881.746	23414
881.872	23269
881.999	23220
882.125	23174
882.252	23299
882.378	23231
882.505	23341
882.631	23102
882.757	22961
882.883	22995
883.01	22862
883.136	22949
883.262	22809
883.388	22653
883.514	22854
883.64	22961
883.766	22915
883.892	22733
884.018	22885
884.143	22900
884.269	22896
884.395	22645
884.52	22554
884.646	22713
884.772	22474
884.897	22500
885.023	22622
885.148	22599
885.274	22683
885.399	22805
885.524	22630
885.65	22588
885.775	22649
885.9	22538
886.025	22573
886.15	22736
886.275	22459
886.4	22443
886.525	22580
886.65	22375
886.775	22440
886.9	22645
887.025	22630
887.149	22660
887.274	22436
887.399	22249
887.523	22261
887.648	22367
887.773	22276
887.897	22413
888.021	22386
888.146	22337
888.27	22428
888.395	22382
888.519	22318
888.643	22238
888.767	22325
888.891	22348
889.015	22139
889.139	22238
889.263	22048
889.387	22177
889.511	22382
889.635	22185
889.759	22143
889.883	22086
890.006	22101
890.13	22147
890.254	22124
890.377	22025
890.501	21941
890.624	21895
890.748	21934
890.871	21625
890.995	21656
891.118	21595
891.241	21717
891.364	21667
891.488	21831
891.611	21698
891.734	21770
891.857	21720
891.98	21679
892.103	21850
892.226	21755
892.349	21648
892.471	21572
892.594	21690
892.717	21717
892.839	21583
892.962	21504
893.085	21705
893.207	21450
893.33	21428
893.452	21504
893.575	21671
893.697	21564
893.819	21576
893.941	21789
894.064	21736
894.186	21549
894.308	21405
894.43	21519
894.552	21739
894.674	21572
894.796	21458
894.918	21622
895.04	21553
895.161	21618
895.283	21576
895.405	21496
895.526	21488
895.648	21538
895.769	21526
895.891	21564
896.012	21625
896.134	21622
896.255	21488
896.376	21557
896.498	21473
896.619	21431
896.74	21545
896.861	21572
896.982	21781
897.103	21975
897.224	21774
897.345	21576
897.466	21633
897.587	21720
897.708	21899
897.828	21816
897.949	21671
898.07	21587
898.19	21770
898.311	21629
898.431	21656
898.552	21728
898.672	21739
898.792	21713
898.913	21812
899.033	21610
899.153	21428
899.273	21355
899.393	21374
899.513	21507
899.633	21408
899.753	21386
899.873	21252
899.993	21397
900.113	21317
900.232	21450
900.352	21313
900.472	21298
900.591	21127
900.711	21249
900.83	21173
900.95	21264
901.069	21214
901.189	21142
901.308	20895
901.427	20659
901.546	20773
901.665	20769
901.784	20750
901.904	20613
902.023	20560
902.141	20343
902.26	20225
902.379	20336
902.498	20305
902.617	20138
902.735	20225
902.854	20199
902.973	20084
903.091	19959
903.21	19906
903.328	19833
903.446	19742
903.565	19750
903.683	19662
903.801	19411
903.919	19681
904.038	19567
904.156	19529
904.274	19635
904.392	19453
904.51	19308
904.627	19346
904.745	19468
904.863	19487
904.981	19213
905.098	19084
905.216	19061
905.334	19244
905.451	19137
905.569	19160
905.686	19145
905.803	19065
905.921	18890
906.038	18993
906.155	18909
906.272	18859
906.389	18852
906.506	18650
906.623	18783
906.74	18566
906.857	18604
906.974	18525
907.091	18654
907.208	18757
907.324	18582
907.441	18570
907.557	18441
907.674	18418
907.79	18342
907.907	18369
908.023	18346
908.139	18369
908.256	18235
908.372	18228
908.488	18190
908.604	18125
908.72	18041
908.836	18022
908.952	18053
909.068	18117
909.184	18129
909.3	18091
909.415	18072
909.531	18007
909.647	17729
909.762	17805
909.878	17752
909.993	17786
910.108	17703
910.224	17722
910.339	17691
910.454	17554
910.57	17604
910.685	17452
910.8	17638
910.915	17756
911.03	17608
911.145	17414
911.259	17356
911.374	17216
911.489	17174
911.604	17181
911.718	17090
911.833	17109
911.947	17083
912.062	16850
912.176	17045
912.291	17075
912.405	17094
912.519	17231
912.633	17200
912.748	16953
912.862	17010
912.976	16862
913.09	16778
913.204	16809
913.318	16812
913.431	16877
913.545	16923
913.659	16942
913.772	16759
913.886	16664
914	16596
914.113	16645
914.226	16801
914.34	16713
914.453	16577
914.566	16664
914.68	16497
914.793	16497
914.906	16253
915.019	16265
915.132	16063
915.245	16204
915.358	16196
915.47	16242
915.583	16166
915.696	16147
915.809	16261
915.921	16249
916.034	16093
916.146	16162
916.259	16154
916.371	16215
916.483	16055
916.595	16059
916.708	15926
916.82	15998
916.932	15972
917.044	15975
917.156	15949
917.268	15835
917.38	15907
917.491	15915
917.603	15960
917.715	15911
917.826	15899
917.938	15728
918.049	15709
918.161	15759
918.272	15926
918.384	15819
918.495	15701
918.606	15599
918.717	15519
918.828	15667
918.939	15572
919.05	15431
919.161	15564
919.272	15370
919.383	15329
919.494	15496
919.604	15705
919.715	15545
919.826	15519
919.936	15644
920.047	15553
920.157	15530
920.267	15637
920.378	15530
920.488	15466
920.598	15625
920.708	15770
920.818	15633
920.928	15614
921.038	15781
921.148	15739
921.258	15511
921.368	15302
921.477	15237
921.587	15260
921.697	15161
921.806	15165
921.916	15051
922.025	14967
922.134	14895
922.244	14785
922.353	14868
922.462	14807
922.571	14674
922.68	14450
922.789	14362
922.898	14457
923.007	14412
923.116	14503
923.224	14541
923.333	14400
923.442	14377
923.55	14328
923.659	14355
923.767	14301
923.876	14180
923.984	14298
924.092	14157
924.201	14191
924.309	14134
924.417	14206
924.525	14161
924.633	14263
924.741	14975
924.849	13921
924.956	14123
925.064	13909
925.172	13769
925.279	13765
925.387	13849
925.494	13925
925.602	13978
925.709	13814
925.816	13890
925.924	13772
926.031	13826
926.138	13807
926.245	13814
926.352	13712
926.459	13791
926.566	13811
926.673	13795
926.779	13544
926.886	13556
926.993	13476
927.099	13282
927.206	13369
927.312	13293
927.419	13419
927.525	13415
927.631	13365
927.737	13270
927.843	13324
927.95	13057
928.056	13202
928.162	13244
928.267	13232
928.373	13776
928.479	13217
928.585	12962
928.69	13107
928.796	13141
928.901	13008
929.007	12840
929.112	12958
929.218	12905
929.323	12943
929.428	12920
929.533	12962
929.638	12738
929.743	12916
929.848	12875
929.953	12802
930.058	12681
930.163	12559
930.267	12589
930.372	12601
930.477	12525
930.581	12757
930.685	12544
930.79	12395
930.894	12483
930.998	12357
931.103	12536
931.207	12133
931.311	12197
931.415	11984
931.519	11786
931.623	11775
