Data from test_V78500241_1308.txt Node
Date: Fri Mar 25 15:50:51 CST 2022
User: usil
Spectrometer: V785-0024
Trigger mode: 0
Integration Time (sec): 4.000000E-1
Scans to average: 1
Nonlinearity correction enabled: false
Boxcar width: 0
Storing dark spectrum: false
XAxis mode: Wavelengths
Number of Pixels in Spectrum: 1024
>>>>>Begin Spectral Data<<<<<
801.071	28664
801.214	28542
801.356	28325
801.499	28299
801.641	28150
801.783	28322
801.926	28192
802.068	28101
802.211	28192
802.353	28181
802.496	27983
802.638	27804
802.78	27846
802.923	27949
803.065	27823
803.208	27918
803.35	27930
803.492	28044
803.635	28124
803.777	28002
803.919	28048
804.061	28428
804.204	28150
804.346	28162
804.488	28025
804.63	28082
804.773	28017
804.915	28067
805.057	28367
805.199	28166
805.341	28101
805.483	28299
805.626	28375
805.768	28154
805.91	28200
806.052	28310
806.194	28204
806.336	28485
806.478	28299
806.62	28268
806.762	28424
806.904	28451
807.046	28782
807.188	28675
807.33	28828
807.472	28858
807.614	28854
807.756	28812
807.898	28523
808.04	28565
808.182	28672
808.324	28531
808.465	28660
808.607	28915
808.749	29006
808.891	29117
809.033	29132
809.174	29037
809.316	29003
809.458	28904
809.6	29041
809.741	29105
809.883	29231
810.025	29474
810.166	29292
810.308	29261
810.45	29277
810.591	29311
810.733	28991
810.875	29041
811.016	28854
811.158	28984
811.299	29136
811.441	29204
811.582	29124
811.724	28927
811.865	28930
812.007	29003
812.148	28927
812.29	28961
812.431	29231
812.573	29417
812.714	29292
812.855	29482
812.997	29695
813.138	29630
813.279	29691
813.421	29524
813.562	29486
813.703	29353
813.845	29242
813.986	29029
814.127	28713
814.268	28653
814.41	28793
814.551	28679
814.692	28649
814.833	28908
814.974	28641
815.115	28645
815.256	28592
815.397	28588
815.539	28637
815.68	28607
815.821	28428
815.962	28485
816.103	28421
816.244	28398
816.385	28405
816.526	28272
816.666	28070
816.807	28059
816.948	28181
817.089	28181
817.23	28017
817.371	27983
817.512	28002
817.653	28059
817.793	27972
817.934	28070
818.075	28044
818.216	27991
818.356	27835
818.497	27854
818.638	27816
818.778	27816
818.919	27732
819.06	27857
819.2	27884
819.341	27941
819.481	28173
819.622	28257
819.762	28459
819.903	28249
820.043	28029
820.184	28162
820.324	28070
820.465	28105
820.605	28112
820.746	28128
820.886	27968
821.026	28226
821.167	28048
821.307	28207
821.447	28021
821.588	27987
821.728	27865
821.868	27800
822.008	27504
822.149	27519
822.289	27488
822.429	27310
822.569	27116
822.709	27135
822.849	27199
822.99	26975
823.13	26940
823.27	27005
823.41	26750
823.55	26800
823.69	26952
823.83	26853
823.97	26834
824.11	26575
824.25	26617
824.389	26655
824.529	26701
824.669	26739
824.809	26826
824.949	26826
825.089	26785
825.228	26769
825.368	26526
825.508	26518
825.648	26731
825.787	26518
825.927	26632
826.067	26556
826.206	26530
826.346	26655
826.485	26533
826.625	26552
826.765	26556
826.904	26746
827.044	26336
827.183	26332
827.323	26278
827.462	26355
827.601	26355
827.741	26221
827.88	26252
828.02	26187
828.159	26149
828.298	26294
828.437	26339
828.577	26286
828.716	26366
828.855	26138
828.994	25944
829.134	25944
829.273	25860
829.412	26035
829.551	25826
829.69	25966
829.829	26001
829.968	25955
830.107	25963
830.246	25944
830.385	25955
830.524	25814
830.663	25765
830.802	25658
830.941	25582
831.08	25647
831.219	25658
831.357	25712
831.496	25845
831.635	25594
831.774	25533
831.913	25464
832.051	25320
832.19	25419
832.329	25388
832.467	25179
832.606	25247
832.744	25202
832.883	25251
833.022	25160
833.16	25198
833.299	25244
833.437	25225
833.576	25141
833.714	25251
833.852	25324
833.991	25304
834.129	25415
834.267	25335
834.406	25308
834.544	25331
834.682	25346
834.821	25312
834.959	25537
835.097	25187
835.235	25270
835.373	25240
835.511	25270
835.65	25244
835.788	25187
835.926	24909
836.064	24920
836.202	24977
836.34	25206
836.478	25335
836.615	25046
836.753	25194
836.891	25152
837.029	25183
837.167	25103
837.305	24928
837.443	24890
837.58	24905
837.718	25053
837.856	24863
837.993	24913
838.131	24897
838.269	24821
838.406	24837
838.544	24696
838.681	24601
838.819	24585
838.956	24369
839.094	24418
839.231	24475
839.369	24528
839.506	24878
839.643	24623
839.781	24330
839.918	24308
840.055	24483
840.193	24369
840.33	24330
840.467	24346
840.604	24399
840.742	24654
840.879	24228
841.016	24308
841.153	24319
841.29	24391
841.427	24384
841.564	24395
841.701	24201
841.838	24342
841.975	24251
842.112	24163
842.249	24194
842.385	24148
842.522	24330
842.659	24018
842.796	24140
842.933	24034
843.069	23984
843.206	24041
843.343	24091
843.479	24018
843.616	24030
843.752	23897
843.889	23805
844.025	23961
844.162	23908
844.298	23840
844.435	23927
844.571	23809
844.708	23836
844.844	24003
844.98	23931
845.117	24022
845.253	23794
845.389	23756
845.525	23726
845.661	23783
845.798	23551
845.934	23551
846.07	23471
846.206	23611
846.342	23760
846.478	23459
846.614	23429
846.75	23299
846.886	23277
847.022	23406
847.158	23410
847.294	23250
847.429	23303
847.565	23231
847.701	23444
847.837	23155
847.972	22900
848.108	23216
848.244	23220
848.379	22828
848.515	22797
848.65	22820
848.786	22877
848.921	22908
849.057	22984
849.192	22980
849.328	22927
849.463	22839
849.598	22869
849.734	22831
849.869	22748
850.004	22531
850.14	22740
850.275	22694
850.41	22538
850.545	22462
850.68	22679
850.815	22664
850.95	22596
851.085	22736
851.22	22847
851.355	22653
851.49	22721
851.625	22538
851.76	22523
851.895	22485
852.03	22645
852.165	22653
852.299	22733
852.434	22649
852.569	22622
852.703	22607
852.838	22767
852.973	22679
853.107	22816
853.242	22721
853.376	22466
853.511	22352
853.645	22284
853.78	22645
853.914	22519
854.048	22470
854.183	22481
854.317	22523
854.451	22596
854.585	22664
854.72	22489
854.854	22615
854.988	22398
855.122	22455
855.256	22371
855.39	22379
855.524	22478
855.658	22481
855.792	22413
855.926	22470
856.06	22451
856.194	22523
856.327	22424
856.461	22386
856.595	22421
856.729	22455
856.862	22656
856.996	22493
857.13	22481
857.263	22417
857.397	22527
857.53	22379
857.664	22409
857.797	22455
857.931	22592
858.064	22478
858.197	22603
858.331	22481
858.464	22363
858.597	22314
858.731	22303
858.864	22405
858.997	22413
859.13	22413
859.263	22504
859.396	22428
859.529	22337
859.662	22390
859.795	22421
859.928	22447
860.061	22653
860.194	22664
860.327	22550
860.46	22447
860.592	22596
860.725	22550
860.858	22500
860.99	22360
861.123	22432
861.256	22360
861.388	22519
861.521	23132
861.653	22428
861.786	22219
861.918	22284
862.05	22386
862.183	22325
862.315	22436
862.447	22375
862.58	22337
862.712	22093
862.844	22246
862.976	22238
863.108	22253
863.24	22615
863.372	22105
863.504	22143
863.636	22093
863.768	22128
863.9	22211
864.032	22112
864.164	22124
864.296	22162
864.428	22276
864.559	22211
864.691	22166
864.823	22116
864.954	22131
865.086	22139
865.217	21998
865.349	21994
865.48	22074
865.612	22093
865.743	22158
865.875	22211
866.006	22006
866.137	22059
866.269	22101
866.4	22036
866.531	22013
866.662	22036
866.793	21857
866.924	21899
867.055	21987
867.186	21918
867.317	21915
867.448	21747
867.579	21934
867.71	21930
867.841	21941
867.972	21884
868.103	21979
868.233	21964
868.364	21972
868.495	22078
868.625	22139
868.756	22234
868.886	22177
869.017	22150
869.147	22215
869.278	22382
869.408	22131
869.539	22192
869.669	22303
869.799	22215
869.929	22405
870.06	22253
870.19	22561
870.32	22489
870.45	22386
870.58	22478
870.71	22675
870.84	22649
870.97	22634
871.1	22550
871.23	22797
871.36	22858
871.489	22649
871.619	22763
871.749	22691
871.879	22721
872.008	22968
872.138	22915
872.267	22790
872.397	22607
872.526	22710
872.656	22577
872.785	22645
872.915	22702
873.044	22866
873.173	22729
873.303	22828
873.432	22873
873.561	22892
873.69	22744
873.819	22809
873.948	22949
874.077	22942
874.206	22729
874.335	22900
874.464	22892
874.593	23079
874.722	23033
874.851	22980
874.979	22999
875.108	23105
875.237	23014
875.365	22828
875.494	22957
875.623	23094
875.751	23029
875.88	22968
876.008	23223
876.136	23273
876.265	23376
876.393	23455
876.521	23520
876.65	23551
876.778	23520
876.906	23345
877.034	23307
877.162	23311
877.29	23364
877.418	23353
877.546	23356
877.674	23220
877.802	23288
877.93	23345
878.058	23303
878.185	23250
878.313	23159
878.441	23410
878.568	23216
878.696	23235
878.824	23436
878.951	23406
879.079	23528
879.206	23577
879.333	23471
879.461	23467
879.588	23444
879.715	23581
879.842	23596
879.97	23406
880.097	23254
880.224	23151
880.351	23299
880.478	23155
880.605	23113
880.732	23200
880.859	23326
880.986	23231
881.112	23235
881.239	23067
881.366	22953
881.493	22927
881.619	22892
881.746	22831
881.872	22675
881.999	22687
882.125	22645
882.252	22744
882.378	22603
882.505	22649
882.631	22538
882.757	22421
882.883	22523
883.01	22455
883.136	22390
883.262	22299
883.388	22215
883.514	22455
883.64	22344
883.766	22356
883.892	22139
884.018	22169
884.143	22394
884.269	22379
884.395	22139
884.52	21987
884.646	22082
884.772	22055
884.897	21892
885.023	22150
885.148	22135
885.274	22223
885.399	22204
885.524	21949
885.65	22086
885.775	22055
885.9	22013
886.025	22169
886.15	22124
886.275	21945
886.4	21922
886.525	21918
886.65	22002
886.775	21987
886.9	22112
887.025	22287
887.149	22006
887.274	21797
887.399	21766
887.523	21842
887.648	21736
887.773	21793
887.897	21899
888.021	21953
888.146	21823
888.27	21888
888.395	22021
888.519	21937
888.643	21907
888.767	21892
888.891	21747
889.015	21618
889.139	21564
889.263	21595
889.387	21675
889.511	21778
889.635	21724
889.759	21644
889.883	21568
890.006	21606
890.13	21644
890.254	21568
890.377	21603
890.501	21294
890.624	21291
890.748	21321
890.871	21173
890.995	21135
891.118	21116
891.241	21195
891.364	21116
891.488	21382
891.611	21241
891.734	21226
891.857	21249
891.98	21055
892.103	21176
892.226	21123
892.349	21256
892.471	20914
892.594	21096
892.717	20998
892.839	21142
892.962	21108
893.085	21154
893.207	20990
893.33	21032
893.452	21036
893.575	21119
893.697	21024
893.819	21279
893.941	21199
894.064	21157
894.186	20990
894.308	20979
894.43	21135
894.552	21313
894.674	21188
894.796	20902
894.918	21020
895.04	20960
895.161	21127
895.283	20906
895.405	20960
895.526	21020
895.648	20956
895.769	21017
895.891	21119
896.012	21154
896.134	21157
896.255	21058
896.376	21001
896.498	21009
896.619	21036
896.74	20921
896.861	21039
896.982	21431
897.103	21530
897.224	21275
897.345	21310
897.466	21138
897.587	21218
897.708	21408
897.828	21275
897.949	21291
898.07	21146
898.19	21188
898.311	21222
898.431	21169
898.552	21218
898.672	21264
898.792	21184
898.913	21237
899.033	21108
899.153	21043
899.273	20887
899.393	21013
899.513	21077
899.633	20994
899.753	21062
899.873	20804
899.993	20948
900.113	20971
900.232	20929
900.352	20830
900.472	20792
900.591	20735
900.711	20720
900.83	20613
900.95	20788
901.069	20868
901.189	20636
901.308	20275
901.427	20195
901.546	20278
901.665	20324
901.784	20317
901.904	20100
902.023	20081
902.141	19879
902.26	19784
902.379	19970
902.498	19830
902.617	19788
902.735	19849
902.854	19723
902.973	19738
903.091	19487
903.21	19567
903.328	19430
903.446	19396
903.565	19263
903.683	19236
903.801	19118
903.919	19129
904.038	19145
904.156	18916
904.274	19088
904.392	18924
904.51	18928
904.627	19050
904.745	19076
904.863	19103
904.981	18878
905.098	18692
905.216	18669
905.334	18696
905.451	18658
905.569	18661
905.686	18681
905.803	18669
905.921	18494
906.038	18525
906.155	18460
906.272	18220
906.389	18441
906.506	18194
906.623	18247
906.74	18300
906.857	17996
906.974	18152
907.091	18277
907.208	18308
907.324	18174
907.441	18083
907.557	17935
907.674	17935
907.79	17866
907.907	17828
908.023	17874
908.139	17878
908.256	17851
908.372	17885
908.488	17707
908.604	17627
908.72	17638
908.836	17592
908.952	17532
909.068	17687
909.184	17623
909.3	17589
909.415	17779
909.531	17642
909.647	17520
909.762	17280
909.878	17326
909.993	17364
910.108	17269
910.224	17284
910.339	17296
910.454	17250
910.57	17124
910.685	17102
910.8	17265
910.915	17353
911.03	16961
911.145	16972
911.259	16938
911.374	16938
911.489	16869
911.604	16763
911.718	16634
911.833	16763
911.947	16573
912.062	16550
912.176	16630
912.291	16531
912.405	16736
912.519	16839
912.633	16847
912.748	16649
912.862	16672
912.976	16519
913.09	16402
913.204	16432
913.318	16466
913.431	16508
913.545	16519
913.659	16500
913.772	16310
913.886	16257
914	16322
914.113	16325
914.226	16390
914.34	16261
914.453	16109
914.566	16242
914.68	16105
914.793	16036
914.906	15907
915.019	15835
915.132	15736
915.245	15854
915.358	15835
915.47	15816
915.583	15831
915.696	15857
915.809	15892
915.921	15991
916.034	15690
916.146	15804
916.259	15656
916.371	15739
916.483	15846
916.595	15694
916.708	15584
916.82	15663
916.932	15526
917.044	15618
917.156	15591
917.268	15397
917.38	15488
917.491	15393
917.603	15549
917.715	15599
917.826	15519
917.938	15370
918.049	15222
918.161	15458
918.272	15580
918.384	15526
918.495	15401
918.606	15237
918.717	15108
918.828	15214
918.939	15184
919.05	15154
919.161	15051
919.272	14971
919.383	15062
919.494	15192
919.604	15424
919.715	15165
919.826	15043
919.936	15230
920.047	15199
920.157	15077
920.267	15302
920.378	15169
920.488	15074
920.598	15252
920.708	15450
920.818	15275
920.928	15264
921.038	15519
921.148	15473
921.258	15028
921.368	15062
921.477	14857
921.587	14914
921.697	14807
921.806	14834
921.916	14678
922.025	14663
922.134	14495
922.244	14396
922.353	14590
922.462	14324
922.571	14317
922.68	14229
922.789	14168
922.898	14153
923.007	14142
923.116	14092
923.224	14142
923.333	14096
923.442	13989
923.55	13986
923.659	14081
923.767	13989
923.876	13963
923.984	13951
924.092	13822
924.201	13890
924.309	13944
924.417	13845
924.525	13837
924.633	13887
924.741	14762
924.849	13609
924.956	13723
925.064	13685
925.172	13571
925.279	13658
925.387	13655
925.494	13491
925.602	13567
925.709	13620
925.816	13407
925.924	13468
926.031	13518
926.138	13441
926.245	13468
926.352	13460
926.459	13544
926.566	13518
926.673	13335
926.779	13289
926.886	13244
926.993	13129
927.099	13103
927.206	13019
927.312	12985
927.419	13187
927.525	13023
927.631	13118
927.737	13088
927.843	12894
927.95	12863
928.056	12863
928.162	12954
928.267	12932
928.373	13339
928.479	12916
928.585	12681
928.69	12806
928.796	12837
928.901	12730
929.007	12623
929.112	12760
929.218	12684
929.323	12703
929.428	12532
929.533	12722
929.638	12506
929.743	12563
929.848	12616
929.953	12570
930.058	12334
930.163	12277
930.267	12220
930.372	12357
930.477	12266
930.581	12475
930.685	12262
930.79	12175
930.894	12140
930.998	12110
931.103	12194
931.207	11885
931.311	11748
931.415	11703
931.519	11532
931.623	11543
