Data from test_V78500241_217.txt Node
Date: Fri Mar 25 15:43:18 CST 2022
User: usil
Spectrometer: V785-0024
Trigger mode: 0
Integration Time (sec): 4.000000E-1
Scans to average: 1
Nonlinearity correction enabled: false
Boxcar width: 0
Storing dark spectrum: false
XAxis mode: Wavelengths
Number of Pixels in Spectrum: 1024
>>>>>Begin Spectral Data<<<<<
801.071	28949
801.214	29010
801.356	28687
801.499	28771
801.641	28664
801.783	28565
801.926	28611
802.068	28523
802.211	28607
802.353	28367
802.496	28306
802.638	28192
802.78	28162
802.923	28150
803.065	28086
803.208	28150
803.35	28128
803.492	28215
803.635	28367
803.777	28249
803.919	28356
804.061	28615
804.204	28447
804.346	28207
804.488	28112
804.63	28059
804.773	28173
804.915	28280
805.057	28329
805.199	28265
805.341	28303
805.483	28455
805.626	28265
805.768	28287
805.91	28344
806.052	28382
806.194	28409
806.336	28603
806.478	28413
806.62	28310
806.762	28675
806.904	28660
807.046	28816
807.188	28881
807.33	28915
807.472	28839
807.614	28687
807.756	28607
807.898	28656
808.04	28573
808.182	28630
808.324	28630
808.465	28611
808.607	28702
808.749	28831
808.891	29022
809.033	29025
809.174	29018
809.316	28877
809.458	28930
809.6	28835
809.741	28968
809.883	28999
810.025	29060
810.166	29181
810.308	29265
810.45	29147
810.591	29048
810.733	29052
810.875	28927
811.016	28892
811.158	28778
811.299	29022
811.441	29159
811.582	29010
811.724	28866
811.865	28801
812.007	28972
812.148	28908
812.29	28888
812.431	28877
812.573	29178
812.714	29121
812.855	29315
812.997	29417
813.138	29657
813.279	29604
813.421	29387
813.562	29322
813.703	29147
813.845	29041
813.986	28733
814.127	28634
814.268	28489
814.41	28611
814.551	28432
814.692	28557
814.833	28382
814.974	28348
815.115	28474
815.256	28257
815.397	28356
815.539	28303
815.68	28181
815.821	28188
815.962	28299
816.103	28257
816.244	28188
816.385	27956
816.526	27934
816.666	27804
816.807	27622
816.948	27644
817.089	27743
817.23	27660
817.371	27675
817.512	27622
817.653	27671
817.793	27568
817.934	27583
818.075	27644
818.216	27732
818.356	27545
818.497	27526
818.638	27329
818.778	27241
818.919	27218
819.06	27412
819.2	27595
819.341	27614
819.481	27405
819.622	27679
819.762	27880
819.903	27846
820.043	27774
820.184	27728
820.324	27690
820.465	27690
820.605	27572
820.746	27618
820.886	27534
821.026	27652
821.167	27538
821.307	27648
821.447	27519
821.588	27378
821.728	27264
821.868	27188
822.008	27081
822.149	26952
822.289	26876
822.429	26632
822.569	26785
822.709	26587
822.849	26579
822.99	26351
823.13	26377
823.27	26381
823.41	26320
823.55	26218
823.69	26168
823.83	26400
823.97	26115
824.11	26012
824.25	26050
824.389	26001
824.529	26138
824.669	26100
824.809	26191
824.949	26081
825.089	25982
825.228	26187
825.368	25887
825.508	25951
825.648	25845
825.787	25917
825.927	25925
826.067	25864
826.206	25902
826.346	25883
826.485	25917
826.625	25837
826.765	26039
826.904	25822
827.044	25780
827.183	25712
827.323	25548
827.462	25571
827.601	25514
827.741	25453
827.88	25502
828.02	25422
828.159	25502
828.298	25453
828.437	25514
828.577	25411
828.716	25594
828.855	25426
828.994	25308
829.134	25194
829.273	25304
829.412	25103
829.551	25190
829.69	25285
829.829	25369
829.968	25217
830.107	25297
830.246	25202
830.385	25156
830.524	25152
830.663	25061
830.802	24871
830.941	24734
831.08	24707
831.219	24966
831.357	24859
831.496	24954
831.635	24806
831.774	24681
831.913	24578
832.051	24513
832.19	24532
832.329	24593
832.467	24513
832.606	24376
832.744	24346
832.883	24445
833.022	24346
833.16	24380
833.299	24532
833.437	24525
833.576	24513
833.714	24445
833.852	24369
833.991	24475
834.129	24509
834.267	24521
834.406	24353
834.544	24403
834.682	24483
834.821	24361
834.959	24475
835.097	24334
835.235	24342
835.373	24437
835.511	24414
835.65	24388
835.788	24213
835.926	24140
836.064	24106
836.202	24045
836.34	24323
836.478	24376
836.615	24289
836.753	24194
836.891	24338
837.029	24285
837.167	24136
837.305	24163
837.443	24182
837.58	24148
837.718	24167
837.856	24178
837.993	24083
838.131	24159
838.269	24038
838.406	23958
838.544	23999
838.681	23718
838.819	23756
838.956	23505
839.094	23596
839.231	23649
839.369	23756
839.506	24083
839.643	23790
839.781	23356
839.918	23463
840.055	23478
840.193	23512
840.33	23406
840.467	23436
840.604	23433
840.742	23691
840.879	23337
841.016	23391
841.153	23341
841.29	23478
841.427	23353
841.564	23482
841.701	23330
841.838	23277
841.975	23242
842.112	23288
842.249	23376
842.385	23166
842.522	23254
842.659	23067
842.796	23121
842.933	23102
843.069	23113
843.206	23022
843.343	23181
843.479	22942
843.616	23151
843.752	22873
843.889	22930
844.025	22889
844.162	22763
844.298	22915
844.435	22778
844.571	22710
844.708	22953
844.844	23014
844.98	22980
845.117	22885
845.253	22664
845.389	22736
845.525	22698
845.661	22672
845.798	22573
845.934	22546
846.07	22462
846.206	22596
846.342	22694
846.478	22451
846.614	22382
846.75	22295
846.886	22295
847.022	22261
847.158	22436
847.294	22295
847.429	22344
847.565	22192
847.701	22535
847.837	22006
847.972	21960
848.108	22093
848.244	22063
848.379	21918
848.515	21835
848.65	21781
848.786	21865
848.921	21899
849.057	21968
849.192	21857
849.328	21975
849.463	21865
849.598	21869
849.734	21705
849.869	21713
850.004	21606
850.14	21599
850.275	21523
850.41	21447
850.545	21405
850.68	21572
850.815	21572
850.95	21504
851.085	21701
851.22	21606
851.355	21644
851.49	21469
851.625	21530
851.76	21511
851.895	21332
852.03	21351
852.165	21401
852.299	21603
852.434	21606
852.569	21542
852.703	21545
852.838	21557
852.973	21660
853.107	21610
853.242	21523
853.376	21420
853.511	21218
853.645	21389
853.78	21477
853.914	21450
854.048	21401
854.183	21249
854.317	21302
854.451	21519
854.585	21256
854.72	21393
854.854	21389
854.988	21252
855.122	21325
855.256	21180
855.39	21317
855.524	21424
855.658	21420
855.792	21260
855.926	21351
856.06	21268
856.194	21389
856.327	21367
856.461	21351
856.595	21256
856.729	21389
856.862	21469
856.996	21313
857.13	21408
857.263	21462
857.397	21443
857.53	21397
857.664	21313
857.797	21477
857.931	21485
858.064	21272
858.197	21447
858.331	21264
858.464	21332
858.597	21165
858.731	21355
858.864	21211
858.997	21275
859.13	21283
859.263	21325
859.396	21363
859.529	21230
859.662	21245
859.795	21192
859.928	21302
860.061	21435
860.194	21447
860.327	21374
860.46	21298
860.592	21428
860.725	21408
860.858	21397
860.99	21294
861.123	21188
861.256	21252
861.388	21306
861.521	21937
861.653	21218
861.786	21123
861.918	21279
862.05	21176
862.183	21348
862.315	21211
862.447	21306
862.58	21188
862.712	21055
862.844	20937
862.976	21127
863.108	21032
863.24	21302
863.372	21017
863.504	21066
863.636	20979
863.768	20975
863.9	20876
864.032	20929
864.164	20941
864.296	20910
864.428	21104
864.559	20929
864.691	20883
864.823	20864
864.954	20948
865.086	20861
865.217	20724
865.349	20853
865.48	20883
865.612	20887
865.743	21062
865.875	20849
866.006	20849
866.137	20853
866.269	20819
866.4	20762
866.531	20724
866.662	20785
866.793	20697
866.924	20849
867.055	20807
867.186	20750
867.317	20720
867.448	20678
867.579	20849
867.71	20682
867.841	20796
867.972	20743
868.103	20788
868.233	20872
868.364	20906
868.495	20971
868.625	21047
868.756	21112
868.886	20910
869.017	20921
869.147	21100
869.278	21074
869.408	21066
869.539	21001
869.669	21112
869.799	21100
869.929	21165
870.06	21070
870.19	21428
870.32	21332
870.45	21386
870.58	21492
870.71	21610
870.84	21583
870.97	21397
871.1	21473
871.23	21641
871.36	21614
871.489	21485
871.619	21568
871.749	21572
871.879	21610
872.008	21713
872.138	21553
872.267	21576
872.397	21526
872.526	21393
872.656	21420
872.785	21469
872.915	21641
873.044	21743
873.173	21671
873.303	21660
873.432	21762
873.561	21686
873.69	21804
873.819	21587
873.948	21732
874.077	21625
874.206	21656
874.335	21580
874.464	21637
874.593	21876
874.722	21717
874.851	21873
874.979	21934
875.108	22063
875.237	21835
875.365	21724
875.494	21838
875.623	21823
875.751	21823
875.88	21956
876.008	22051
876.136	22101
876.265	22169
876.393	22394
876.521	22219
876.65	22333
876.778	22402
876.906	22196
877.034	22333
877.162	22246
877.29	22135
877.418	22150
877.546	22371
877.674	22181
877.802	22341
877.93	22234
878.058	22192
878.185	22101
878.313	22211
878.441	22238
878.568	22162
878.696	22105
878.824	22265
878.951	22352
879.079	22409
879.206	22478
879.333	22303
879.461	22207
879.588	22352
879.715	22306
879.842	22455
879.97	22272
880.097	22059
880.224	21975
880.351	22162
880.478	22082
880.605	21945
880.732	21964
880.859	22257
880.986	22059
881.112	21998
881.239	21911
881.366	21797
881.493	21762
881.619	21629
881.746	21717
881.872	21671
881.999	21583
882.125	21572
882.252	21682
882.378	21534
882.505	21759
882.631	21492
882.757	21264
882.883	21496
883.01	21431
883.136	21420
883.262	21313
883.388	21245
883.514	21420
883.64	21367
883.766	21272
883.892	21077
884.018	21192
884.143	21374
884.269	21351
884.395	21123
884.52	21036
884.646	20960
884.772	20979
884.897	20899
885.023	21039
885.148	21081
885.274	21039
885.399	21047
885.524	20967
885.65	20982
885.775	21036
885.9	21032
886.025	21024
886.15	21020
886.275	20857
886.4	20796
886.525	20929
886.65	20845
886.775	20990
886.9	21005
887.025	21157
887.149	21039
887.274	20929
887.399	20659
887.523	20613
887.648	20716
887.773	20644
887.897	20735
888.021	20838
888.146	20667
888.27	20739
888.395	20902
888.519	20773
888.643	20693
888.767	20796
888.891	20541
889.015	20545
889.139	20602
889.263	20503
889.387	20579
889.511	20739
889.635	20629
889.759	20454
889.883	20438
890.006	20530
890.13	20530
890.254	20370
890.377	20461
890.501	20362
890.624	20282
890.748	20278
890.871	20126
890.995	20046
891.118	20081
891.241	20058
891.364	20142
891.488	20259
891.611	20035
891.734	20024
891.857	20244
891.98	20275
892.103	20092
892.226	20073
892.349	20039
892.471	19856
892.594	19898
892.717	20142
892.839	20046
892.962	19993
893.085	20069
893.207	19887
893.33	19837
893.452	19818
893.575	20043
893.697	19814
893.819	20172
893.941	20290
894.064	20107
894.186	19993
894.308	19974
894.43	20027
894.552	20111
894.674	20088
894.796	19860
894.918	20054
895.04	19963
895.161	20043
895.283	20020
895.405	19921
895.526	19864
895.648	20001
895.769	20043
895.891	20054
896.012	20081
896.134	20069
896.255	20088
896.376	20035
896.498	20005
896.619	20103
896.74	20183
896.861	20058
896.982	20415
897.103	20511
897.224	20343
897.345	20370
897.466	20313
897.587	20263
897.708	20370
897.828	20191
897.949	20183
898.07	20069
898.19	20119
898.311	20286
898.431	20084
898.552	20221
898.672	20256
898.792	20267
898.913	20229
899.033	20149
899.153	19944
899.273	19993
899.393	19894
899.513	19925
899.633	19807
899.753	19860
899.873	19826
899.993	19989
900.113	19902
900.232	19986
900.352	19852
900.472	19689
900.591	19704
900.711	19826
900.83	19666
900.95	19925
901.069	19830
901.189	19620
901.308	19381
901.427	19190
901.546	19384
901.665	19392
901.784	19312
901.904	19168
902.023	19114
902.141	18882
902.26	18859
902.379	18890
902.498	18760
902.617	18806
902.735	18829
902.854	18787
902.973	18719
903.091	18589
903.21	18422
903.328	18494
903.446	18384
903.565	18292
903.683	18380
903.801	18152
903.919	18224
904.038	18194
904.156	18072
904.274	18030
904.392	17977
904.51	18034
904.627	17965
904.745	18068
904.863	18152
904.981	17836
905.098	17657
905.216	17684
905.334	17695
905.451	17661
905.569	17703
905.686	17756
905.803	17684
905.921	17452
906.038	17573
906.155	17497
906.272	17512
906.389	17440
906.506	17379
906.623	17337
906.74	17277
906.857	17250
906.974	17143
907.091	17364
907.208	17277
907.324	17303
907.441	17174
907.557	17003
907.674	16991
907.79	16972
907.907	16828
908.023	16976
908.139	16999
908.256	16873
908.372	16915
908.488	16805
908.604	16717
908.72	16592
908.836	16626
908.952	16592
909.068	16637
909.184	16736
909.3	16615
909.415	16615
909.531	16630
909.647	16409
909.762	16382
909.878	16314
909.993	16413
910.108	16303
910.224	16253
910.339	16295
910.454	16249
910.57	16169
910.685	15998
910.8	16341
910.915	16226
911.03	16093
911.145	15949
911.259	15922
911.374	15991
911.489	15869
911.604	15823
911.718	15576
911.833	15667
911.947	15663
912.062	15610
912.176	15671
912.291	15709
912.405	15625
912.519	15873
912.633	15880
912.748	15717
912.862	15606
912.976	15348
913.09	15382
913.204	15321
913.318	15481
913.431	15553
913.545	15553
913.659	15595
913.772	15507
913.886	15256
914	15363
914.113	15359
914.226	15344
914.34	15367
914.453	15150
914.566	15283
914.68	15150
914.793	15043
914.906	15043
915.019	14899
915.132	14807
915.245	14781
915.358	14887
915.47	15062
915.583	14891
915.696	15001
915.809	14963
915.921	15051
916.034	14838
916.146	14834
916.259	14678
916.371	14842
916.483	14743
916.595	14796
916.708	14682
916.82	14674
916.932	14720
917.044	14583
917.156	14674
917.268	14545
917.38	14598
917.491	14568
917.603	14670
917.715	14598
917.826	14598
917.938	14537
918.049	14381
918.161	14450
918.272	14602
918.384	14568
918.495	14503
918.606	14343
918.717	14214
918.828	14381
918.939	14339
919.05	14248
919.161	14244
919.272	14058
919.383	14218
919.494	14324
919.604	14473
919.715	14263
919.826	14073
919.936	14237
920.047	14320
920.157	14259
920.267	14469
920.378	14252
920.488	14123
920.598	14396
920.708	14564
920.818	14393
920.928	14404
921.038	14594
921.148	14473
921.258	14206
921.368	14123
921.477	13936
921.587	13978
921.697	13769
921.806	13989
921.916	13849
922.025	13765
922.134	13601
922.244	13586
922.353	13731
922.462	13643
922.571	13441
922.68	13240
922.789	13183
922.898	13346
923.007	13228
923.116	13244
923.224	13217
923.333	13228
923.442	13118
923.55	13084
923.659	13122
923.767	13129
923.876	12958
923.984	13084
924.092	12943
924.201	13038
924.309	13046
924.417	12996
924.525	12882
924.633	12947
924.741	13689
924.849	12783
924.956	12833
925.064	12646
925.172	12601
925.279	12688
925.387	12738
925.494	12597
925.602	12791
925.709	12760
925.816	12597
925.924	12589
926.031	12795
926.138	12669
926.245	12688
926.352	12540
926.459	12677
926.566	12757
926.673	12578
926.779	12460
926.886	12513
926.993	12346
927.099	12220
927.206	12228
927.312	12232
927.419	12323
927.525	12205
927.631	12232
927.737	12140
927.843	12045
927.95	11920
928.056	12060
928.162	12163
928.267	12133
928.373	12772
928.479	12117
928.585	11908
928.69	12091
928.796	12034
928.901	12045
929.007	11764
929.112	11958
929.218	11870
929.323	11931
929.428	11843
929.533	11984
929.638	11737
929.743	11733
929.848	11805
929.953	11809
930.058	11718
930.163	11455
930.267	11562
930.372	11577
930.477	11452
930.581	11665
930.685	11554
930.79	11376
930.894	11467
930.998	11379
931.103	11467
931.207	11128
931.311	11067
931.415	10900
931.519	10714
931.623	10755
