Data from test_V78500241_3582.txt Node
Date: Fri Mar 25 16:06:36 CST 2022
User: usil
Spectrometer: V785-0024
Trigger mode: 0
Integration Time (sec): 4.000000E-1
Scans to average: 1
Nonlinearity correction enabled: false
Boxcar width: 0
Storing dark spectrum: false
XAxis mode: Wavelengths
Number of Pixels in Spectrum: 1024
>>>>>Begin Spectral Data<<<<<
801.071	28748
801.214	28725
801.356	28512
801.499	28580
801.641	28363
801.783	28424
801.926	28470
802.068	28360
802.211	28367
802.353	28303
802.496	28029
802.638	27956
802.78	28131
802.923	28044
803.065	27911
803.208	28086
803.35	28109
803.492	28166
803.635	28249
803.777	28204
803.919	28310
804.061	28630
804.204	28390
804.346	28230
804.488	28200
804.63	28451
804.773	28268
804.915	28329
805.057	28413
805.199	28398
805.341	28504
805.483	28421
805.626	28508
805.768	28405
805.91	28580
806.052	28432
806.194	28333
806.336	28607
806.478	28565
806.62	28611
806.762	28683
806.904	28729
807.046	29132
807.188	28877
807.33	28984
807.472	29064
807.614	28911
807.756	28877
807.898	28729
808.04	28755
808.182	28740
808.324	28786
808.465	28755
808.607	29102
808.749	29231
808.891	29193
809.033	29395
809.174	29181
809.316	29052
809.458	29189
809.6	29060
809.741	29117
809.883	29296
810.025	29318
810.166	29471
810.308	29372
810.45	29440
810.591	29383
810.733	29231
810.875	29159
811.016	29052
811.158	29094
811.299	29341
811.441	29425
811.582	29398
811.724	29121
811.865	29227
812.007	29208
812.148	29292
812.29	29334
812.431	29402
812.573	29551
812.714	29699
812.855	29851
812.997	29836
813.138	29939
813.279	29767
813.421	29703
813.562	29756
813.703	29520
813.845	29493
813.986	29277
814.127	29109
814.268	28809
814.41	28946
814.551	28999
814.692	29056
814.833	28934
814.974	28858
815.115	28904
815.256	28759
815.397	28771
815.539	28828
815.68	28675
815.821	28812
815.962	28801
816.103	28694
816.244	28618
816.385	28478
816.526	28573
816.666	28497
816.807	28265
816.948	28455
817.089	28348
817.23	28078
817.371	28246
817.512	28169
817.653	28329
817.793	28204
817.934	28226
818.075	28284
818.216	28322
818.356	28207
818.497	28185
818.638	28070
818.778	27983
818.919	27941
819.06	27979
819.2	28131
819.341	28348
819.481	28219
819.622	28398
819.762	28615
819.903	28554
820.043	28382
820.184	28310
820.324	28322
820.465	28481
820.605	28337
820.746	28314
820.886	28162
821.026	28462
821.167	28352
821.307	28280
821.447	28284
821.588	28242
821.728	28044
821.868	27979
822.008	27732
822.149	27800
822.289	27610
822.429	27485
822.569	27256
822.709	27443
822.849	27218
822.99	27131
823.13	27287
823.27	27093
823.41	27093
823.55	26899
823.69	27066
823.83	27051
823.97	27070
824.11	26887
824.25	26845
824.389	26815
824.529	26716
824.669	26895
824.809	26944
824.949	26918
825.089	26975
825.228	26952
825.368	26819
825.508	26758
825.648	26731
825.787	26838
825.927	26895
826.067	26762
826.206	26769
826.346	26826
826.485	26899
826.625	26800
826.765	26834
826.904	26754
827.044	26389
827.183	26549
827.323	26602
827.462	26644
827.601	26571
827.741	26396
827.88	26667
828.02	26301
828.159	26499
828.298	26347
828.437	26427
828.577	26419
828.716	26461
828.855	26374
828.994	26210
829.134	26210
829.273	26206
829.412	26191
829.551	26111
829.69	26081
829.829	26320
829.968	26191
830.107	26180
830.246	26176
830.385	26210
830.524	26138
830.663	25986
830.802	25871
830.941	25738
831.08	25681
831.219	25868
831.357	25822
831.496	26077
831.635	25639
831.774	25559
831.913	25696
832.051	25491
832.19	25575
832.329	25658
832.467	25479
832.606	25289
832.744	25343
832.883	25407
833.022	25502
833.16	25499
833.299	25460
833.437	25426
833.576	25590
833.714	25506
833.852	25533
833.991	25449
834.129	25514
834.267	25666
834.406	25457
834.544	25407
834.682	25411
834.821	25339
834.959	25643
835.097	25297
835.235	25620
835.373	25533
835.511	25400
835.65	25411
835.788	25225
835.926	25312
836.064	24992
836.202	25129
836.34	25434
836.478	25495
836.615	25320
836.753	25244
836.891	25403
837.029	25396
837.167	25213
837.305	25145
837.443	25076
837.58	25099
837.718	25240
837.856	25179
837.993	25133
838.131	25152
838.269	24951
838.406	24894
838.544	25019
838.681	24871
838.819	24783
838.956	24528
839.094	24593
839.231	24684
839.369	24840
839.506	24920
839.643	24696
839.781	24623
839.918	24460
840.055	24627
840.193	24620
840.33	24547
840.467	24566
840.604	24532
840.742	24833
840.879	24273
841.016	24528
841.153	24433
841.29	24631
841.427	24456
841.564	24486
841.701	24422
841.838	24494
841.975	24319
842.112	24376
842.249	24445
842.385	24315
842.522	24589
842.659	24308
842.796	24281
842.933	24311
843.069	24194
843.206	24243
843.343	24311
843.479	24285
843.616	24270
843.752	24049
843.889	24064
844.025	24148
844.162	23965
844.298	24095
844.435	24003
844.571	24060
844.708	24083
844.844	24174
844.98	24171
845.117	24190
845.253	23939
845.389	23874
845.525	23817
845.661	23904
845.798	23798
845.934	23824
846.07	23817
846.206	23798
846.342	23863
846.478	23687
846.614	23467
846.75	23429
846.886	23345
847.022	23646
847.158	23558
847.294	23490
847.429	23589
847.565	23444
847.701	23783
847.837	23227
847.972	23132
848.108	23261
848.244	23258
848.379	23117
848.515	23193
848.65	23018
848.786	23159
848.921	23090
849.057	23273
849.192	23197
849.328	23159
849.463	23083
849.598	22968
849.734	22900
849.869	22949
850.004	22858
850.14	22866
850.275	22858
850.41	22904
850.545	22809
850.68	22736
850.815	22896
850.95	22767
851.085	23067
851.22	22919
851.355	22847
851.49	22862
851.625	22854
851.76	22767
851.895	22733
852.03	22805
852.165	22793
852.299	23010
852.434	22896
852.569	22862
852.703	22809
852.838	22953
852.973	23029
853.107	22900
853.242	22706
853.376	22713
853.511	22527
853.645	22607
853.78	22854
853.914	22637
854.048	22675
854.183	22702
854.317	22733
854.451	22774
854.585	22645
854.72	22630
854.854	22774
854.988	22519
855.122	22668
855.256	22641
855.39	22713
855.524	22759
855.658	22809
855.792	22702
855.926	22615
856.06	22702
856.194	22820
856.327	22698
856.461	22603
856.595	22698
856.729	22622
856.862	22797
856.996	22664
857.13	22622
857.263	22816
857.397	22729
857.53	22740
857.664	22634
857.797	22656
857.931	22850
858.064	22592
858.197	22854
858.331	22725
858.464	22588
858.597	22653
858.731	22516
858.864	22596
858.997	22622
859.13	22592
859.263	22660
859.396	22877
859.529	22584
859.662	22675
859.795	22649
859.928	22755
860.061	22801
860.194	22908
860.327	22733
860.46	22725
860.592	22835
860.725	22839
860.858	22744
860.99	22736
861.123	22550
861.256	22599
861.388	22634
861.521	23372
861.653	22580
861.786	22516
861.918	22455
862.05	22641
862.183	22618
862.315	22622
862.447	22702
862.58	22584
862.712	22413
862.844	22322
862.976	22436
863.108	22382
863.24	22839
863.372	22363
863.504	22375
863.636	22348
863.768	22527
863.9	22318
864.032	22348
864.164	22402
864.296	22249
864.428	22542
864.559	22470
864.691	22436
864.823	22382
864.954	22234
865.086	22413
865.217	22185
865.349	22150
865.48	22128
865.612	22234
865.743	22341
865.875	22371
866.006	22207
866.137	22322
866.269	22181
866.4	22268
866.531	22177
866.662	22128
866.793	22280
866.924	22230
867.055	22097
867.186	22276
867.317	22246
867.448	22150
867.579	22063
867.71	22147
867.841	21972
867.972	22234
868.103	22090
868.233	22177
868.364	22093
868.495	22356
868.625	22280
868.756	22398
868.886	22451
869.017	22291
869.147	22500
869.278	22451
869.408	22428
869.539	22375
869.669	22394
869.799	22489
869.929	22535
870.06	22675
870.19	22793
870.32	22679
870.45	22839
870.58	22672
870.71	22953
870.84	22877
870.97	22854
871.1	22858
871.23	22904
871.36	22930
871.489	22900
871.619	22995
871.749	23010
871.879	23147
872.008	23075
872.138	23010
872.267	23029
872.397	23010
872.526	22850
872.656	22786
872.785	22786
872.915	22976
873.044	23151
873.173	23083
873.303	23048
873.432	22961
873.561	23162
873.69	22968
873.819	23060
873.948	23029
874.077	23022
874.206	22862
874.335	23010
874.464	23060
874.593	23334
874.722	23185
874.851	23124
874.979	23083
875.108	23467
875.237	23227
875.365	23258
875.494	23254
875.623	23296
875.751	23372
875.88	23216
876.008	23334
876.136	23421
876.265	23710
876.393	23798
876.521	23745
876.65	23615
876.778	23577
876.906	23619
877.034	23573
877.162	23528
877.29	23497
877.418	23562
877.546	23535
877.674	23539
877.802	23657
877.93	23638
878.058	23562
878.185	23604
878.313	23535
878.441	23497
878.568	23391
878.696	23474
878.824	23600
878.951	23668
879.079	23771
879.206	23908
879.333	23775
879.461	23528
879.588	23752
879.715	23813
879.842	23912
879.97	23695
880.097	23391
880.224	23364
880.351	23482
880.478	23417
880.605	23376
880.732	23349
880.859	23596
880.986	23414
881.112	23535
881.239	23242
881.366	23155
881.493	23037
881.619	22987
881.746	23159
881.872	22984
881.999	22968
882.125	22946
882.252	23060
882.378	22930
882.505	22995
882.631	22793
882.757	22653
882.883	22759
883.01	22554
883.136	22645
883.262	22557
883.388	22580
883.514	22653
883.64	22596
883.766	22588
883.892	22382
884.018	22493
884.143	22508
884.269	22740
884.395	22299
884.52	22147
884.646	22337
884.772	22287
884.897	22207
885.023	22318
885.148	22390
885.274	22344
885.399	22386
885.524	22360
885.65	22207
885.775	22044
885.9	22402
886.025	22390
886.15	22405
886.275	22276
886.4	22158
886.525	22276
886.65	22196
886.775	22162
886.9	22344
887.025	22417
887.149	22166
887.274	22158
887.399	21972
887.523	22109
887.648	21983
887.773	21899
887.897	22067
888.021	22067
888.146	21964
888.27	22109
888.395	22128
888.519	22154
888.643	22101
888.767	22055
888.891	21937
889.015	21960
889.139	21846
889.263	21816
889.387	21918
889.511	21953
889.635	21949
889.759	21743
889.883	21812
890.006	21884
890.13	21968
890.254	21686
890.377	21770
890.501	21526
890.624	21389
890.748	21515
890.871	21412
890.995	21382
891.118	21279
891.241	21401
891.364	21386
891.488	21481
891.611	21283
891.734	21382
891.857	21420
891.98	21363
892.103	21443
892.226	21367
892.349	21283
892.471	21211
892.594	21272
892.717	21264
892.839	21256
892.962	21287
893.085	21222
893.207	21233
893.33	21070
893.452	21203
893.575	21355
893.697	21367
893.819	21397
893.941	21519
894.064	21272
894.186	21157
894.308	21184
894.43	21351
894.552	21450
894.674	21283
894.796	21218
894.918	21173
895.04	21154
895.161	21192
895.283	21291
895.405	21135
895.526	21256
895.648	21260
895.769	21378
895.891	21340
896.012	21389
896.134	21214
896.255	21344
896.376	21233
896.498	21302
896.619	21218
896.74	21211
896.861	21302
896.982	21507
897.103	21603
897.224	21469
897.345	21348
897.466	21355
897.587	21397
897.708	21599
897.828	21485
897.949	21363
898.07	21150
898.19	21291
898.311	21454
898.431	21321
898.552	21408
898.672	21557
898.792	21462
898.913	21420
899.033	21241
899.153	21329
899.273	20994
899.393	21100
899.513	21230
899.633	21116
899.753	21176
899.873	21020
899.993	21150
900.113	21127
900.232	21089
900.352	20944
900.472	20941
900.591	20861
900.711	21047
900.83	20895
900.95	20944
901.069	20994
901.189	20887
901.308	20735
901.427	20484
901.546	20522
901.665	20415
901.784	20438
901.904	20412
902.023	20237
902.141	20043
902.26	20069
902.379	20100
902.498	19989
902.617	19852
902.735	20122
902.854	19826
902.973	19936
903.091	19666
903.21	19670
903.328	19590
903.446	19586
903.565	19445
903.683	19556
903.801	19388
903.919	19381
904.038	19384
904.156	19145
904.274	19206
904.392	19213
904.51	19160
904.627	19221
904.745	19255
904.863	19217
904.981	18993
905.098	18920
905.216	18844
905.334	18897
905.451	18924
905.569	18798
905.686	18924
905.803	18825
905.921	18631
906.038	18715
906.155	18623
906.272	18608
906.389	18589
906.506	18311
906.623	18433
906.74	18361
906.857	18251
906.974	18167
907.091	18384
907.208	18517
907.324	18369
907.441	18277
907.557	18243
907.674	17977
907.79	17996
907.907	18114
908.023	18148
908.139	18136
908.256	18087
908.372	17851
908.488	17965
908.604	17863
908.72	17813
908.836	17855
908.952	17802
909.068	17764
909.184	17828
909.3	17794
909.415	17859
909.531	17691
909.647	17558
909.762	17425
909.878	17448
909.993	17467
910.108	17497
910.224	17463
910.339	17398
910.454	17322
910.57	17265
910.685	17124
910.8	17562
910.915	17463
911.03	17239
911.145	17204
911.259	17029
911.374	17094
911.489	17090
911.604	16816
911.718	16782
911.833	16869
911.947	16744
912.062	16656
912.176	16820
912.291	16911
912.405	16820
912.519	17041
912.633	16968
912.748	16782
912.862	16755
912.976	16679
913.09	16500
913.204	16516
913.318	16645
913.431	16706
913.545	16771
913.659	16771
913.772	16592
913.886	16459
914	16348
914.113	16565
914.226	16546
914.34	16436
914.453	16272
914.566	16390
914.68	16287
914.793	16219
914.906	16124
915.019	16044
915.132	15857
915.245	16010
915.358	16021
915.47	15930
915.583	15983
915.696	15907
915.809	16097
915.921	15972
916.034	15964
916.146	15857
916.259	15892
916.371	15903
916.483	15926
916.595	15865
916.708	15743
916.82	15876
916.932	15698
917.044	15717
917.156	15694
917.268	15625
917.38	15656
917.491	15618
917.603	15572
917.715	15698
917.826	15584
917.938	15545
918.049	15374
918.161	15500
918.272	15652
918.384	15713
918.495	15466
918.606	15359
918.717	15363
918.828	15344
918.939	15416
919.05	15332
919.161	15329
919.272	15093
919.383	15093
919.494	15359
919.604	15561
919.715	15317
919.826	15313
919.936	15283
920.047	15454
920.157	15249
920.267	15526
920.378	15279
920.488	15207
920.598	15397
920.708	15618
920.818	15389
920.928	15374
921.038	15606
921.148	15511
921.258	15264
921.368	15119
921.477	15089
921.587	15020
921.697	14842
921.806	15043
921.916	14937
922.025	14720
922.134	14697
922.244	14541
922.353	14663
922.462	14575
922.571	14404
922.68	14358
922.789	14259
922.898	14374
923.007	14157
923.116	14347
923.224	14225
923.333	14237
923.442	14153
923.55	14157
923.659	14115
923.767	14153
923.876	13997
923.984	14077
924.092	14016
924.201	14092
924.309	13955
924.417	14024
924.525	13921
924.633	13917
924.741	14842
924.849	13715
924.956	13845
925.064	13693
925.172	13616
925.279	13624
925.387	13677
925.494	13658
925.602	13757
925.709	13681
925.816	13586
925.924	13601
926.031	13719
926.138	13571
926.245	13616
926.352	13544
926.459	13533
926.566	13620
926.673	13502
926.779	13453
926.886	13400
926.993	13221
927.099	13187
927.206	13152
927.312	13069
927.419	13259
927.525	13240
927.631	13110
927.737	13031
927.843	13084
927.95	12973
928.056	12996
928.162	13000
928.267	13099
928.373	13696
928.479	13061
928.585	12837
928.69	12932
928.796	13046
928.901	12833
929.007	12764
929.112	12833
929.218	12894
929.323	12768
929.428	12688
929.533	12848
929.638	12692
929.743	12650
929.848	12711
929.953	12707
930.058	12597
930.163	12391
930.267	12376
930.372	12414
930.477	12365
930.581	12486
930.685	12410
930.79	12365
930.894	12266
930.998	12201
931.103	12353
931.207	12053
931.311	11973
931.415	11805
931.519	11726
931.623	11585
