Data from test_V78500241_2753.txt Node
Date: Fri Mar 25 16:00:52 CST 2022
User: usil
Spectrometer: V785-0024
Trigger mode: 0
Integration Time (sec): 4.000000E-1
Scans to average: 1
Nonlinearity correction enabled: false
Boxcar width: 0
Storing dark spectrum: false
XAxis mode: Wavelengths
Number of Pixels in Spectrum: 1024
>>>>>Begin Spectral Data<<<<<
801.071	28862
801.214	28649
801.356	28436
801.499	28421
801.641	28375
801.783	28341
801.926	28322
802.068	28120
802.211	28211
802.353	28253
802.496	28139
802.638	27892
802.78	27914
802.923	27892
803.065	27930
803.208	27937
803.35	28048
803.492	28082
803.635	28166
803.777	28185
803.919	28162
804.061	28637
804.204	28242
804.346	28154
804.488	28112
804.63	28226
804.773	28063
804.915	28276
805.057	28447
805.199	28276
805.341	28356
805.483	28382
805.626	28348
805.768	28325
805.91	28432
806.052	28527
806.194	28447
806.336	28645
806.478	28459
806.62	28409
806.762	28432
806.904	28687
807.046	28991
807.188	28904
807.33	28664
807.472	28885
807.614	28831
807.756	28664
807.898	28721
808.04	28512
808.182	28656
808.324	28729
808.465	28812
808.607	28915
808.749	29075
808.891	28984
809.033	29223
809.174	29239
809.316	29185
809.458	29083
809.6	29048
809.741	29311
809.883	29254
810.025	29440
810.166	29277
810.308	29402
810.45	29315
810.591	29307
810.733	29098
810.875	29170
811.016	29052
811.158	29003
811.299	29273
811.441	29284
811.582	29136
811.724	29143
811.865	29083
812.007	29090
812.148	29071
812.29	29269
812.431	29132
812.573	29440
812.714	29562
812.855	29695
812.997	29737
813.138	29809
813.279	29771
813.421	29535
813.562	29570
813.703	29528
813.845	29208
813.986	29094
814.127	28911
814.268	28904
814.41	28991
814.551	28839
814.692	28900
814.833	28721
814.974	28790
815.115	28805
815.256	28801
815.397	28645
815.539	28630
815.68	28561
815.821	28668
815.962	28542
816.103	28607
816.244	28573
816.385	28382
816.526	28443
816.666	28280
816.807	27979
816.948	28226
817.089	28128
817.23	28211
817.371	28150
817.512	28158
817.653	28105
817.793	28010
817.934	28207
818.075	28093
818.216	28238
818.356	28207
818.497	27934
818.638	27751
818.778	27766
818.919	27949
819.06	27854
819.2	28166
819.341	28158
819.481	28177
819.622	28284
819.762	28535
819.903	28284
820.043	28299
820.184	28325
820.324	28211
820.465	28542
820.605	28322
820.746	28261
820.886	28086
821.026	28166
821.167	28265
821.307	28200
821.447	28128
821.588	28078
821.728	28067
821.868	27808
822.008	27637
822.149	27500
822.289	27580
822.429	27340
822.569	27332
822.709	27249
822.849	27062
822.99	27195
823.13	26979
823.27	27074
823.41	26811
823.55	26849
823.69	27089
823.83	26876
823.97	26952
824.11	26746
824.25	26758
824.389	26842
824.529	26746
824.669	26731
824.809	27051
824.949	26937
825.089	26861
825.228	26823
825.368	26556
825.508	26765
825.648	26651
825.787	26644
825.927	26701
826.067	26571
826.206	26598
826.346	26781
826.485	26724
826.625	26674
826.765	26625
826.904	26739
827.044	26412
827.183	26400
827.323	26256
827.462	26423
827.601	26453
827.741	26301
827.88	26267
828.02	26161
828.159	26237
828.298	26396
828.437	26358
828.577	26438
828.716	26423
828.855	26298
828.994	26092
829.134	26058
829.273	26149
829.412	26081
829.551	26054
829.69	26031
829.829	26092
829.968	26210
830.107	26020
830.246	26058
830.385	26073
830.524	25963
830.663	25890
830.802	25719
830.941	25700
831.08	25582
831.219	25887
831.357	25765
831.496	25932
831.635	25685
831.774	25571
831.913	25578
832.051	25487
832.19	25426
832.329	25499
832.467	25335
832.606	25266
832.744	25266
832.883	25266
833.022	25274
833.16	25320
833.299	25377
833.437	25350
833.576	25339
833.714	25434
833.852	25403
833.991	25415
834.129	25457
834.267	25525
834.406	25358
834.544	25419
834.682	25388
834.821	25441
834.959	25559
835.097	25289
835.235	25415
835.373	25377
835.511	25476
835.65	25228
835.788	25362
835.926	25244
836.064	25072
836.202	24970
836.34	25179
836.478	25217
836.615	25175
836.753	25206
836.891	25293
837.029	25228
837.167	25293
837.305	25179
837.443	25110
837.58	25072
837.718	25141
837.856	25084
837.993	25065
838.131	25046
838.269	24821
838.406	24829
838.544	24897
838.681	24646
838.819	24677
838.956	24483
839.094	24498
839.231	24384
839.369	24764
839.506	25012
839.643	24764
839.781	24540
839.918	24414
840.055	24547
840.193	24494
840.33	24429
840.467	24384
840.604	24555
840.742	24719
840.879	24319
841.016	24369
841.153	24342
841.29	24509
841.427	24330
841.564	24448
841.701	24300
841.838	24403
841.975	24292
842.112	24258
842.249	24235
842.385	24121
842.522	24350
842.659	24228
842.796	24254
842.933	24136
843.069	24064
843.206	24254
843.343	24243
843.479	24121
843.616	24174
843.752	23954
843.889	23939
844.025	24068
844.162	23805
844.298	23931
844.435	23977
844.571	23893
844.708	23973
844.844	24068
844.98	24110
845.117	24079
845.253	23927
845.389	23703
845.525	23923
845.661	23813
845.798	23562
845.934	23703
846.07	23680
846.206	23695
846.342	23714
846.478	23707
846.614	23520
846.75	23391
846.886	23490
847.022	23505
847.158	23345
847.294	23395
847.429	23474
847.565	23463
847.701	23520
847.837	23094
847.972	23208
848.108	23273
848.244	23170
848.379	23018
848.515	22991
848.65	22919
848.786	23136
848.921	22965
849.057	22995
849.192	23117
849.328	23022
849.463	22923
849.598	22923
849.734	22908
849.869	22915
850.004	22801
850.14	22835
850.275	22729
850.41	22744
850.545	22615
850.68	22706
850.815	22790
850.95	22683
851.085	22809
851.22	22919
851.355	22774
851.49	22706
851.625	22649
851.76	22706
851.895	22611
852.03	22702
852.165	22805
852.299	22755
852.434	22790
852.569	22752
852.703	22634
852.838	22831
852.973	22885
853.107	22896
853.242	22679
853.376	22557
853.511	22504
853.645	22466
853.78	22740
853.914	22618
854.048	22493
854.183	22550
854.317	22592
854.451	22877
854.585	22592
854.72	22577
854.854	22611
854.988	22481
855.122	22618
855.256	22481
855.39	22611
855.524	22607
855.658	22573
855.792	22615
855.926	22611
856.06	22580
856.194	22721
856.327	22565
856.461	22519
856.595	22493
856.729	22618
856.862	22694
856.996	22752
857.13	22565
857.263	22626
857.397	22561
857.53	22618
857.664	22599
857.797	22702
857.931	22759
858.064	22580
858.197	22626
858.331	22508
858.464	22577
858.597	22462
858.731	22691
858.864	22554
858.997	22512
859.13	22436
859.263	22588
859.396	22611
859.529	22516
859.662	22592
859.795	22424
859.928	22630
860.061	22733
860.194	22725
860.327	22634
860.46	22493
860.592	22694
860.725	22668
860.858	22588
860.99	22634
861.123	22523
861.256	22493
861.388	22535
861.521	23258
861.653	22493
861.786	22318
861.918	22363
862.05	22360
862.183	22390
862.315	22588
862.447	22561
862.58	22508
862.712	22280
862.844	22379
862.976	22268
863.108	22379
863.24	22736
863.372	22272
863.504	22287
863.636	22276
863.768	22341
863.9	22341
864.032	22303
864.164	22223
864.296	22341
864.428	22306
864.559	22272
864.691	22230
864.823	22485
864.954	22409
865.086	22287
865.217	22090
865.349	22029
865.48	22207
865.612	22063
865.743	22352
865.875	22207
866.006	22147
866.137	22147
866.269	22124
866.4	22143
866.531	22025
866.662	22029
866.793	22154
866.924	21998
867.055	22112
867.186	21926
867.317	22082
867.448	21911
867.579	22070
867.71	21968
867.841	21945
867.972	22147
868.103	22086
868.233	22188
868.364	22021
868.495	22215
868.625	22405
868.756	22322
868.886	22246
869.017	22181
869.147	22367
869.278	22386
869.408	22333
869.539	22215
869.669	22344
869.799	22363
869.929	22322
870.06	22451
870.19	22554
870.32	22607
870.45	22653
870.58	22702
870.71	22782
870.84	22771
870.97	22816
871.1	22816
871.23	22911
871.36	22873
871.489	22771
871.619	22938
871.749	22991
871.879	22976
872.008	23033
872.138	22987
872.267	22911
872.397	22847
872.526	22736
872.656	22820
872.785	22774
872.915	23044
873.044	22968
873.173	23083
873.303	22866
873.432	22824
873.561	23155
873.69	22999
873.819	22999
873.948	23037
874.077	22953
874.206	22850
874.335	22915
874.464	23014
874.593	23197
874.722	23121
874.851	23200
874.979	23037
875.108	23147
875.237	23117
875.365	23010
875.494	23105
875.623	23239
875.751	23048
875.88	23242
876.008	23315
876.136	23311
876.265	23539
876.393	23752
876.521	23756
876.65	23524
876.778	23543
876.906	23512
877.034	23497
877.162	23573
877.29	23360
877.418	23474
877.546	23531
877.674	23551
877.802	23459
877.93	23402
878.058	23611
878.185	23261
878.313	23315
878.441	23520
878.568	23277
878.696	23383
878.824	23573
878.951	23581
879.079	23657
879.206	23741
879.333	23615
879.461	23604
879.588	23596
879.715	23592
879.842	23764
879.97	23493
880.097	23265
880.224	23341
880.351	23292
880.478	23341
880.605	23174
880.732	23318
880.859	23570
880.986	23284
881.112	23265
881.239	23189
881.366	23105
881.493	22854
881.619	22923
881.746	22835
881.872	22835
881.999	22820
882.125	22923
882.252	22919
882.378	22850
882.505	22858
882.631	22687
882.757	22531
882.883	22596
883.01	22584
883.136	22436
883.262	22466
883.388	22371
883.514	22428
883.64	22725
883.766	22440
883.892	22325
884.018	22310
884.143	22618
884.269	22497
884.395	22280
884.52	22249
884.646	22276
884.772	22120
884.897	22105
885.023	22204
885.148	22211
885.274	22325
885.399	22265
885.524	22086
885.65	22314
885.775	22246
885.9	22204
886.025	22322
886.15	22200
886.275	22078
886.4	22010
886.525	22097
886.65	22128
886.775	21964
886.9	22090
887.025	22405
887.149	22147
887.274	21831
887.399	21918
887.523	22082
887.648	21892
887.773	21778
887.897	22059
888.021	22044
888.146	21922
888.27	21972
888.395	22029
888.519	21884
888.643	21930
888.767	21983
888.891	21789
889.015	21667
889.139	21842
889.263	21766
889.387	21785
889.511	21968
889.635	21743
889.759	21686
889.883	21679
890.006	21743
890.13	21861
890.254	21686
890.377	21656
890.501	21462
890.624	21367
890.748	21473
890.871	21412
890.995	21325
891.118	21294
891.241	21291
891.364	21283
891.488	21416
891.611	21336
891.734	21161
891.857	21279
891.98	21268
892.103	21279
892.226	21233
892.349	21256
892.471	21081
892.594	21081
892.717	21173
892.839	21127
892.962	21165
893.085	21241
893.207	21116
893.33	21062
893.452	21116
893.575	21157
893.697	21081
893.819	21237
893.941	21294
894.064	21256
894.186	21081
894.308	21039
894.43	21298
894.552	21332
894.674	21268
894.796	20960
894.918	21043
895.04	21043
895.161	21195
895.283	21192
895.405	21146
895.526	21157
895.648	21195
895.769	21074
895.891	21237
896.012	21157
896.134	21146
896.255	21173
896.376	21176
896.498	21055
896.619	21070
896.74	21127
896.861	21199
896.982	21511
897.103	21614
897.224	21428
897.345	21393
897.466	21211
897.587	21424
897.708	21466
897.828	21367
897.949	21245
898.07	21230
898.19	21195
898.311	21408
898.431	21237
898.552	21500
898.672	21386
898.792	21386
898.913	21348
899.033	21218
899.153	21085
899.273	21077
899.393	21089
899.513	21009
899.633	21108
899.753	21100
899.873	20982
899.993	21066
900.113	20967
900.232	20979
900.352	21009
900.472	20792
900.591	20743
900.711	20823
900.83	20887
900.95	20941
901.069	20891
901.189	20712
901.308	20560
901.427	20301
901.546	20286
901.665	20336
901.784	20484
901.904	20309
902.023	20187
902.141	19982
902.26	19944
902.379	19928
902.498	19852
902.617	19811
902.735	19951
902.854	19868
902.973	19909
903.091	19643
903.21	19453
903.328	19525
903.446	19453
903.565	19411
903.683	19422
903.801	19285
903.919	19285
904.038	19282
904.156	19152
904.274	19270
904.392	19107
904.51	19027
904.627	19057
904.745	19247
904.863	19145
904.981	18977
905.098	18886
905.216	18817
905.334	18840
905.451	18681
905.569	18795
905.686	18745
905.803	18829
905.921	18627
906.038	18673
906.155	18566
906.272	18483
906.389	18589
906.506	18334
906.623	18422
906.74	18258
906.857	18186
906.974	18254
907.091	18323
907.208	18361
907.324	18369
907.441	18133
907.557	17988
907.674	18038
907.79	18011
907.907	17946
908.023	18011
908.139	18030
908.256	18060
908.372	17802
908.488	17889
908.604	17771
908.72	17680
908.836	17836
908.952	17707
909.068	17756
909.184	17737
909.3	17684
909.415	17821
909.531	17741
909.647	17452
909.762	17478
909.878	17326
909.993	17482
910.108	17376
910.224	17345
910.339	17356
910.454	17288
910.57	17254
910.685	17143
910.8	17463
910.915	17448
911.03	17334
911.145	17094
911.259	16854
911.374	17006
911.489	16919
911.604	16767
911.718	16725
911.833	16820
911.947	16694
912.062	16580
912.176	16706
912.291	16706
912.405	16744
912.519	16812
912.633	16839
912.748	16831
912.862	16561
912.976	16611
913.09	16421
913.204	16504
913.318	16561
913.431	16649
913.545	16550
913.659	16668
913.772	16531
913.886	16428
914	16268
914.113	16459
914.226	16421
914.34	16459
914.453	16181
914.566	16398
914.68	16223
914.793	16150
914.906	15998
915.019	15854
915.132	15747
915.245	15873
915.358	15926
915.47	15918
915.583	15865
915.696	15880
915.809	15926
915.921	16082
916.034	15850
916.146	15743
916.259	15755
916.371	15922
916.483	15778
916.595	15614
916.708	15759
916.82	15701
916.932	15743
917.044	15652
917.156	15713
917.268	15542
917.38	15648
917.491	15515
917.603	15549
917.715	15603
917.826	15625
917.938	15473
918.049	15348
918.161	15477
918.272	15648
918.384	15603
918.495	15435
918.606	15321
918.717	15195
918.828	15317
918.939	15340
919.05	15192
919.161	15272
919.272	15070
919.383	15131
919.494	15370
919.604	15507
919.715	15264
919.826	15135
919.936	15245
920.047	15291
920.157	15287
920.267	15473
920.378	15310
920.488	15218
920.598	15336
920.708	15530
920.818	15294
920.928	15420
921.038	15507
921.148	15428
921.258	15268
921.368	15009
921.477	15009
921.587	14944
921.697	14853
921.806	14857
921.916	14800
922.025	14590
922.134	14602
922.244	14522
922.353	14648
922.462	14484
922.571	14457
922.68	14244
922.789	14256
922.898	14259
923.007	14195
923.116	14229
923.224	14252
923.333	14259
923.442	14027
923.55	13955
923.659	14043
923.767	14130
923.876	13967
923.984	14005
924.092	13909
924.201	13986
924.309	14039
924.417	13978
924.525	13860
924.633	13871
924.741	14773
924.849	13609
924.956	13856
925.064	13693
925.172	13540
925.279	13567
925.387	13578
925.494	13636
925.602	13651
925.709	13636
925.816	13472
925.924	13525
926.031	13628
926.138	13586
926.245	13582
926.352	13400
926.459	13685
926.566	13609
926.673	13457
926.779	13335
926.886	13331
926.993	13160
927.099	13114
927.206	13034
927.312	13137
927.419	13160
927.525	13175
927.631	13122
927.737	13046
927.843	13019
927.95	12920
928.056	12985
928.162	13042
928.267	12970
928.373	13499
928.479	12939
928.585	12829
928.69	12878
928.796	12977
928.901	12817
929.007	12696
929.112	12779
929.218	12764
929.323	12662
929.428	12665
929.533	12772
929.638	12589
929.743	12627
929.848	12665
929.953	12601
930.058	12437
930.163	12350
930.267	12251
930.372	12536
930.477	12334
930.581	12574
930.685	12319
930.79	12175
930.894	12243
930.998	12163
931.103	12346
931.207	11969
931.311	11889
931.415	11821
931.519	11573
931.623	11653
