Data from test_V78500241_725.txt Node
Date: Fri Mar 25 15:46:49 CST 2022
User: usil
Spectrometer: V785-0024
Trigger mode: 0
Integration Time (sec): 4.000000E-1
Scans to average: 1
Nonlinearity correction enabled: false
Boxcar width: 0
Storing dark spectrum: false
XAxis mode: Wavelengths
Number of Pixels in Spectrum: 1024
>>>>>Begin Spectral Data<<<<<
801.071	27778
801.214	27663
801.356	27351
801.499	27241
801.641	27214
801.783	27233
801.926	27348
802.068	27321
802.211	27180
802.353	27055
802.496	26838
802.638	26982
802.78	26914
802.923	26956
803.065	26849
803.208	27096
803.35	26895
803.492	27001
803.635	27051
803.777	26971
803.919	27089
804.061	27386
804.204	27150
804.346	27017
804.488	27051
804.63	27112
804.773	26979
804.915	27176
805.057	27249
805.199	27089
805.341	27329
805.483	27279
805.626	27157
805.768	27184
805.91	27192
806.052	27310
806.194	27142
806.336	27542
806.478	27317
806.62	27283
806.762	27237
806.904	27530
807.046	27831
807.188	27675
807.33	27739
807.472	27690
807.614	27694
807.756	27667
807.898	27606
808.04	27424
808.182	27485
808.324	27507
808.465	27549
808.607	27709
808.749	27854
808.891	28010
809.033	28063
809.174	27888
809.316	28032
809.458	27968
809.6	27846
809.741	28055
809.883	28097
810.025	28200
810.166	28147
810.308	28196
810.45	28128
810.591	27960
810.733	27781
810.875	27660
811.016	27774
811.158	27827
811.299	27972
811.441	28044
811.582	28025
811.724	27987
811.865	27797
812.007	27873
812.148	27778
812.29	27873
812.431	28086
812.573	28287
812.714	28287
812.855	28352
812.997	28459
813.138	28596
813.279	28569
813.421	28325
813.562	28424
813.703	28238
813.845	27937
813.986	27873
814.127	27728
814.268	27572
814.41	27534
814.551	27511
814.692	27561
814.833	27538
814.974	27466
815.115	27629
815.256	27389
815.397	27447
815.539	27530
815.68	27401
815.821	27306
815.962	27348
816.103	27348
816.244	27389
816.385	27127
816.526	27047
816.666	26868
816.807	26902
816.948	26998
817.089	26971
817.23	26967
817.371	26777
817.512	26967
817.653	26804
817.793	26792
817.934	26918
818.075	26948
818.216	26785
818.356	26743
818.497	26796
818.638	26571
818.778	26579
818.919	26651
819.06	26705
819.2	26872
819.341	26849
819.481	26785
819.622	26902
819.762	27081
819.903	27096
820.043	27047
820.184	26918
820.324	27017
820.465	27043
820.605	27032
820.746	26952
820.886	26823
821.026	26940
821.167	27001
821.307	27028
821.447	26921
821.588	26579
821.728	26602
821.868	26469
822.008	26381
822.149	26332
822.289	26309
822.429	26035
822.569	25997
822.709	26058
822.849	25769
822.99	25795
823.13	25909
823.27	25833
823.41	25715
823.55	25491
823.69	25639
823.83	25624
823.97	25704
824.11	25502
824.25	25464
824.389	25483
824.529	25449
824.669	25460
824.809	25628
824.949	25708
825.089	25518
825.228	25624
825.368	25312
825.508	25335
825.648	25468
825.787	25388
825.927	25384
826.067	25209
826.206	25324
826.346	25449
826.485	25324
826.625	25282
826.765	25415
826.904	25365
827.044	25095
827.183	25247
827.323	24958
827.462	25110
827.601	25171
827.741	25038
827.88	25012
828.02	24962
828.159	24859
828.298	25247
828.437	25061
828.577	24939
828.716	25183
828.855	24951
828.994	24623
829.134	24871
829.273	24871
829.412	24749
829.551	24745
829.69	24745
829.829	24734
829.968	24837
830.107	24798
830.246	24677
830.385	24722
830.524	24620
830.663	24627
830.802	24578
830.941	24388
831.08	24315
831.219	24338
831.357	24486
831.496	24635
831.635	24384
831.774	24334
831.913	24281
832.051	24068
832.19	24182
832.329	24098
832.467	24057
832.606	24083
832.744	23885
832.883	23973
833.022	23954
833.16	23965
833.299	24117
833.437	24015
833.576	24110
833.714	24148
833.852	24106
833.991	24190
834.129	24186
834.267	24167
834.406	24095
834.544	24152
834.682	24144
834.821	24125
834.959	24197
835.097	24060
835.235	24251
835.373	23973
835.511	24034
835.65	23882
835.788	24015
835.926	23741
836.064	23649
836.202	23760
836.34	23958
836.478	24095
836.615	23923
836.753	23961
836.891	23996
837.029	23931
837.167	23794
837.305	23863
837.443	23870
837.58	23779
837.718	23939
837.856	23824
837.993	23764
838.131	23695
838.269	23463
838.406	23733
838.544	23611
838.681	23512
838.819	23459
838.956	23258
839.094	23204
839.231	23322
839.369	23372
839.506	23695
839.643	23493
839.781	23284
839.918	23121
840.055	23105
840.193	23315
840.33	23170
840.467	23250
840.604	23303
840.742	23421
840.879	23151
841.016	22934
841.153	23025
841.29	23204
841.427	23136
841.564	23265
841.701	23109
841.838	23128
841.975	23022
842.112	23189
842.249	22987
842.385	22976
842.522	23147
842.659	23003
842.796	22938
842.933	22869
843.069	22812
843.206	22995
843.343	22957
843.479	22942
843.616	22881
843.752	22740
843.889	22729
844.025	22820
844.162	22596
844.298	22885
844.435	22634
844.571	22664
844.708	22771
844.844	22713
844.98	22660
845.117	22820
845.253	22516
845.389	22645
845.525	22500
845.661	22516
845.798	22504
845.934	22523
846.07	22489
846.206	22348
846.342	22580
846.478	22432
846.614	22310
846.75	22082
846.886	22112
847.022	22169
847.158	22070
847.294	22215
847.429	22150
847.565	22055
847.701	22295
847.837	21937
847.972	21857
848.108	21953
848.244	21960
848.379	21732
848.515	21641
848.65	21717
848.786	21850
848.921	21709
849.057	21857
849.192	21884
849.328	21709
849.463	21637
849.598	21660
849.734	21625
849.869	21671
850.004	21488
850.14	21542
850.275	21428
850.41	21492
850.545	21420
850.68	21454
850.815	21443
850.95	21507
851.085	21599
851.22	21549
851.355	21519
851.49	21454
851.625	21542
851.76	21488
851.895	21393
852.03	21382
852.165	21519
852.299	21580
852.434	21591
852.569	21572
852.703	21519
852.838	21534
852.973	21583
853.107	21614
853.242	21462
853.376	21332
853.511	21173
853.645	21264
853.78	21397
853.914	21428
854.048	21302
854.183	21233
854.317	21378
854.451	21485
854.585	21321
854.72	21325
854.854	21351
854.988	21294
855.122	21237
855.256	21154
855.39	21272
855.524	21367
855.658	21351
855.792	21313
855.926	21447
856.06	21382
856.194	21367
856.327	21336
856.461	21344
856.595	21211
856.729	21393
856.862	21355
856.996	21344
857.13	21351
857.263	21496
857.397	21507
857.53	21294
857.664	21435
857.797	21378
857.931	21481
858.064	21408
858.197	21386
858.331	21256
858.464	21218
858.597	21268
858.731	21256
858.864	21389
858.997	21313
859.13	21431
859.263	21367
859.396	21344
859.529	21287
859.662	21104
859.795	21302
859.928	21256
860.061	21458
860.194	21507
860.327	21374
860.46	21332
860.592	21397
860.725	21530
860.858	21466
860.99	21275
861.123	21245
861.256	21222
861.388	21336
861.521	22059
861.653	21218
861.786	21062
861.918	21214
862.05	21237
862.183	21268
862.315	21344
862.447	21378
862.58	21237
862.712	20986
862.844	21081
862.976	21157
863.108	21077
863.24	21519
863.372	20986
863.504	20998
863.636	21058
863.768	21222
863.9	20967
864.032	20971
864.164	21020
864.296	21036
864.428	21020
864.559	21093
864.691	21169
864.823	21047
864.954	21108
865.086	20887
865.217	21055
865.349	20963
865.48	20986
865.612	20883
865.743	20967
865.875	20823
866.006	20941
866.137	20929
866.269	20834
866.4	20902
866.531	20823
866.662	20830
866.793	20773
866.924	20864
867.055	20925
867.186	20868
867.317	20830
867.448	20724
867.579	20861
867.71	20754
867.841	20872
867.972	20864
868.103	20876
868.233	20663
868.364	20819
868.495	20857
868.625	21154
868.756	21348
868.886	21081
869.017	21036
869.147	21131
869.278	21226
869.408	21135
869.539	21043
869.669	21112
869.799	21192
869.929	21359
870.06	21310
870.19	21515
870.32	21416
870.45	21504
870.58	21511
870.71	21671
870.84	21614
870.97	21526
871.1	21504
871.23	21667
871.36	21618
871.489	21526
871.619	21743
871.749	21739
871.879	21679
872.008	21766
872.138	21736
872.267	21686
872.397	21538
872.526	21557
872.656	21526
872.785	21663
872.915	21671
873.044	21793
873.173	21751
873.303	21739
873.432	21857
873.561	21789
873.69	21736
873.819	21690
873.948	21842
874.077	21823
874.206	21717
874.335	21835
874.464	21888
874.593	21968
874.722	21892
874.851	21998
874.979	21983
875.108	22070
875.237	22025
875.365	21930
875.494	22013
875.623	21979
875.751	21956
875.88	22025
876.008	22154
876.136	22287
876.265	22371
876.393	22455
876.521	22470
876.65	22455
876.778	22413
876.906	22226
877.034	22375
877.162	22257
877.29	22185
877.418	22295
877.546	22337
877.674	22120
877.802	22310
877.93	22253
878.058	22253
878.185	22185
878.313	22238
878.441	22356
878.568	22120
878.696	22371
878.824	22348
878.951	22348
879.079	22497
879.206	22729
879.333	22622
879.461	22360
879.588	22413
879.715	22405
879.842	22584
879.97	22367
880.097	22032
880.224	22124
880.351	22147
880.478	22238
880.605	21964
880.732	22086
880.859	22428
880.986	22109
881.112	22226
881.239	21972
881.366	21869
881.493	21850
881.619	21793
881.746	21671
881.872	21736
881.999	21720
882.125	21709
882.252	21679
882.378	21743
882.505	21831
882.631	21473
882.757	21545
882.883	21378
883.01	21401
883.136	21351
883.262	21386
883.388	21344
883.514	21428
883.64	21397
883.766	21279
883.892	21116
884.018	21203
884.143	21428
884.269	21374
884.395	21108
884.52	21058
884.646	21112
884.772	21020
884.897	20876
885.023	21077
885.148	21138
885.274	21195
885.399	21123
885.524	21020
885.65	21070
885.775	21096
885.9	21051
886.025	21199
886.15	21222
886.275	20914
886.4	20952
886.525	21047
886.65	21017
886.775	20921
886.9	21096
887.025	21332
887.149	20952
887.274	20899
887.399	20899
887.523	20769
887.648	20834
887.773	20735
887.897	20906
888.021	20838
888.146	20720
888.27	20933
888.395	20891
888.519	20918
888.643	20918
888.767	20838
888.891	20735
889.015	20632
889.139	20724
889.263	20545
889.387	20659
889.511	20762
889.635	20686
889.759	20663
889.883	20579
890.006	20621
890.13	20632
890.254	20575
890.377	20583
890.501	20347
890.624	20317
890.748	20526
890.871	20218
890.995	20122
891.118	20218
891.241	20237
891.364	20233
891.488	20244
891.611	20214
891.734	20191
891.857	20248
891.98	20237
892.103	20225
892.226	20122
892.349	20096
892.471	19993
892.594	20172
892.717	20229
892.839	20103
892.962	20134
893.085	20111
893.207	19989
893.33	20020
893.452	19951
893.575	20035
893.697	20016
893.819	20225
893.941	20229
894.064	20240
894.186	20081
894.308	20073
894.43	20145
894.552	20218
894.674	20164
894.796	19959
894.918	20084
895.04	20001
895.161	20176
895.283	20119
895.405	20039
895.526	20050
895.648	20092
895.769	20073
895.891	20069
896.012	20161
896.134	20164
896.255	20031
896.376	20092
896.498	20107
896.619	20058
896.74	19955
896.861	20183
896.982	20343
897.103	20552
897.224	20495
897.345	20256
897.466	20351
897.587	20271
897.708	20511
897.828	20377
897.949	20229
898.07	20142
898.19	20298
898.311	20313
898.431	20294
898.552	20286
898.672	20271
898.792	20381
898.913	20298
899.033	20145
899.153	20092
899.273	20020
899.393	19925
899.513	20096
899.633	20122
899.753	20100
899.873	19986
899.993	20138
900.113	20008
900.232	20069
900.352	19955
900.472	19909
900.591	19795
900.711	19776
900.83	19772
900.95	19909
901.069	19902
901.189	19712
901.308	19499
901.427	19426
901.546	19529
901.665	19396
901.784	19381
901.904	19327
902.023	19285
902.141	19065
902.26	18993
902.379	18943
902.498	18920
902.617	18932
902.735	19019
902.854	18875
902.973	18878
903.091	18578
903.21	18475
903.328	18658
903.446	18528
903.565	18429
903.683	18437
903.801	18296
903.919	18353
904.038	18399
904.156	18270
904.274	18327
904.392	18091
904.51	18171
904.627	18098
904.745	18174
904.863	18194
904.981	17973
905.098	17866
905.216	17805
905.334	17916
905.451	17893
905.569	17851
905.686	17805
905.803	17828
905.921	17676
906.038	17798
906.155	17718
906.272	17562
906.389	17497
906.506	17414
906.623	17307
906.74	17387
906.857	17296
906.974	17296
907.091	17414
907.208	17478
907.324	17379
907.441	17345
907.557	17181
907.674	17098
907.79	17117
907.907	17064
908.023	17204
908.139	17159
908.256	16949
908.372	16976
908.488	16976
908.604	16771
908.72	16816
908.836	16778
908.952	16786
909.068	16812
909.184	16892
909.3	16900
909.415	16873
909.531	16801
909.647	16626
909.762	16603
909.878	16584
909.993	16573
910.108	16554
910.224	16462
910.339	16519
910.454	16402
910.57	16409
910.685	16261
910.8	16538
910.915	16493
911.03	16287
911.145	16139
911.259	16158
911.374	16177
911.489	16086
911.604	16013
911.718	15854
911.833	15861
911.947	15850
912.062	15850
912.176	15873
912.291	15895
912.405	15808
912.519	15994
912.633	16128
912.748	15911
912.862	15930
912.976	15751
913.09	15675
913.204	15603
913.318	15682
913.431	15739
913.545	15755
913.659	15759
913.772	15686
913.886	15507
914	15466
914.113	15526
914.226	15511
914.34	15519
914.453	15340
914.566	15515
914.68	15374
914.793	15336
914.906	15192
915.019	15032
915.132	15074
915.245	15055
915.358	15039
915.47	15135
915.583	15112
915.696	15154
915.809	15146
915.921	15245
916.034	15081
916.146	15100
916.259	14944
916.371	15009
916.483	15051
916.595	14929
916.708	14925
916.82	14944
916.932	14925
917.044	14906
917.156	14872
917.268	14678
917.38	14758
917.491	14758
917.603	14697
917.715	14785
917.826	14762
917.938	14606
918.049	14503
918.161	14758
918.272	14785
918.384	14727
918.495	14682
918.606	14503
918.717	14533
918.828	14499
918.939	14533
919.05	14412
919.161	14476
919.272	14301
919.383	14313
919.494	14385
919.604	14758
919.715	14537
919.826	14438
919.936	14408
920.047	14522
920.157	14545
920.267	14575
920.378	14347
920.488	14415
920.598	14659
920.708	14826
920.818	14712
920.928	14617
921.038	14762
921.148	14731
921.258	14431
921.368	14328
921.477	14290
921.587	14267
921.697	14107
921.806	14168
921.916	14062
922.025	13986
922.134	13936
922.244	13841
922.353	13906
922.462	13693
922.571	13750
922.68	13552
922.789	13506
922.898	13552
923.007	13422
923.116	13616
923.224	13487
923.333	13453
923.442	13396
923.55	13327
923.659	13327
923.767	13400
923.876	13343
923.984	13407
924.092	13179
924.201	13304
924.309	13270
924.417	13285
924.525	13088
924.633	13251
924.741	14092
924.849	12973
924.956	13069
925.064	13057
925.172	12795
925.279	12867
925.387	12970
925.494	12985
925.602	13057
925.709	12981
925.816	12833
925.924	12875
926.031	13031
926.138	12943
926.245	12844
926.352	12821
926.459	12814
926.566	12954
926.673	12878
926.779	12650
926.886	12753
926.993	12540
927.099	12498
927.206	12403
927.312	12467
927.419	12467
927.525	12486
927.631	12540
927.737	12395
927.843	12361
927.95	12224
928.056	12304
928.162	12304
928.267	12262
928.373	13000
928.479	12418
928.585	12136
928.69	12254
928.796	12311
928.901	12209
929.007	11980
929.112	12144
929.218	12175
929.323	12007
929.428	12019
929.533	12194
929.638	11901
929.743	11950
929.848	12060
929.953	12038
930.058	11813
930.163	11646
930.267	11802
930.372	11832
930.477	11676
930.581	11843
930.685	11855
930.79	11604
930.894	11619
930.998	11634
931.103	11779
931.207	11433
931.311	11254
931.415	11204
931.519	10961
931.623	10980
