Data from test_V78500241_2781.txt Node
Date: Fri Mar 25 16:01:03 CST 2022
User: usil
Spectrometer: V785-0024
Trigger mode: 0
Integration Time (sec): 4.000000E-1
Scans to average: 1
Nonlinearity correction enabled: false
Boxcar width: 0
Storing dark spectrum: false
XAxis mode: Wavelengths
Number of Pixels in Spectrum: 1024
>>>>>Begin Spectral Data<<<<<
801.071	29162
801.214	29003
801.356	28866
801.499	28835
801.641	28782
801.783	28721
801.926	28660
802.068	28664
802.211	28668
802.353	28550
802.496	28626
802.638	28417
802.78	28451
802.923	28295
803.065	28207
803.208	28390
803.35	28542
803.492	28660
803.635	28660
803.777	28683
803.919	28672
804.061	28942
804.204	28683
804.346	28691
804.488	28508
804.63	28797
804.773	28561
804.915	28691
805.057	28767
805.199	28725
805.341	28801
805.483	28915
805.626	28740
805.768	28736
805.91	28915
806.052	28774
806.194	28637
806.336	28999
806.478	28965
806.62	28938
806.762	29124
806.904	29121
807.046	29334
807.188	29277
807.33	29223
807.472	29368
807.614	29227
807.756	29341
807.898	29242
808.04	29181
808.182	29212
808.324	29277
808.465	29022
808.607	29463
808.749	29581
808.891	29600
809.033	29638
809.174	29638
809.316	29611
809.458	29482
809.6	29467
809.741	29741
809.883	29707
810.025	29878
810.166	29786
810.308	29939
810.45	29923
810.591	29737
810.733	29524
810.875	29657
811.016	29619
811.158	29436
811.299	29611
811.441	29710
811.582	29699
811.724	29752
811.865	29379
812.007	29573
812.148	29623
812.29	29672
812.431	29779
812.573	29992
812.714	29912
812.855	30117
812.997	30216
813.138	30445
813.279	30159
813.421	30072
813.562	30140
813.703	29977
813.845	29824
813.986	29501
814.127	29440
814.268	29356
814.41	29330
814.551	29353
814.692	29452
814.833	29284
814.974	29284
815.115	29398
815.256	29124
815.397	29353
815.539	29151
815.68	29037
815.821	29044
815.962	29159
816.103	29083
816.244	29044
816.385	28946
816.526	28843
816.666	28729
816.807	28542
816.948	28717
817.089	28721
817.23	28706
817.371	28744
817.512	28516
817.653	28561
817.793	28736
817.934	28713
818.075	28554
818.216	28626
818.356	28607
818.497	28512
818.638	28421
818.778	28219
818.919	28459
819.06	28466
819.2	28394
819.341	28679
819.481	28565
819.622	28759
819.762	28873
819.903	28961
820.043	28968
820.184	28771
820.324	28649
820.465	28881
820.605	28938
820.746	28782
820.886	28497
821.026	28786
821.167	28755
821.307	28755
821.447	28637
821.588	28493
821.728	28504
821.868	28154
822.008	28207
822.149	28124
822.289	28177
822.429	27808
822.569	27838
822.709	27876
822.849	27660
822.99	27656
823.13	27698
823.27	27656
823.41	27370
823.55	27348
823.69	27526
823.83	27500
823.97	27469
824.11	27313
824.25	27268
824.389	27252
824.529	27477
824.669	27336
824.809	27389
824.949	27420
825.089	27424
825.228	27329
825.368	27222
825.508	27154
825.648	27230
825.787	27214
825.927	27264
826.067	27287
826.206	27108
826.346	27329
826.485	27374
826.625	27199
826.765	27431
826.904	27272
827.044	27024
827.183	26937
827.323	26910
827.462	26914
827.601	27005
827.741	26872
827.88	27028
828.02	26819
828.159	26819
828.298	26994
828.437	26952
828.577	26895
828.716	26956
828.855	26811
828.994	26670
829.134	26579
829.273	26655
829.412	26473
829.551	26549
829.69	26457
829.829	26708
829.968	26697
830.107	26651
830.246	26648
830.385	26461
830.524	26442
830.663	26362
830.802	26256
830.941	26229
831.08	26164
831.219	26423
831.357	26294
831.496	26507
831.635	26183
831.774	26024
831.913	26111
832.051	25966
832.19	26016
832.329	26069
832.467	25947
832.606	25849
832.744	25849
832.883	25807
833.022	25845
833.16	25811
833.299	25791
833.437	25932
833.576	25845
833.714	25966
833.852	26084
833.991	25818
834.129	26126
834.267	26043
834.406	25955
834.544	26005
834.682	25780
834.821	25864
834.959	26065
835.097	25921
835.235	25974
835.373	26024
835.511	25959
835.65	25704
835.788	25906
835.926	25693
836.064	25525
836.202	25575
836.34	25731
836.478	25871
836.615	25750
836.753	25719
836.891	25734
837.029	25849
837.167	25708
837.305	25540
837.443	25632
837.58	25514
837.718	25548
837.856	25582
837.993	25464
838.131	25483
838.269	25324
838.406	25457
838.544	25346
838.681	25282
838.819	25095
838.956	25103
839.094	25015
839.231	25027
839.369	25202
839.506	25468
839.643	25289
839.781	25080
839.918	24909
840.055	24973
840.193	25072
840.33	24943
840.467	25008
840.604	24992
840.742	25232
840.879	24875
841.016	24875
841.153	24779
841.29	24932
841.427	24768
841.564	24958
841.701	24897
841.838	24935
841.975	24677
842.112	24791
842.249	24859
842.385	24719
842.522	24837
842.659	24749
842.796	24665
842.933	24544
843.069	24696
843.206	24642
843.343	24715
843.479	24616
843.616	24681
843.752	24544
843.889	24486
844.025	24521
844.162	24631
844.298	24646
844.435	24582
844.571	24350
844.708	24528
844.844	24658
844.98	24582
845.117	24525
845.253	24384
845.389	24384
845.525	24475
845.661	24338
845.798	24114
845.934	24304
846.07	24213
846.206	24152
846.342	24171
846.478	24125
846.614	24030
846.75	23904
846.886	23821
847.022	24106
847.158	23961
847.294	23878
847.429	23950
847.565	23851
847.701	24213
847.837	23649
847.972	23604
848.108	23790
848.244	23554
848.379	23630
848.515	23539
848.65	23395
848.786	23642
848.921	23501
849.057	23657
849.192	23547
849.328	23528
849.463	23452
849.598	23448
849.734	23440
849.869	23258
850.004	23113
850.14	23315
850.275	23242
850.41	23292
850.545	23326
850.68	23322
850.815	23315
850.95	23220
851.085	23440
851.22	23402
851.355	23258
851.49	23197
851.625	23200
851.76	23288
851.895	23102
852.03	23235
852.165	23303
852.299	23151
852.434	23410
852.569	23250
852.703	23356
852.838	23417
852.973	23311
853.107	23425
853.242	23162
853.376	23071
853.511	22965
853.645	23124
853.78	23140
853.914	23029
854.048	23124
854.183	22965
854.317	23128
854.451	23326
854.585	23170
854.72	23052
854.854	23269
854.988	22927
855.122	23033
855.256	23048
855.39	23060
855.524	23178
855.658	23128
855.792	23102
855.926	23136
856.06	23124
856.194	23193
856.327	23010
856.461	23022
856.595	22991
856.729	23029
856.862	23231
856.996	23052
857.13	23147
857.263	23200
857.397	23147
857.53	23121
857.664	23143
857.797	23254
857.931	23311
858.064	23178
858.197	23216
858.331	22961
858.464	22995
858.597	22881
858.731	23162
858.864	23079
858.997	23117
859.13	23117
859.263	23178
859.396	23170
859.529	23071
859.662	23162
859.795	23067
859.928	23193
860.061	23185
860.194	23189
860.327	23200
860.46	23128
860.592	23288
860.725	23269
860.858	23208
860.99	23254
861.123	22980
861.256	23037
861.388	23079
861.521	23840
861.653	22934
861.786	22873
861.918	22847
862.05	23033
862.183	23075
862.315	22946
862.447	22946
862.58	22999
862.712	22698
862.844	22759
862.976	22957
863.108	22873
863.24	23220
863.372	22759
863.504	22778
863.636	22706
863.768	22828
863.9	22869
864.032	22820
864.164	22706
864.296	22847
864.428	22896
864.559	22877
864.691	22869
864.823	22748
864.954	22752
865.086	22653
865.217	22790
865.349	22702
865.48	22721
865.612	22683
865.743	22797
865.875	22607
866.006	22664
866.137	22752
866.269	22611
866.4	22668
866.531	22622
866.662	22577
866.793	22565
866.924	22622
867.055	22626
867.186	22637
867.317	22569
867.448	22516
867.579	22527
867.71	22577
867.841	22390
867.972	22656
868.103	22580
868.233	22557
868.364	22653
868.495	22744
868.625	22812
868.756	22949
868.886	22805
869.017	22828
869.147	22866
869.278	22976
869.408	22957
869.539	22866
869.669	22896
869.799	22900
869.929	22923
870.06	23003
870.19	23197
870.32	23162
870.45	23102
870.58	23265
870.71	23402
870.84	23330
870.97	23143
871.1	23372
871.23	23356
871.36	23455
871.489	23356
871.619	23356
871.749	23349
871.879	23379
872.008	23505
872.138	23444
872.267	23543
872.397	23337
872.526	23269
872.656	23242
872.785	23292
872.915	23429
873.044	23551
873.173	23444
873.303	23493
873.432	23535
873.561	23562
873.69	23417
873.819	23497
873.948	23467
874.077	23570
874.206	23379
874.335	23444
874.464	23547
874.593	23699
874.722	23668
874.851	23687
874.979	23649
875.108	23764
875.237	23615
875.365	23516
875.494	23642
875.623	23832
875.751	23649
875.88	23627
876.008	23726
876.136	23733
876.265	23988
876.393	24213
876.521	24167
876.65	24213
876.778	23999
876.906	24026
877.034	24053
877.162	24045
877.29	23946
877.418	23969
877.546	24095
877.674	23946
877.802	23980
877.93	23973
878.058	23961
878.185	23790
878.313	23942
878.441	24053
878.568	23794
878.696	23904
878.824	24026
878.951	23984
879.079	24083
879.206	24342
879.333	24228
879.461	24011
879.588	24129
879.715	24140
879.842	24296
879.97	24152
880.097	23764
880.224	23863
880.351	23859
880.478	23741
880.605	23707
880.732	23703
880.859	24110
880.986	23748
881.112	23832
881.239	23661
881.366	23646
881.493	23448
881.619	23277
881.746	23311
881.872	23383
881.999	23337
882.125	23345
882.252	23391
882.378	23368
882.505	23463
882.631	23204
882.757	23090
882.883	23121
883.01	23041
883.136	22949
883.262	22877
883.388	22790
883.514	22965
883.64	23044
883.766	22824
883.892	22793
884.018	22759
884.143	22957
884.269	22965
884.395	22782
884.52	22710
884.646	22755
884.772	22584
884.897	22451
885.023	22584
885.148	22656
885.274	22683
885.399	22683
885.524	22637
885.65	22634
885.775	22710
885.9	22596
886.025	22710
886.15	22736
886.275	22668
886.4	22512
886.525	22675
886.65	22531
886.775	22516
886.9	22691
887.025	22771
887.149	22451
887.274	22360
887.399	22295
887.523	22394
887.648	22356
887.773	22314
887.897	22478
888.021	22386
888.146	22402
888.27	22611
888.395	22535
888.519	22436
888.643	22436
888.767	22405
888.891	22249
889.015	22188
889.139	22234
889.263	22150
889.387	22249
889.511	22363
889.635	22306
889.759	22109
889.883	22169
890.006	22135
890.13	22230
890.254	22169
890.377	22135
890.501	21934
890.624	21945
890.748	21895
890.871	21816
890.995	21728
891.118	21679
891.241	21861
891.364	21720
891.488	21865
891.611	21614
891.734	21698
891.857	21717
891.98	21728
892.103	21675
892.226	21713
892.349	21622
892.471	21549
892.594	21595
892.717	21652
892.839	21637
892.962	21641
893.085	21561
893.207	21637
893.33	21553
893.452	21511
893.575	21679
893.697	21523
893.819	21682
893.941	21808
894.064	21751
894.186	21492
894.308	21496
894.43	21755
894.552	21610
894.674	21682
894.796	21580
894.918	21618
895.04	21595
895.161	21717
895.283	21671
895.405	21500
895.526	21534
895.648	21690
895.769	21549
895.891	21530
896.012	21679
896.134	21720
896.255	21625
896.376	21466
896.498	21587
896.619	21580
896.74	21374
896.861	21652
896.982	21892
897.103	21941
897.224	21804
897.345	21663
897.466	21728
897.587	21755
897.708	21827
897.828	21755
897.949	21698
898.07	21530
898.19	21572
898.311	21907
898.431	21686
898.552	21709
898.672	21819
898.792	21854
898.913	21739
899.033	21720
899.153	21507
899.273	21351
899.393	21557
899.513	21485
899.633	21568
899.753	21454
899.873	21507
899.993	21454
900.113	21469
900.232	21443
900.352	21294
900.472	21252
900.591	21173
900.711	21252
900.83	21180
900.95	21294
901.069	21363
901.189	21176
901.308	20880
901.427	20758
901.546	20731
901.665	20792
901.784	20834
901.904	20648
902.023	20590
902.141	20438
902.26	20465
902.379	20370
902.498	20221
902.617	20313
902.735	20256
902.854	20256
902.973	20054
903.091	19974
903.21	20020
903.328	19868
903.446	19765
903.565	19753
903.683	19746
903.801	19620
903.919	19780
904.038	19605
904.156	19540
904.274	19578
904.392	19514
904.51	19434
904.627	19407
904.745	19506
904.863	19658
904.981	19270
905.098	19266
905.216	19156
905.334	19293
905.451	19133
905.569	19168
905.686	19114
905.803	19057
905.921	19088
906.038	19145
906.155	18989
906.272	18943
906.389	18817
906.506	18779
906.623	18722
906.74	18749
906.857	18604
906.974	18509
907.091	18703
907.208	18684
907.324	18673
907.441	18582
907.557	18395
907.674	18300
907.79	18437
907.907	18285
908.023	18334
908.139	18429
908.256	18350
908.372	18239
908.488	18201
908.604	18140
908.72	18064
908.836	18163
908.952	18174
909.068	18155
909.184	18205
909.3	18087
909.415	18129
909.531	18068
909.647	17802
909.762	17775
909.878	17676
909.993	17809
910.108	17745
910.224	17737
910.339	17798
910.454	17581
910.57	17589
910.685	17516
910.8	17767
910.915	17661
911.03	17566
911.145	17372
911.259	17379
911.374	17395
911.489	17250
911.604	17223
911.718	17090
911.833	17102
911.947	17083
912.062	16930
912.176	17170
912.291	17166
912.405	17124
912.519	17265
912.633	17364
912.748	17075
912.862	17094
912.976	17003
913.09	16816
913.204	16889
913.318	16927
913.431	16965
913.545	16999
913.659	16904
913.772	16828
913.886	16706
914	16672
914.113	16774
914.226	16797
914.34	16733
914.453	16558
914.566	16748
914.68	16531
914.793	16413
914.906	16508
915.019	16333
915.132	16219
915.245	16295
915.358	16276
915.47	16261
915.583	16253
915.696	16280
915.809	16451
915.921	16360
916.034	16257
916.146	16025
916.259	16040
916.371	16173
916.483	16173
916.595	16021
916.708	16067
916.82	16048
916.932	16207
917.044	16044
917.156	16071
917.268	15930
917.38	15895
917.491	15854
917.603	15934
917.715	15926
917.826	15819
917.938	15846
918.049	15804
918.161	15926
918.272	15956
918.384	15911
918.495	15781
918.606	15542
918.717	15557
918.828	15606
918.939	15599
919.05	15549
919.161	15538
919.272	15454
919.383	15370
919.494	15591
919.604	15812
919.715	15603
919.826	15549
919.936	15466
920.047	15545
920.157	15557
920.267	15770
920.378	15530
920.488	15507
920.598	15648
920.708	15861
920.818	15717
920.928	15690
921.038	15850
921.148	15819
921.258	15538
921.368	15386
921.477	15359
921.587	15287
921.697	15135
921.806	15306
921.916	15123
922.025	14925
922.134	14777
922.244	14792
922.353	14921
922.462	14800
922.571	14686
922.68	14602
922.789	14606
922.898	14621
923.007	14495
923.116	14514
923.224	14522
923.333	14461
923.442	14396
923.55	14404
923.659	14492
923.767	14431
923.876	14244
923.984	14278
924.092	14263
924.201	14301
924.309	14267
924.417	14210
924.525	14183
924.633	14202
924.741	15100
924.849	13978
924.956	14115
925.064	13917
925.172	13879
925.279	13795
925.387	13856
925.494	13887
925.602	13997
925.709	13887
925.816	13742
925.924	13837
926.031	13894
926.138	13830
926.245	13788
926.352	13727
926.459	13871
926.566	13757
926.673	13674
926.779	13674
926.886	13616
926.993	13499
927.099	13388
927.206	13343
927.312	13426
927.419	13453
927.525	13396
927.631	13453
927.737	13327
927.843	13270
927.95	13202
928.056	13183
928.162	13194
928.267	13255
928.373	13715
928.479	13209
928.585	12981
928.69	13164
928.796	13164
928.901	13084
929.007	12905
929.112	13141
929.218	13065
929.323	12882
929.428	12935
929.533	13050
929.638	12973
929.743	12814
929.848	12837
929.953	12890
930.058	12734
930.163	12540
930.267	12623
930.372	12745
930.477	12464
930.581	12688
930.685	12563
930.79	12395
930.894	12471
930.998	12418
931.103	12528
931.207	12114
931.311	12072
931.415	12034
931.519	11847
931.623	11798
