Data from test_V78500241_2121.txt Node
Date: Fri Mar 25 15:56:29 CST 2022
User: usil
Spectrometer: V785-0024
Trigger mode: 0
Integration Time (sec): 4.000000E-1
Scans to average: 1
Nonlinearity correction enabled: false
Boxcar width: 0
Storing dark spectrum: false
XAxis mode: Wavelengths
Number of Pixels in Spectrum: 1024
>>>>>Begin Spectral Data<<<<<
801.071	29033
801.214	28923
801.356	28683
801.499	28603
801.641	28382
801.783	28360
801.926	28660
802.068	28599
802.211	28519
802.353	28466
802.496	28394
802.638	28299
802.78	28120
802.923	28154
803.065	28109
803.208	28249
803.35	28280
803.492	28466
803.635	28478
803.777	28276
803.919	28531
804.061	28919
804.204	28599
804.346	28565
804.488	28462
804.63	28599
804.773	28478
804.915	28573
805.057	28656
805.199	28462
805.341	28580
805.483	28630
805.626	28687
805.768	28577
805.91	28706
806.052	28683
806.194	28592
806.336	28908
806.478	28713
806.62	28649
806.762	28828
806.904	29018
807.046	29223
807.188	29075
807.33	29265
807.472	29212
807.614	29064
807.756	29284
807.898	28980
808.04	29086
808.182	28843
808.324	29044
808.465	28938
808.607	29140
808.749	29334
808.891	29429
809.033	29539
809.174	29512
809.316	29383
809.458	29368
809.6	29372
809.741	29528
809.883	29554
810.025	29733
810.166	29779
810.308	29790
810.45	29600
810.591	29516
810.733	29364
810.875	29410
811.016	29356
811.158	29181
811.299	29471
811.441	29501
811.582	29558
811.724	29436
811.865	29258
812.007	29512
812.148	29334
812.29	29455
812.431	29611
812.573	29764
812.714	29748
812.855	30003
812.997	30045
813.138	30243
813.279	29874
813.421	30095
813.562	29889
813.703	29684
813.845	29596
813.986	29353
814.127	29178
814.268	29086
814.41	29124
814.551	29064
814.692	29197
814.833	29193
814.974	29018
815.115	29098
815.256	29090
815.397	28911
815.539	29037
815.68	29003
815.821	28831
815.962	28942
816.103	28869
816.244	28831
816.385	28805
816.526	28725
816.666	28512
816.807	28363
816.948	28569
817.089	28436
817.23	28607
817.371	28246
817.512	28360
817.653	28382
817.793	28230
817.934	28382
818.075	28542
818.216	28455
818.356	28371
818.497	28348
818.638	28078
818.778	28188
818.919	28147
819.06	28242
819.2	28519
819.341	28550
819.481	28440
819.622	28584
819.762	28774
819.903	28801
820.043	28675
820.184	28679
820.324	28497
820.465	28679
820.605	28489
820.746	28493
820.886	28382
821.026	28637
821.167	28462
821.307	28592
821.447	28348
821.588	28348
821.728	28192
821.868	28101
822.008	28032
822.149	27953
822.289	27854
822.429	27583
822.569	27511
822.709	27538
822.849	27473
822.99	27496
823.13	27504
823.27	27462
823.41	27252
823.55	27135
823.69	27329
823.83	27268
823.97	27272
824.11	27066
824.25	27112
824.389	27020
824.529	27214
824.669	27047
824.809	27298
824.949	27100
825.089	27294
825.228	27100
825.368	26960
825.508	26921
825.648	26956
825.787	27135
825.927	27055
826.067	26883
826.206	26921
826.346	26921
826.485	27108
826.625	27058
826.765	27104
826.904	27150
827.044	26781
827.183	26758
827.323	26674
827.462	26883
827.601	26678
827.741	26655
827.88	26792
828.02	26457
828.159	26724
828.298	26629
828.437	26670
828.577	26651
828.716	26727
828.855	26602
828.994	26423
829.134	26309
829.273	26453
829.412	26404
829.551	26282
829.69	26210
829.829	26492
829.968	26473
830.107	26469
830.246	26301
830.385	26423
830.524	26267
830.663	26343
830.802	26149
830.941	26073
831.08	25982
831.219	25989
831.357	26126
831.496	26229
831.635	25909
831.774	25803
831.913	25727
832.051	25784
832.19	25898
832.329	25799
832.467	25571
832.606	25514
832.744	25487
832.883	25708
833.022	25643
833.16	25514
833.299	25643
833.437	25666
833.576	25727
833.714	25719
833.852	25712
833.991	25761
834.129	25791
834.267	25894
834.406	25677
834.544	25906
834.682	25879
834.821	25613
834.959	25906
835.097	25552
835.235	25712
835.373	25723
835.511	25738
835.65	25643
835.788	25655
835.926	25476
836.064	25464
836.202	25400
836.34	25556
836.478	25674
836.615	25491
836.753	25575
836.891	25616
837.029	25780
837.167	25369
837.305	25426
837.443	25457
837.58	25263
837.718	25422
837.856	25422
837.993	25335
838.131	25388
838.269	25118
838.406	25308
838.544	25236
838.681	24935
838.819	25065
838.956	24852
839.094	24909
839.231	25031
839.369	24992
839.506	25164
839.643	25008
839.781	24901
839.918	24764
840.055	24928
840.193	24833
840.33	24749
840.467	24738
840.604	24749
840.742	24954
840.879	24570
841.016	24551
841.153	24627
841.29	24817
841.427	24867
841.564	24817
841.701	24814
841.838	24631
841.975	24585
842.112	24593
842.249	24631
842.385	24460
842.522	24753
842.659	24528
842.796	24448
842.933	24513
843.069	24376
843.206	24475
843.343	24426
843.479	24578
843.616	24483
843.752	24216
843.889	24289
844.025	24410
844.162	24281
844.298	24304
844.435	24186
844.571	24224
844.708	24213
844.844	24528
844.98	24334
845.117	24273
845.253	24121
845.389	24155
845.525	24079
845.661	24125
845.798	23992
845.934	24114
846.07	23969
846.206	24030
846.342	24114
846.478	24003
846.614	23790
846.75	23718
846.886	23722
847.022	23722
847.158	23703
847.294	23676
847.429	23638
847.565	23661
847.701	23912
847.837	23493
847.972	23307
848.108	23554
848.244	23395
848.379	23258
848.515	23280
848.65	23200
848.786	23303
848.921	23337
849.057	23296
849.192	23471
849.328	23296
849.463	23284
849.598	23273
849.734	23094
849.869	23170
850.004	23166
850.14	23102
850.275	23178
850.41	22862
850.545	22911
850.68	23041
850.815	23075
850.95	23022
851.085	23216
851.22	23200
851.355	23147
851.49	22980
851.625	23048
851.76	23064
851.895	22957
852.03	22995
852.165	23143
852.299	23147
852.434	23113
852.569	23132
852.703	22961
852.838	23102
852.973	23242
853.107	23128
853.242	23044
853.376	22965
853.511	22793
853.645	22744
853.78	22930
853.914	22839
854.048	22828
854.183	22828
854.317	22957
854.451	22911
854.585	22843
854.72	22949
854.854	23022
854.988	22934
855.122	22938
855.256	22748
855.39	22850
855.524	22915
855.658	22900
855.792	22820
855.926	22919
856.06	22942
856.194	23006
856.327	22915
856.461	22706
856.595	22805
856.729	22904
856.862	23083
856.996	22793
857.13	22923
857.263	22850
857.397	22965
857.53	22797
857.664	22949
857.797	22953
857.931	22949
858.064	22949
858.197	22995
858.331	22858
858.464	22812
858.597	22687
858.731	22972
858.864	22759
858.997	22866
859.13	22831
859.263	22831
859.396	22927
859.529	22809
859.662	22752
859.795	22717
859.928	22881
860.061	22946
860.194	23143
860.327	22835
860.46	22957
860.592	23067
860.725	22923
860.858	23033
860.99	22896
861.123	22755
861.256	22812
861.388	22831
861.521	23459
861.653	22656
861.786	22645
861.918	22687
862.05	22691
862.183	22900
862.315	22831
862.447	22847
862.58	22774
862.712	22523
862.844	22588
862.976	22645
863.108	22637
863.24	23029
863.372	22618
863.504	22557
863.636	22512
863.768	22710
863.9	22462
864.032	22424
864.164	22523
864.296	22497
864.428	22634
864.559	22801
864.691	22721
864.823	22481
864.954	22523
865.086	22637
865.217	22409
865.349	22440
865.48	22394
865.612	22417
865.743	22596
865.875	22481
866.006	22424
866.137	22470
866.269	22402
866.4	22451
866.531	22360
866.662	22371
866.793	22287
866.924	22417
867.055	22310
867.186	22287
867.317	22402
867.448	22261
867.579	22409
867.71	22299
867.841	22284
867.972	22348
868.103	22356
868.233	22481
868.364	22318
868.495	22424
868.625	22660
868.756	22637
868.886	22565
869.017	22535
869.147	22774
869.278	22782
869.408	22672
869.539	22519
869.669	22656
869.799	22615
869.929	22774
870.06	22755
870.19	23003
870.32	22919
870.45	22828
870.58	23006
870.71	23159
870.84	23048
870.97	23052
871.1	23067
871.23	23242
871.36	23265
871.489	23113
871.619	23193
871.749	23193
871.879	23239
872.008	23227
872.138	23193
872.267	23204
872.397	23128
872.526	23140
872.656	23033
872.785	23071
872.915	23261
873.044	23277
873.173	23258
873.303	23269
873.432	23349
873.561	23448
873.69	23231
873.819	23204
873.948	23265
874.077	23261
874.206	23143
874.335	23372
874.464	23360
874.593	23425
874.722	23414
874.851	23493
874.979	23474
875.108	23539
875.237	23425
875.365	23368
875.494	23478
875.623	23528
875.751	23429
875.88	23406
876.008	23596
876.136	23505
876.265	23798
876.393	23916
876.521	23878
876.65	23996
876.778	23733
876.906	23726
877.034	23707
877.162	23748
877.29	23665
877.418	23726
877.546	23824
877.674	23836
877.802	23741
877.93	23756
878.058	23680
878.185	23627
878.313	23661
878.441	23699
878.568	23467
878.696	23794
878.824	23779
878.951	23794
879.079	23999
879.206	24125
879.333	23946
879.461	23786
879.588	23996
879.715	23969
879.842	23980
879.97	23836
880.097	23551
880.224	23680
880.351	23676
880.478	23661
880.605	23649
880.732	23486
880.859	23901
880.986	23570
881.112	23623
881.239	23421
881.366	23227
881.493	23227
881.619	23189
881.746	23181
881.872	23124
881.999	23121
882.125	23136
882.252	23132
882.378	23151
882.505	23330
882.631	22957
882.757	22942
882.883	22911
883.01	22816
883.136	22782
883.262	22759
883.388	22607
883.514	22885
883.64	22816
883.766	22687
883.892	22554
884.018	22584
884.143	22736
884.269	22938
884.395	22443
884.52	22394
884.646	22478
884.772	22272
884.897	22196
885.023	22443
885.148	22565
885.274	22402
885.399	22546
885.524	22607
885.65	22451
885.775	22462
885.9	22333
886.025	22390
886.15	22451
886.275	22337
886.4	22409
886.525	22436
886.65	22375
886.775	22459
886.9	22557
887.025	22504
887.149	22390
887.274	22268
887.399	22200
887.523	22139
887.648	22257
887.773	22215
887.897	22211
888.021	22207
888.146	22101
888.27	22219
888.395	22226
888.519	22200
888.643	22215
888.767	22162
888.891	22101
889.015	21953
889.139	21975
889.263	21979
889.387	22093
889.511	22226
889.635	21987
889.759	21975
889.883	21998
890.006	21895
890.13	22036
890.254	21934
890.377	21918
890.501	21679
890.624	21667
890.748	21785
890.871	21667
890.995	21530
891.118	21477
891.241	21488
891.364	21591
891.488	21720
891.611	21492
891.734	21488
891.857	21599
891.98	21652
892.103	21603
892.226	21542
892.349	21397
892.471	21363
892.594	21435
892.717	21405
892.839	21397
892.962	21287
893.085	21561
893.207	21431
893.33	21279
893.452	21340
893.575	21431
893.697	21313
893.819	21485
893.941	21694
894.064	21492
894.186	21435
894.308	21355
894.43	21504
894.552	21564
894.674	21408
894.796	21252
894.918	21302
895.04	21424
895.161	21431
895.283	21313
895.405	21294
895.526	21424
895.648	21351
895.769	21507
895.891	21443
896.012	21428
896.134	21469
896.255	21420
896.376	21313
896.498	21348
896.619	21439
896.74	21351
896.861	21443
896.982	21698
897.103	21751
897.224	21652
897.345	21504
897.466	21492
897.587	21454
897.708	21629
897.828	21656
897.949	21462
898.07	21447
898.19	21428
898.311	21682
898.431	21519
898.552	21477
898.672	21625
898.792	21622
898.913	21633
899.033	21492
899.153	21351
899.273	21211
899.393	21291
899.513	21386
899.633	21283
899.753	21325
899.873	21252
899.993	21389
900.113	21245
900.232	21264
900.352	21226
900.472	21070
900.591	21043
900.711	21146
900.83	21119
900.95	21074
901.069	21070
901.189	20918
901.308	20720
901.427	20575
901.546	20564
901.665	20606
901.784	20670
901.904	20564
902.023	20393
902.141	20267
902.26	20164
902.379	20142
902.498	20115
902.617	20096
902.735	20183
902.854	20103
902.973	19989
903.091	19746
903.21	19734
903.328	19803
903.446	19662
903.565	19518
903.683	19685
903.801	19487
903.919	19559
904.038	19518
904.156	19384
904.274	19476
904.392	19377
904.51	19343
904.627	19263
904.745	19320
904.863	19365
904.981	19202
905.098	19034
905.216	18970
905.334	18996
905.451	18970
905.569	19031
905.686	18985
905.803	18924
905.921	18810
906.038	18890
906.155	18905
906.272	18604
906.389	18661
906.506	18597
906.623	18513
906.74	18494
906.857	18338
906.974	18403
907.091	18669
907.208	18582
907.324	18490
907.441	18399
907.557	18277
907.674	18243
907.79	18190
907.907	18125
908.023	18228
908.139	18262
908.256	18167
908.372	18114
908.488	18102
908.604	18034
908.72	17969
908.836	17977
908.952	17904
909.068	17942
909.184	17999
909.3	17908
909.415	18015
909.531	17870
909.647	17691
909.762	17638
909.878	17528
909.993	17687
910.108	17627
910.224	17570
910.339	17657
910.454	17619
910.57	17414
910.685	17311
910.8	17699
910.915	17421
911.03	17334
911.145	17246
911.259	17254
911.374	17246
911.489	17155
911.604	17067
911.718	16976
911.833	16984
911.947	16828
912.062	16774
912.176	16984
912.291	16869
912.405	16927
912.519	17181
912.633	17086
912.748	16953
912.862	16892
912.976	16683
913.09	16668
913.204	16702
913.318	16782
913.431	16793
913.545	16755
913.659	16908
913.772	16649
913.886	16550
914	16485
914.113	16603
914.226	16672
914.34	16596
914.453	16417
914.566	16645
914.68	16379
914.793	16356
914.906	16150
915.019	16166
915.132	16154
915.245	16097
915.358	16116
915.47	16166
915.583	16143
915.696	16109
915.809	16223
915.921	16253
916.034	15972
916.146	16010
916.259	15979
916.371	16162
916.483	16063
916.595	15899
916.708	15861
916.82	15941
916.932	15857
917.044	15922
917.156	15827
917.268	15652
917.38	15656
917.491	15648
917.603	15747
917.715	15827
917.826	15823
917.938	15682
918.049	15545
918.161	15610
918.272	15785
918.384	15724
918.495	15603
918.606	15492
918.717	15439
918.828	15416
918.939	15344
919.05	15408
919.161	15386
919.272	15237
919.383	15275
919.494	15485
919.604	15675
919.715	15458
919.826	15237
919.936	15393
920.047	15393
920.157	15439
920.267	15572
920.378	15397
920.488	15363
920.598	15587
920.708	15549
920.818	15542
920.928	15572
921.038	15701
921.148	15644
921.258	15310
921.368	15173
921.477	15131
921.587	15207
921.697	14979
921.806	15055
921.916	15017
922.025	14826
922.134	14785
922.244	14663
922.353	14819
922.462	14598
922.571	14488
922.68	14427
922.789	14374
922.898	14366
923.007	14332
923.116	14313
923.224	14317
923.333	14336
923.442	14195
923.55	14153
923.659	14282
923.767	14240
923.876	14161
923.984	14176
924.092	14024
924.201	14157
924.309	14069
924.417	14138
924.525	13955
924.633	14039
924.741	14689
924.849	13780
924.956	13974
925.064	13769
925.172	13643
925.279	13738
925.387	13826
925.494	13769
925.602	13856
925.709	13734
925.816	13655
925.924	13643
926.031	13700
926.138	13681
926.245	13776
926.352	13624
926.459	13765
926.566	13746
926.673	13575
926.779	13525
926.886	13552
926.993	13346
927.099	13373
927.206	13339
927.312	13255
927.419	13335
927.525	13301
927.631	13362
927.737	13206
927.843	13168
927.95	12958
928.056	13050
928.162	13126
928.267	13152
928.373	13826
928.479	13099
928.585	12962
928.69	13133
928.796	13107
928.901	12996
929.007	12844
929.112	13027
929.218	12924
929.323	12863
929.428	12897
929.533	12886
929.638	12734
929.743	12707
929.848	12886
929.953	12798
930.058	12684
930.163	12498
930.267	12544
930.372	12654
930.477	12494
930.581	12722
930.685	12547
930.79	12429
930.894	12365
930.998	12414
931.103	12551
931.207	12091
931.311	11999
931.415	11935
931.519	11798
931.623	11703
