Data from test_V78500241_1954.txt Node
Date: Fri Mar 25 15:55:20 CST 2022
User: usil
Spectrometer: V785-0024
Trigger mode: 0
Integration Time (sec): 4.000000E-1
Scans to average: 1
Nonlinearity correction enabled: false
Boxcar width: 0
Storing dark spectrum: false
XAxis mode: Wavelengths
Number of Pixels in Spectrum: 1024
>>>>>Begin Spectral Data<<<<<
801.071	28584
801.214	28759
801.356	28421
801.499	28409
801.641	28287
801.783	28261
801.926	28474
802.068	28112
802.211	28303
802.353	28261
802.496	28006
802.638	28044
802.78	27949
802.923	27983
803.065	27808
803.208	27934
803.35	28093
803.492	28040
803.635	28226
803.777	28154
803.919	28291
804.061	28618
804.204	28177
804.346	28055
804.488	28181
804.63	28230
804.773	28131
804.915	28409
805.057	28394
805.199	28268
805.341	28287
805.483	28363
805.626	28417
805.768	28188
805.91	28405
806.052	28523
806.194	28192
806.336	28451
806.478	28382
806.62	28325
806.762	28653
806.904	28717
807.046	28984
807.188	28862
807.33	28736
807.472	28972
807.614	28915
807.756	28767
807.898	28812
808.04	28656
808.182	28637
808.324	28850
808.465	28869
808.607	28972
808.749	29113
808.891	29231
809.033	29277
809.174	29140
809.316	29136
809.458	29140
809.6	28991
809.741	29181
809.883	29121
810.025	29349
810.166	29345
810.308	29364
810.45	29356
810.591	29208
810.733	29166
810.875	29060
811.016	29033
811.158	28968
811.299	29220
811.441	29303
811.582	29235
811.724	29090
811.865	29136
812.007	29064
812.148	29254
812.29	29075
812.431	29307
812.573	29433
812.714	29543
812.855	29630
812.997	29794
813.138	29855
813.279	29756
813.421	29798
813.562	29585
813.703	29383
813.845	29303
813.986	29113
814.127	28923
814.268	28847
814.41	28801
814.551	28801
814.692	28778
814.833	28854
814.974	28675
815.115	28763
815.256	28713
815.397	28615
815.539	28656
815.68	28481
815.821	28466
815.962	28573
816.103	28573
816.244	28569
816.385	28428
816.526	28356
816.666	28306
816.807	28211
816.948	28371
817.089	28158
817.23	28223
817.371	28177
817.512	28101
817.653	28059
817.793	28051
817.934	28059
818.075	28010
818.216	28082
818.356	28109
818.497	27972
818.638	27941
818.778	27812
818.919	27797
819.06	27880
819.2	28021
819.341	28002
819.481	28090
819.622	28318
819.762	28447
819.903	28318
820.043	28295
820.184	28265
820.324	28249
820.465	28322
820.605	28185
820.746	28090
820.886	28105
821.026	28177
821.167	28249
821.307	28295
821.447	28135
821.588	28105
821.728	27926
821.868	27774
822.008	27652
822.149	27694
822.289	27583
822.429	27252
822.569	27291
822.709	27252
822.849	27207
822.99	27226
823.13	27009
823.27	27222
823.41	26849
823.55	26845
823.69	27104
823.83	26902
823.97	26823
824.11	26765
824.25	26701
824.389	26823
824.529	26986
824.669	26899
824.809	26982
824.949	26891
825.089	27028
825.228	26899
825.368	26686
825.508	26526
825.648	26701
825.787	26678
825.927	26644
826.067	26686
826.206	26765
826.346	26727
826.485	26629
826.625	26659
826.765	26606
826.904	26670
827.044	26442
827.183	26412
827.323	26248
827.462	26408
827.601	26423
827.741	26423
827.88	26317
828.02	26263
828.159	26214
828.298	26377
828.437	26461
828.577	26301
828.716	26492
828.855	26180
828.994	25917
829.134	26001
829.273	26096
829.412	26077
829.551	25883
829.69	25966
829.829	26126
829.968	26130
830.107	26107
830.246	25913
830.385	25902
830.524	25982
830.663	25925
830.802	25681
830.941	25521
831.08	25647
831.219	25635
831.357	25704
831.496	25784
831.635	25609
831.774	25502
831.913	25529
832.051	25392
832.19	25411
832.329	25403
832.467	25396
832.606	25282
832.744	25240
832.883	25293
833.022	25358
833.16	25270
833.299	25400
833.437	25247
833.576	25510
833.714	25441
833.852	25438
833.991	25346
834.129	25578
834.267	25232
834.406	25354
834.544	25384
834.682	25449
834.821	25285
834.959	25533
835.097	25297
835.235	25457
835.373	25232
835.511	25381
835.65	25282
835.788	25129
835.926	25042
836.064	25012
836.202	25061
836.34	25217
836.478	25266
836.615	25171
836.753	25107
836.891	25251
837.029	25221
837.167	25114
837.305	25023
837.443	25031
837.58	24920
837.718	25076
837.856	25038
837.993	25107
838.131	25137
838.269	24779
838.406	24947
838.544	24783
838.681	24608
838.819	24566
838.956	24437
839.094	24414
839.231	24490
839.369	24559
839.506	24856
839.643	24646
839.781	24486
839.918	24311
840.055	24441
840.193	24559
840.33	24517
840.467	24486
840.604	24456
840.742	24608
840.879	24213
841.016	24357
841.153	24243
841.29	24513
841.427	24296
841.564	24418
841.701	24418
841.838	24254
841.975	24182
842.112	24380
842.249	24266
842.385	24213
842.522	24350
842.659	24125
842.796	24095
842.933	24281
843.069	24083
843.206	24083
843.343	24266
843.479	24121
843.616	24072
843.752	23775
843.889	23980
844.025	24060
844.162	23969
844.298	23958
844.435	23916
844.571	23992
844.708	23889
844.844	24026
844.98	24015
845.117	24026
845.253	23813
845.389	23646
845.525	23893
845.661	23707
845.798	23649
845.934	23657
846.07	23463
846.206	23710
846.342	23741
846.478	23608
846.614	23474
846.75	23368
846.886	23334
847.022	23528
847.158	23368
847.294	23444
847.429	23345
847.565	23349
847.701	23615
847.837	23185
847.972	23025
848.108	23227
848.244	23181
848.379	23094
848.515	22816
848.65	22896
848.786	23056
848.921	22946
849.057	23060
849.192	23136
849.328	23014
849.463	22961
849.598	22850
849.734	22793
849.869	22729
850.004	22782
850.14	22710
850.275	22694
850.41	22634
850.545	22538
850.68	22660
850.815	22713
850.95	22607
851.085	22805
851.22	22782
851.355	22847
851.49	22611
851.625	22622
851.76	22702
851.895	22637
852.03	22561
852.165	22801
852.299	22797
852.434	22809
852.569	22755
852.703	22683
852.838	22740
852.973	22854
853.107	22820
853.242	22717
853.376	22512
853.511	22424
853.645	22424
853.78	22736
853.914	22470
854.048	22573
854.183	22478
854.317	22580
854.451	22698
854.585	22557
854.72	22634
854.854	22634
854.988	22504
855.122	22455
855.256	22371
855.39	22485
855.524	22504
855.658	22516
855.792	22611
855.926	22508
856.06	22459
856.194	22451
856.327	22561
856.461	22382
856.595	22504
856.729	22440
856.862	22626
856.996	22626
857.13	22538
857.263	22596
857.397	22489
857.53	22466
857.664	22569
857.797	22618
857.931	22645
858.064	22428
858.197	22596
858.331	22478
858.464	22402
858.597	22428
858.731	22557
858.864	22618
858.997	22432
859.13	22546
859.263	22424
859.396	22569
859.529	22470
859.662	22405
859.795	22493
859.928	22550
860.061	22687
860.194	22790
860.327	22580
860.46	22573
860.592	22687
860.725	22698
860.858	22634
860.99	22577
861.123	22424
861.256	22516
861.388	22470
861.521	23296
861.653	22481
861.786	22337
861.918	22272
862.05	22478
862.183	22531
862.315	22451
862.447	22497
862.58	22443
862.712	22272
862.844	22188
862.976	22306
863.108	22299
863.24	22702
863.372	22093
863.504	22185
863.636	22135
863.768	22226
863.9	22306
864.032	22067
864.164	22158
864.296	22192
864.428	22360
864.559	22249
864.691	22242
864.823	22360
864.954	22162
865.086	22246
865.217	22139
865.349	22048
865.48	22059
865.612	22166
865.743	22234
865.875	22192
866.006	22086
866.137	22162
866.269	22093
866.4	22116
866.531	22067
866.662	21991
866.793	22040
866.924	22097
867.055	22109
867.186	22112
867.317	21922
867.448	21953
867.579	22120
867.71	21895
867.841	21953
867.972	22048
868.103	21960
868.233	22048
868.364	22017
868.495	22105
868.625	22257
868.756	22306
868.886	22310
869.017	22356
869.147	22405
869.278	22459
869.408	22306
869.539	22234
869.669	22363
869.799	22344
869.929	22363
870.06	22405
870.19	22622
870.32	22523
870.45	22634
870.58	22580
870.71	22866
870.84	22729
870.97	22710
871.1	22630
871.23	22843
871.36	22877
871.489	22869
871.619	22839
871.749	22911
871.879	22949
872.008	22999
872.138	22934
872.267	22919
872.397	22892
872.526	22752
872.656	22679
872.785	22626
872.915	22866
873.044	22904
873.173	22991
873.303	22885
873.432	22995
873.561	23052
873.69	22881
873.819	22900
873.948	22953
874.077	22801
874.206	22828
874.335	22934
874.464	22908
874.593	23113
874.722	23075
874.851	23124
874.979	23117
875.108	23250
875.237	23056
875.365	22972
875.494	23083
875.623	23159
875.751	22987
875.88	23105
876.008	23117
876.136	23258
876.265	23577
876.393	23615
876.521	23520
876.65	23604
876.778	23497
876.906	23531
877.034	23482
877.162	23356
877.29	23440
877.418	23512
877.546	23535
877.674	23478
877.802	23455
877.93	23379
878.058	23398
878.185	23208
878.313	23531
878.441	23448
878.568	23288
878.696	23467
878.824	23524
878.951	23547
879.079	23516
879.206	23783
879.333	23585
879.461	23410
879.588	23619
879.715	23570
879.842	23783
879.97	23615
880.097	23292
880.224	23284
880.351	23318
880.478	23360
880.605	23235
880.732	23185
880.859	23573
880.986	23200
881.112	23246
881.239	23128
881.366	22904
881.493	22885
881.619	22797
881.746	22873
881.872	22866
881.999	22786
882.125	22805
882.252	22862
882.378	22729
882.505	22820
882.631	22672
882.757	22596
882.883	22687
883.01	22508
883.136	22485
883.262	22329
883.388	22310
883.514	22535
883.64	22519
883.766	22436
883.892	22238
884.018	22386
884.143	22436
884.269	22470
884.395	22333
884.52	22078
884.646	22109
884.772	22105
884.897	22105
885.023	22204
885.148	22356
885.274	22261
885.399	22158
885.524	22090
885.65	22128
885.775	22067
885.9	22032
886.025	22192
886.15	22303
886.275	22021
886.4	21987
886.525	22166
886.65	22070
886.775	22112
886.9	22120
887.025	22234
887.149	22006
887.274	21918
887.399	21797
887.523	21907
887.648	21865
887.773	21827
887.897	21968
888.021	21835
888.146	21789
888.27	21926
888.395	21934
888.519	21937
888.643	21797
888.767	21911
888.891	21819
889.015	21667
889.139	21717
889.263	21557
889.387	21717
889.511	21918
889.635	21800
889.759	21576
889.883	21644
890.006	21766
890.13	21739
890.254	21583
890.377	21633
890.501	21469
890.624	21401
890.748	21389
890.871	21340
890.995	21176
891.118	21138
891.241	21249
891.364	21256
891.488	21291
891.611	21226
891.734	21237
891.857	21325
891.98	21123
892.103	21211
892.226	21184
892.349	21077
892.471	20952
892.594	21062
892.717	21089
892.839	21093
892.962	21085
893.085	21184
893.207	21131
893.33	20979
893.452	21093
893.575	21112
893.697	21009
893.819	21321
893.941	21287
894.064	21199
894.186	21089
894.308	21013
894.43	21173
894.552	21169
894.674	21180
894.796	20910
894.918	21112
895.04	20998
895.161	21146
895.283	21218
895.405	21058
895.526	21093
895.648	21055
895.769	21199
895.891	21066
896.012	21112
896.134	21112
896.255	21169
896.376	21093
896.498	20982
896.619	21180
896.74	21108
896.861	21066
896.982	21401
897.103	21485
897.224	21325
897.345	21344
897.466	21146
897.587	21416
897.708	21424
897.828	21260
897.949	21279
898.07	21108
898.19	21226
898.311	21401
898.431	21317
898.552	21367
898.672	21378
898.792	21340
898.913	21150
899.033	21199
899.153	21169
899.273	21058
899.393	20975
899.513	21070
899.633	21036
899.753	21043
899.873	20929
899.993	21119
900.113	20963
900.232	21043
900.352	20750
900.472	20830
900.591	20754
900.711	20769
900.83	20773
900.95	20883
901.069	20845
901.189	20606
901.308	20492
901.427	20389
901.546	20294
901.665	20336
901.784	20377
901.904	20214
902.023	20161
902.141	19898
902.26	19944
902.379	19887
902.498	19875
902.617	19921
902.735	19909
902.854	19788
902.973	19780
903.091	19518
903.21	19529
903.328	19381
903.446	19483
903.565	19411
903.683	19339
903.801	19133
903.919	19320
904.038	19091
904.156	19065
904.274	19160
904.392	19099
904.51	19012
904.627	19061
904.745	19164
904.863	19126
904.981	18878
905.098	18734
905.216	18753
905.334	18856
905.451	18741
905.569	18749
905.686	18802
905.803	18654
905.921	18521
906.038	18700
906.155	18631
906.272	18414
906.389	18441
906.506	18273
906.623	18216
906.74	18213
906.857	18072
906.974	18235
907.091	18308
907.208	18323
907.324	18315
907.441	18155
907.557	17961
907.674	17988
907.79	17992
907.907	17992
908.023	18007
908.139	17931
908.256	17901
908.372	17874
908.488	17813
908.604	17794
908.72	17714
908.836	17619
908.952	17676
909.068	17748
909.184	17798
909.3	17733
909.415	17684
909.531	17623
909.647	17444
909.762	17448
909.878	17383
909.993	17414
910.108	17318
910.224	17349
910.339	17204
910.454	17235
910.57	17128
910.685	17151
910.8	17322
910.915	17322
911.03	17128
911.145	17045
911.259	16869
911.374	16987
911.489	17006
911.604	16820
911.718	16790
911.833	16763
911.947	16656
912.062	16721
912.176	16763
912.291	16755
912.405	16736
912.519	16946
912.633	16900
912.748	16729
912.862	16618
912.976	16596
913.09	16417
913.204	16481
913.318	16531
913.431	16618
913.545	16618
913.659	16546
913.772	16390
913.886	16291
914	16280
914.113	16405
914.226	16466
914.34	16344
914.453	16192
914.566	16318
914.68	16196
914.793	16051
914.906	15998
915.019	15945
915.132	15774
915.245	15823
915.358	15911
915.47	15880
915.583	15876
915.696	15918
915.809	15972
915.921	16067
916.034	15831
916.146	15819
916.259	15781
916.371	15808
916.483	15846
916.595	15751
916.708	15736
916.82	15614
916.932	15606
917.044	15667
917.156	15545
917.268	15584
917.38	15576
917.491	15469
917.603	15401
917.715	15572
917.826	15561
917.938	15355
918.049	15283
918.161	15336
918.272	15568
918.384	15568
918.495	15367
918.606	15310
918.717	15123
918.828	15306
918.939	15336
919.05	15214
919.161	15192
919.272	15070
919.383	15093
919.494	15226
919.604	15393
919.715	15169
919.826	15214
919.936	15218
920.047	15241
920.157	15294
920.267	15401
920.378	15161
920.488	15123
920.598	15363
920.708	15504
920.818	15332
920.928	15325
921.038	15523
921.148	15485
921.258	15173
921.368	15116
921.477	14918
921.587	14918
921.697	14845
921.806	14906
921.916	14769
922.025	14579
922.134	14655
922.244	14511
922.353	14583
922.462	14438
922.571	14389
922.68	14233
922.789	14233
922.898	14111
923.007	14138
923.116	14313
923.224	14199
923.333	14069
923.442	13955
923.55	14005
923.659	14046
923.767	14103
923.876	13871
923.984	14088
924.092	13830
924.201	13902
924.309	13913
924.417	13841
924.525	13845
924.633	13803
924.741	14819
924.849	13647
924.956	13674
925.064	13594
925.172	13571
925.279	13643
925.387	13628
925.494	13590
925.602	13624
925.709	13605
925.816	13430
925.924	13582
926.031	13556
926.138	13521
926.245	13567
926.352	13453
926.459	13502
926.566	13586
926.673	13510
926.779	13354
926.886	13247
926.993	13118
927.099	13206
927.206	13050
927.312	13008
927.419	13129
927.525	13076
927.631	13088
927.737	13053
927.843	13019
927.95	12856
928.056	12848
928.162	12973
928.267	12962
928.373	13514
928.479	12985
928.585	12684
928.69	12916
928.796	12966
928.901	12715
929.007	12677
929.112	12772
929.218	12821
929.323	12642
929.428	12608
929.533	12791
929.638	12502
929.743	12544
929.848	12593
929.953	12662
930.058	12384
930.163	12300
930.267	12323
930.372	12460
930.477	12270
930.581	12456
930.685	12372
930.79	12232
930.894	12205
930.998	12171
931.103	12281
931.207	11923
931.311	11843
931.415	11752
931.519	11551
931.623	11520
