Data from test_V78500241_640.txt Node
Date: Fri Mar 25 15:46:14 CST 2022
User: usil
Spectrometer: V785-0024
Trigger mode: 0
Integration Time (sec): 4.000000E-1
Scans to average: 1
Nonlinearity correction enabled: false
Boxcar width: 0
Storing dark spectrum: false
XAxis mode: Wavelengths
Number of Pixels in Spectrum: 1024
>>>>>Begin Spectral Data<<<<<
801.071	27416
801.214	27355
801.356	27096
801.499	26906
801.641	26788
801.783	26880
801.926	26853
802.068	26876
802.211	26857
802.353	26682
802.496	26571
802.638	26594
802.78	26404
802.923	26438
803.065	26473
803.208	26594
803.35	26446
803.492	26579
803.635	26724
803.777	26465
803.919	26651
804.061	26948
804.204	26602
804.346	26606
804.488	26518
804.63	26594
804.773	26575
804.915	26785
805.057	26853
805.199	26644
805.341	26762
805.483	26735
805.626	26807
805.768	26716
805.91	26750
806.052	26891
806.194	26880
806.336	27047
806.478	26937
806.62	26750
806.762	26952
806.904	27089
807.046	27310
807.188	27199
807.33	27100
807.472	27355
807.614	27241
807.756	27230
807.898	27009
808.04	27108
808.182	27017
808.324	26952
808.465	27005
808.607	27268
808.749	27530
808.891	27481
809.033	27458
809.174	27462
809.316	27447
809.458	27321
809.6	27481
809.741	27633
809.883	27625
810.025	27641
810.166	27561
810.308	27595
810.45	27515
810.591	27553
810.733	27374
810.875	27485
811.016	27348
811.158	27275
811.299	27648
811.441	27572
811.582	27656
811.724	27500
811.865	27477
812.007	27302
812.148	27370
812.29	27420
812.431	27644
812.573	27842
812.714	27762
812.855	27899
812.997	28116
813.138	28169
813.279	28181
813.421	27934
813.562	28040
813.703	27800
813.845	27698
813.986	27416
814.127	27180
814.268	27024
814.41	27176
814.551	27066
814.692	27226
814.833	27066
814.974	27131
815.115	26944
815.256	27039
815.397	26963
815.539	26967
815.68	26857
815.821	26819
815.962	26929
816.103	26727
816.244	26819
816.385	26724
816.526	26594
816.666	26587
816.807	26400
816.948	26507
817.089	26522
817.23	26419
817.371	26328
817.512	26282
817.653	26362
817.793	26313
817.934	26362
818.075	26267
818.216	26396
818.356	26233
818.497	26218
818.638	26119
818.778	26020
818.919	26134
819.06	26176
819.2	26332
819.341	26313
819.481	26202
819.622	26465
819.762	26606
819.903	26769
820.043	26632
820.184	26552
820.324	26412
820.465	26507
820.605	26469
820.746	26621
820.886	26412
821.026	26336
821.167	26518
821.307	26400
821.447	26457
821.588	26191
821.728	26332
821.868	26134
822.008	25902
822.149	25753
822.289	25974
822.429	25586
822.569	25499
822.709	25537
822.849	25388
822.99	25362
823.13	25365
823.27	25304
823.41	25057
823.55	25038
823.69	25168
823.83	25110
823.97	25129
824.11	24970
824.25	24871
824.389	25012
824.529	24973
824.669	24894
824.809	25183
824.949	25160
825.089	25114
825.228	25023
825.368	24875
825.508	24810
825.648	24981
825.787	24833
825.927	24859
826.067	24787
826.206	24787
826.346	24996
826.485	24840
826.625	24817
826.765	24913
826.904	24867
827.044	24433
827.183	24585
827.323	24448
827.462	24623
827.601	24494
827.741	24601
827.88	24597
828.02	24437
828.159	24445
828.298	24426
828.437	24582
828.577	24475
828.716	24642
828.855	24464
828.994	24174
829.134	24285
829.273	24330
829.412	24243
829.551	24098
829.69	24098
829.829	24243
829.968	24403
830.107	24353
830.246	24167
830.385	24174
830.524	24106
830.663	24026
830.802	23935
830.941	23851
831.08	23672
831.219	24030
831.357	23840
831.496	24015
831.635	23783
831.774	23668
831.913	23630
832.051	23585
832.19	23733
832.329	23551
832.467	23455
832.606	23551
832.744	23497
832.883	23493
833.022	23379
833.16	23638
833.299	23524
833.437	23516
833.576	23653
833.714	23676
833.852	23665
833.991	23623
834.129	23581
834.267	23668
834.406	23687
834.544	23551
834.682	23531
834.821	23505
834.959	23729
835.097	23562
835.235	23577
835.373	23554
835.511	23608
835.65	23322
835.788	23368
835.926	23280
836.064	23178
836.202	23220
836.34	23455
836.478	23623
836.615	23337
836.753	23299
836.891	23501
837.029	23364
837.167	23254
837.305	23242
837.443	23334
837.58	23288
837.718	23322
837.856	23280
837.993	23189
838.131	23181
838.269	23235
838.406	23239
838.544	23006
838.681	23025
838.819	22763
838.956	22736
839.094	22740
839.231	22653
839.369	22961
839.506	23090
839.643	22980
839.781	22771
839.918	22615
840.055	22702
840.193	22634
840.33	22672
840.467	22672
840.604	22748
840.742	22923
840.879	22557
841.016	22702
841.153	22485
841.29	22645
841.427	22634
841.564	22596
841.701	22634
841.838	22500
841.975	22618
842.112	22459
842.249	22478
842.385	22333
842.522	22717
842.659	22455
842.796	22421
842.933	22371
843.069	22398
843.206	22333
843.343	22474
843.479	22462
843.616	22337
843.752	22177
843.889	22249
844.025	22276
844.162	22116
844.298	22230
844.435	22116
844.571	22131
844.708	22322
844.844	22333
844.98	22386
845.117	22246
845.253	22112
845.389	22154
845.525	22128
845.661	22048
845.798	21888
845.934	22040
846.07	21926
846.206	21861
846.342	21998
846.478	21930
846.614	21838
846.75	21625
846.886	21526
847.022	21690
847.158	21671
847.294	21580
847.429	21656
847.565	21557
847.701	21949
847.837	21443
847.972	21291
848.108	21332
848.244	21348
848.379	21336
848.515	21184
848.65	21161
848.786	21192
848.921	21207
849.057	21287
849.192	21359
849.328	21329
849.463	21275
849.598	21249
849.734	21085
849.869	20948
850.004	21039
850.14	21119
850.275	20963
850.41	20948
850.545	20861
850.68	20895
850.815	20967
850.95	20868
851.085	21260
851.22	21020
851.355	21013
851.49	20937
851.625	21020
851.76	20948
851.895	20887
852.03	20891
852.165	20933
852.299	20979
852.434	21154
852.569	20975
852.703	20963
852.838	21089
852.973	21093
853.107	21104
853.242	20933
853.376	20883
853.511	20682
853.645	20724
853.78	20929
853.914	20861
854.048	20689
854.183	20686
854.317	20712
854.451	21009
854.585	20823
854.72	20899
854.854	20876
854.988	20823
855.122	20895
855.256	20636
855.39	20777
855.524	20887
855.658	20800
855.792	20800
855.926	20998
856.06	20823
856.194	20883
856.327	20754
856.461	20777
856.595	20765
856.729	20883
856.862	20998
856.996	20864
857.13	20944
857.263	20887
857.397	20948
857.53	20883
857.664	20842
857.797	20910
857.931	20853
858.064	20864
858.197	20830
858.331	20781
858.464	20765
858.597	20621
858.731	20815
858.864	20750
858.997	20746
859.13	20826
859.263	20823
859.396	20910
859.529	20796
859.662	20804
859.795	20811
859.928	20918
860.061	21024
860.194	21024
860.327	20902
860.46	20724
860.592	21013
860.725	20861
860.858	20998
860.99	20857
861.123	20750
861.256	20819
861.388	20887
861.521	21389
861.653	20686
861.786	20579
861.918	20739
862.05	20579
862.183	20743
862.315	20670
862.447	20872
862.58	20739
862.712	20503
862.844	20568
862.976	20602
863.108	20518
863.24	20807
863.372	20465
863.504	20526
863.636	20552
863.768	20625
863.9	20511
864.032	20457
864.164	20503
864.296	20609
864.428	20602
864.559	20587
864.691	20609
864.823	20564
864.954	20461
865.086	20507
865.217	20484
865.349	20275
865.48	20454
865.612	20385
865.743	20571
865.875	20446
866.006	20377
866.137	20461
866.269	20427
866.4	20370
866.531	20438
866.662	20336
866.793	20461
866.924	20294
867.055	20328
867.186	20278
867.317	20362
867.448	20271
867.579	20339
867.71	20313
867.841	20309
867.972	20396
868.103	20351
868.233	20210
868.364	20450
868.495	20400
868.625	20549
868.756	20613
868.886	20454
869.017	20587
869.147	20727
869.278	20800
869.408	20518
869.539	20613
869.669	20564
869.799	20720
869.929	20716
870.06	20754
870.19	20823
870.32	20998
870.45	20963
870.58	21116
870.71	21096
870.84	21161
870.97	21062
871.1	21043
871.23	21230
871.36	21287
871.489	21005
871.619	21203
871.749	21199
871.879	21287
872.008	21443
872.138	21108
872.267	21188
872.397	21017
872.526	21043
872.656	21074
872.785	20941
872.915	21279
873.044	21317
873.173	21233
873.303	21389
873.432	21268
873.561	21351
873.69	21367
873.819	21119
873.948	21184
874.077	21211
874.206	21310
874.335	21123
874.464	21291
874.593	21477
874.722	21405
874.851	21622
874.979	21469
875.108	21667
875.237	21306
875.365	21431
875.494	21336
875.623	21397
875.751	21367
875.88	21561
876.008	21743
876.136	21641
876.265	21789
876.393	22002
876.521	21876
876.65	21850
876.778	21884
876.906	21934
877.034	21797
877.162	21835
877.29	21759
877.418	21827
877.546	21819
877.674	21679
877.802	21682
877.93	21766
878.058	21816
878.185	21709
878.313	21766
878.441	21762
878.568	21660
878.696	21724
878.824	21831
878.951	21880
879.079	22036
879.206	22048
879.333	21949
879.461	21903
879.588	21922
879.715	21994
879.842	21956
879.97	21922
880.097	21576
880.224	21625
880.351	21591
880.478	21603
880.605	21713
880.732	21667
880.859	21838
880.986	21637
881.112	21679
881.239	21355
881.366	21564
881.493	21310
881.619	21313
881.746	21325
881.872	21268
881.999	21283
882.125	21233
882.252	21249
882.378	21203
882.505	21252
882.631	21093
882.757	21017
882.883	21020
883.01	20864
883.136	20929
883.262	20785
883.388	20743
883.514	20933
883.64	21028
883.766	20838
883.892	20697
884.018	20750
884.143	20929
884.269	20971
884.395	20655
884.52	20541
884.646	20571
884.772	20492
884.897	20488
885.023	20564
885.148	20720
885.274	20682
885.399	20594
885.524	20514
885.65	20526
885.775	20545
885.9	20613
886.025	20705
886.15	20727
886.275	20499
886.4	20484
886.525	20473
886.65	20514
886.775	20393
886.9	20678
887.025	20678
887.149	20564
887.274	20313
887.399	20343
887.523	20374
887.648	20176
887.773	20298
887.897	20362
888.021	20366
888.146	20336
888.27	20438
888.395	20465
888.519	20343
888.643	20389
888.767	20358
888.891	20282
889.015	20164
889.139	20164
889.263	20119
889.387	20294
889.511	20313
889.635	20225
889.759	20248
889.883	20096
890.006	20077
890.13	20396
890.254	19997
890.377	20054
890.501	19951
890.624	19921
890.748	19917
890.871	19788
890.995	19635
891.118	19727
891.241	19666
891.364	19757
891.488	19845
891.611	19674
891.734	19674
891.857	19746
891.98	19757
892.103	19826
892.226	19734
892.349	19780
892.471	19552
892.594	19674
892.717	19635
892.839	19677
892.962	19605
893.085	19693
893.207	19620
893.33	19544
893.452	19575
893.575	19685
893.697	19689
893.819	19761
893.941	19788
894.064	19723
894.186	19590
894.308	19658
894.43	19746
894.552	19761
894.674	19803
894.796	19647
894.918	19613
895.04	19647
895.161	19685
895.283	19719
895.405	19635
895.526	19620
895.648	19544
895.769	19674
895.891	19696
896.012	19799
896.134	19708
896.255	19639
896.376	19616
896.498	19552
896.619	19632
896.74	19666
896.861	19734
896.982	20092
897.103	20130
897.224	20005
897.345	19925
897.466	19795
897.587	19883
897.708	19986
897.828	19959
897.949	19864
898.07	19704
898.19	19769
898.311	19982
898.431	19772
898.552	19887
898.672	19917
898.792	19940
898.913	19879
899.033	19719
899.153	19750
899.273	19597
899.393	19677
899.513	19605
899.633	19628
899.753	19746
899.873	19518
899.993	19769
900.113	19662
900.232	19632
900.352	19643
900.472	19575
900.591	19396
900.711	19483
900.83	19285
900.95	19464
901.069	19635
901.189	19312
901.308	19114
901.427	19046
901.546	19099
901.665	19107
901.784	18989
901.904	18882
902.023	18859
902.141	18631
902.26	18597
902.379	18673
902.498	18570
902.617	18521
902.735	18551
902.854	18604
902.973	18502
903.091	18209
903.21	18220
903.328	18228
903.446	18167
903.565	17988
903.683	18011
903.801	17843
903.919	17950
904.038	17996
904.156	17703
904.274	17813
904.392	17733
904.51	17798
904.627	17840
904.745	17866
904.863	17851
904.981	17634
905.098	17444
905.216	17417
905.334	17558
905.451	17379
905.569	17482
905.686	17448
905.803	17474
905.921	17216
906.038	17478
906.155	17280
906.272	17174
906.389	17216
906.506	16987
906.623	17029
906.74	17014
906.857	16854
906.974	16896
907.091	17022
907.208	17197
907.324	17022
907.441	16930
907.557	16752
907.674	16793
907.79	16656
907.907	16679
908.023	16717
908.139	16744
908.256	16774
908.372	16466
908.488	16607
908.604	16455
908.72	16443
908.836	16436
908.952	16478
909.068	16428
909.184	16561
909.3	16394
909.415	16485
909.531	16421
909.647	16211
909.762	16188
909.878	16154
909.993	16021
910.108	16139
910.224	16116
910.339	16139
910.454	16078
910.57	15941
910.685	15884
910.8	16124
910.915	16158
911.03	15949
911.145	15766
911.259	15808
911.374	15797
911.489	15736
911.604	15652
911.718	15382
911.833	15549
911.947	15450
912.062	15245
912.176	15477
912.291	15557
912.405	15523
912.519	15690
912.633	15667
912.748	15538
912.862	15469
912.976	15332
913.09	15184
913.204	15237
913.318	15291
913.431	15435
913.545	15412
913.659	15386
913.772	15241
913.886	15256
914	15169
914.113	15214
914.226	15146
914.34	15260
914.453	15112
914.566	15268
914.68	15077
914.793	15001
914.906	14838
915.019	14765
915.132	14705
915.245	14788
915.358	14735
915.47	14727
915.583	14705
915.696	14853
915.809	14781
915.921	14910
916.034	14674
916.146	14697
916.259	14606
916.371	14739
916.483	14765
916.595	14602
916.708	14560
916.82	14560
916.932	14556
917.044	14552
917.156	14526
917.268	14457
917.38	14427
917.491	14457
917.603	14366
917.715	14511
917.826	14469
917.938	14320
918.049	14278
918.161	14355
918.272	14526
918.384	14492
918.495	14332
918.606	14294
918.717	14172
918.828	14210
918.939	14149
919.05	14050
919.161	14187
919.272	14020
919.383	14046
919.494	14187
919.604	14328
919.715	14157
919.826	14050
919.936	14183
920.047	14214
920.157	14126
920.267	14267
920.378	14218
920.488	14244
920.598	14355
920.708	14473
920.818	14263
920.928	14339
921.038	14454
921.148	14396
921.258	14031
921.368	13982
921.477	13944
921.587	13875
921.697	13761
921.806	13879
921.916	13750
922.025	13704
922.134	13586
922.244	13548
922.353	13552
922.462	13457
922.571	13457
922.68	13129
922.789	13202
922.898	13228
923.007	13114
923.116	13232
923.224	13080
923.333	13141
923.442	13088
923.55	13053
923.659	12977
923.767	13133
923.876	12993
923.984	13027
924.092	12913
924.201	12943
924.309	12989
924.417	12863
924.525	12817
924.633	12916
924.741	13643
924.849	12692
924.956	12779
925.064	12684
925.172	12639
925.279	12578
925.387	12627
925.494	12551
925.602	12829
925.709	12696
925.816	12627
925.924	12597
926.031	12612
926.138	12528
926.245	12582
926.352	12483
926.459	12601
926.566	12681
926.673	12452
926.779	12346
926.886	12357
926.993	12235
927.099	12281
927.206	12186
927.312	12155
927.419	12194
927.525	12296
927.631	12155
927.737	12098
927.843	12064
927.95	11923
928.056	11984
928.162	12079
928.267	12114
928.373	12757
928.479	12110
928.585	11870
928.69	12007
928.796	12091
928.901	11847
929.007	11824
929.112	11942
929.218	11893
929.323	11779
929.428	11729
929.533	11980
929.638	11741
929.743	11745
929.848	11859
929.953	11729
930.058	11577
930.163	11452
930.267	11505
930.372	11680
930.477	11398
930.581	11638
930.685	11577
930.79	11398
930.894	11448
930.998	11292
931.103	11467
931.207	11098
931.311	11041
931.415	11003
931.519	10771
931.623	10717
