Data from test_V78500241_3514.txt Node
Date: Fri Mar 25 16:06:08 CST 2022
User: usil
Spectrometer: V785-0024
Trigger mode: 0
Integration Time (sec): 4.000000E-1
Scans to average: 1
Nonlinearity correction enabled: false
Boxcar width: 0
Storing dark spectrum: false
XAxis mode: Wavelengths
Number of Pixels in Spectrum: 1024
>>>>>Begin Spectral Data<<<<<
801.071	28908
801.214	28645
801.356	28637
801.499	28573
801.641	28493
801.783	28500
801.926	28409
802.068	28363
802.211	28489
802.353	28382
802.496	28181
802.638	28086
802.78	28093
802.923	27953
803.065	28017
803.208	28044
803.35	28006
803.492	28382
803.635	28310
803.777	28200
803.919	28375
804.061	28607
804.204	28421
804.346	28310
804.488	28318
804.63	28333
804.773	28185
804.915	28504
805.057	28538
805.199	28276
805.341	28538
805.483	28588
805.626	28557
805.768	28409
805.91	28622
806.052	28504
806.194	28417
806.336	28702
806.478	28641
806.62	28516
806.762	28698
806.904	28908
807.046	29083
807.188	29048
807.33	29025
807.472	29094
807.614	28965
807.756	29041
807.898	28824
808.04	28904
808.182	28771
808.324	28862
808.465	29041
808.607	29033
808.749	29410
808.891	29307
809.033	29444
809.174	29425
809.316	29071
809.458	29254
809.6	29220
809.741	29425
809.883	29425
810.025	29604
810.166	29691
810.308	29729
810.45	29414
810.591	29383
810.733	29303
810.875	29360
811.016	29140
811.158	29254
811.299	29406
811.441	29429
811.582	29417
811.724	29258
811.865	29208
812.007	29292
812.148	29303
812.29	29307
812.431	29429
812.573	29566
812.714	29741
812.855	29897
812.997	29882
813.138	30041
813.279	30041
813.421	29767
813.562	29859
813.703	29615
813.845	29455
813.986	29216
814.127	29083
814.268	28987
814.41	28866
814.551	28869
814.692	28999
814.833	28892
814.974	29048
815.115	28847
815.256	28755
815.397	28858
815.539	28782
815.68	28793
815.821	28706
815.962	28786
816.103	28820
816.244	28721
816.385	28622
816.526	28367
816.666	28443
816.807	28215
816.948	28481
817.089	28352
817.23	28272
817.371	28333
817.512	28234
817.653	28147
817.793	28299
817.934	28261
818.075	28333
818.216	28421
818.356	28238
818.497	28093
818.638	28169
818.778	27983
818.919	27998
819.06	28169
819.2	28166
819.341	28352
819.481	28322
819.622	28447
819.762	28694
819.903	28615
820.043	28470
820.184	28550
820.324	28523
820.465	28516
820.605	28478
820.746	28394
820.886	28276
821.026	28561
821.167	28470
821.307	28417
821.447	28390
821.588	28067
821.728	28067
821.868	28078
822.008	27964
822.149	27842
822.289	27800
822.429	27530
822.569	27473
822.709	27519
822.849	27348
822.99	27462
823.13	27249
823.27	27241
823.41	27203
823.55	27047
823.69	27188
823.83	27211
823.97	27173
824.11	26823
824.25	26940
824.389	26963
824.529	27032
824.669	26937
824.809	27100
824.949	27116
825.089	27157
825.228	27119
825.368	26754
825.508	26918
825.648	26872
825.787	26956
825.927	26906
826.067	26880
826.206	26769
826.346	26895
826.485	26925
826.625	26830
826.765	27055
826.904	26910
827.044	26686
827.183	26587
827.323	26659
827.462	26648
827.601	26651
827.741	26507
827.88	26587
828.02	26427
828.159	26571
828.298	26541
828.437	26720
828.577	26495
828.716	26598
828.855	26492
828.994	26336
829.134	26237
829.273	26286
829.412	26267
829.551	26278
829.69	26453
829.829	26355
829.968	26225
830.107	26286
830.246	26256
830.385	26229
830.524	26126
830.663	26183
830.802	26069
830.941	25860
831.08	25864
831.219	25982
831.357	26035
831.496	26081
831.635	25932
831.774	25776
831.913	25811
832.051	25761
832.19	25704
832.329	25746
832.467	25556
832.606	25586
832.744	25457
832.883	25438
833.022	25582
833.16	25540
833.299	25662
833.437	25597
833.576	25628
833.714	25624
833.852	25704
833.991	25696
834.129	25788
834.267	25704
834.406	25601
834.544	25681
834.682	25734
834.821	25514
834.959	25871
835.097	25586
835.235	25761
835.373	25696
835.511	25616
835.65	25457
835.788	25495
835.926	25358
836.064	25168
836.202	25270
836.34	25556
836.478	25472
836.615	25426
836.753	25563
836.891	25525
837.029	25521
837.167	25358
837.305	25297
837.443	25453
837.58	25282
837.718	25400
837.856	25255
837.993	25206
838.131	25384
838.269	25202
838.406	25168
838.544	25076
838.681	24817
838.819	24943
838.956	24730
839.094	24700
839.231	24692
839.369	24973
839.506	25126
839.643	25057
839.781	24631
839.918	24661
840.055	24688
840.193	24601
840.33	24768
840.467	24715
840.604	24692
840.742	25050
840.879	24460
841.016	24559
841.153	24399
841.29	24601
841.427	24646
841.564	24646
841.701	24734
841.838	24540
841.975	24536
842.112	24460
842.249	24319
842.385	24353
842.522	24601
842.659	24304
842.796	24334
842.933	24395
843.069	24228
843.206	24338
843.343	24509
843.479	24315
843.616	24445
843.752	24159
843.889	24323
844.025	24270
844.162	24110
844.298	24239
844.435	24114
844.571	24102
844.708	24083
844.844	24376
844.98	24159
845.117	24281
845.253	24129
845.389	24091
845.525	24083
845.661	24072
845.798	23912
845.934	23950
846.07	23912
846.206	23870
846.342	24152
846.478	23882
846.614	23585
846.75	23627
846.886	23566
847.022	23722
847.158	23493
847.294	23585
847.429	23535
847.565	23535
847.701	23779
847.837	23467
847.972	23250
848.108	23433
848.244	23410
848.379	23296
848.515	23231
848.65	23151
848.786	23242
848.921	23178
849.057	23288
849.192	23254
849.328	23231
849.463	23254
849.598	23094
849.734	23128
849.869	23014
850.004	22953
850.14	22991
850.275	23064
850.41	22991
850.545	22854
850.68	22892
850.815	23079
850.95	22946
851.085	23151
851.22	23170
851.355	23086
851.49	22892
851.625	22858
851.76	22889
851.895	22892
852.03	22892
852.165	22949
852.299	22949
852.434	23048
852.569	22965
852.703	22919
852.838	22915
852.973	23086
853.107	23105
853.242	22839
853.376	22755
853.511	22634
853.645	22763
853.78	22850
853.914	22839
854.048	22824
854.183	22771
854.317	22809
854.451	23090
854.585	22713
854.72	22774
854.854	22763
854.988	22721
855.122	22721
855.256	22615
855.39	22725
855.524	22835
855.658	22729
855.792	22801
855.926	22733
856.06	22721
856.194	22847
856.327	22694
856.461	22725
856.595	22607
856.729	22634
856.862	22938
856.996	22782
857.13	22885
857.263	22949
857.397	22919
857.53	22729
857.664	22824
857.797	22896
857.931	22797
858.064	22755
858.197	22812
858.331	22706
858.464	22626
858.597	22607
858.731	22782
858.864	22778
858.997	22847
859.13	22835
859.263	22733
859.396	22968
859.529	22740
859.662	22812
859.795	22778
859.928	22763
860.061	22972
860.194	22904
860.327	22900
860.46	22774
860.592	22972
860.725	23025
860.858	22980
860.99	22733
861.123	22755
861.256	22649
861.388	22691
861.521	23334
861.653	22698
861.786	22596
861.918	22557
862.05	22645
862.183	22660
862.315	22668
862.447	22721
862.58	22596
862.712	22596
862.844	22596
862.976	22599
863.108	22546
863.24	22892
863.372	22405
863.504	22561
863.636	22440
863.768	22447
863.9	22542
864.032	22478
864.164	22523
864.296	22459
864.428	22519
864.559	22455
864.691	22523
864.823	22402
864.954	22443
865.086	22451
865.217	22413
865.349	22341
865.48	22371
865.612	22424
865.743	22436
865.875	22314
866.006	22462
866.137	22303
866.269	22242
866.4	22417
866.531	22306
866.662	22219
866.793	22341
866.924	22276
867.055	22284
867.186	22272
867.317	22200
867.448	22131
867.579	22303
867.71	22207
867.841	22188
867.972	22325
868.103	22211
868.233	22333
868.364	22291
868.495	22436
868.625	22599
868.756	22706
868.886	22379
869.017	22447
869.147	22641
869.278	22596
869.408	22565
869.539	22527
869.669	22497
869.799	22584
869.929	22603
870.06	22588
870.19	22786
870.32	22820
870.45	22953
870.58	22908
870.71	23014
870.84	23121
870.97	22938
871.1	22968
871.23	22984
871.36	23151
871.489	23086
871.619	23117
871.749	23086
871.879	23204
872.008	23277
872.138	23033
872.267	23143
872.397	22942
872.526	22961
872.656	22866
872.785	23029
872.915	23033
873.044	23193
873.173	23102
873.303	23197
873.432	23143
873.561	23231
873.69	23208
873.819	23162
873.948	23193
874.077	23090
874.206	23124
874.335	23094
874.464	23242
874.593	23463
874.722	23261
874.851	23311
874.979	23436
875.108	23414
875.237	23315
875.365	23223
875.494	23273
875.623	23372
875.751	23383
875.88	23345
876.008	23448
876.136	23421
876.265	23798
876.393	23874
876.521	23897
876.65	23855
876.778	23703
876.906	23615
877.034	23805
877.162	23847
877.29	23611
877.418	23882
877.546	23722
877.674	23684
877.802	23600
877.93	23604
878.058	23623
878.185	23558
878.313	23554
878.441	23611
878.568	23459
878.696	23501
878.824	23691
878.951	23668
879.079	23836
879.206	23999
879.333	23809
879.461	23745
879.588	23790
879.715	23851
879.842	24095
879.97	23840
880.097	23562
880.224	23589
880.351	23570
880.478	23691
880.605	23581
880.732	23486
880.859	23661
880.986	23429
881.112	23619
881.239	23379
881.366	23337
881.493	23216
881.619	23121
881.746	23025
881.872	23189
881.999	23170
882.125	22972
882.252	23006
882.378	23098
882.505	23109
882.631	22946
882.757	22611
882.883	22752
883.01	22847
883.136	22740
883.262	22622
883.388	22500
883.514	22862
883.64	22698
883.766	22668
883.892	22493
884.018	22485
884.143	22736
884.269	22668
884.395	22474
884.52	22268
884.646	22402
884.772	22314
884.897	22276
885.023	22379
885.148	22440
885.274	22481
885.399	22527
885.524	22333
885.65	22402
885.775	22284
885.9	22211
886.025	22523
886.15	22512
886.275	22295
886.4	22265
886.525	22337
886.65	22303
886.775	22337
886.9	22599
887.025	22618
887.149	22246
887.274	22090
887.399	22051
887.523	22154
887.648	22101
887.773	22135
887.897	22169
888.021	22120
888.146	22044
888.27	22223
888.395	22192
888.519	22188
888.643	22230
888.767	22215
888.891	22063
889.015	21941
889.139	22051
889.263	21903
889.387	22063
889.511	22097
889.635	21968
889.759	21945
889.883	21823
890.006	21941
890.13	21998
890.254	21956
890.377	21838
890.501	21633
890.624	21614
890.748	21663
890.871	21652
890.995	21325
891.118	21485
891.241	21405
891.364	21416
891.488	21553
891.611	21485
891.734	21351
891.857	21359
891.98	21412
892.103	21504
892.226	21435
892.349	21530
892.471	21195
892.594	21386
892.717	21401
892.839	21348
892.962	21389
893.085	21291
893.207	21405
893.33	21321
893.452	21313
893.575	21310
893.697	21325
893.819	21458
893.941	21572
894.064	21488
894.186	21245
894.308	21161
894.43	21458
894.552	21397
894.674	21348
894.796	21199
894.918	21317
895.04	21180
895.161	21336
895.283	21317
895.405	21237
895.526	21332
895.648	21199
895.769	21279
895.891	21359
896.012	21374
896.134	21389
896.255	21249
896.376	21268
896.498	21275
896.619	21283
896.74	21256
896.861	21279
896.982	21603
897.103	21850
897.224	21580
897.345	21523
897.466	21511
897.587	21481
897.708	21656
897.828	21633
897.949	21454
898.07	21374
898.19	21462
898.311	21545
898.431	21447
898.552	21408
898.672	21523
898.792	21603
898.913	21485
899.033	21416
899.153	21214
899.273	21180
899.393	21169
899.513	21241
899.633	21260
899.753	21249
899.873	21009
899.993	21214
900.113	21127
900.232	21237
900.352	21173
900.472	20998
900.591	20902
900.711	20944
900.83	20826
900.95	21081
901.069	21055
901.189	20910
901.308	20682
901.427	20495
901.546	20613
901.665	20617
901.784	20526
901.904	20423
902.023	20324
902.141	20016
902.26	20065
902.379	20206
902.498	19963
902.617	20054
902.735	20100
902.854	19989
902.973	19936
903.091	19742
903.21	19757
903.328	19727
903.446	19723
903.565	19434
903.683	19480
903.801	19480
903.919	19457
904.038	19480
904.156	19225
904.274	19362
904.392	19308
904.51	19236
904.627	19152
904.745	19232
904.863	19213
904.981	19091
905.098	18859
905.216	18993
905.334	18993
905.451	18954
905.569	18867
905.686	18909
905.803	18909
905.921	18734
906.038	18798
906.155	18757
906.272	18692
906.389	18642
906.506	18372
906.623	18467
906.74	18376
906.857	18410
906.974	18384
907.091	18471
907.208	18582
907.324	18441
907.441	18258
907.557	18148
907.674	18098
907.79	18117
907.907	18106
908.023	18182
908.139	18152
908.256	18121
908.372	17950
908.488	18049
908.604	17931
908.72	17866
908.836	17901
908.952	17840
909.068	17946
909.184	17958
909.3	18057
909.415	17920
909.531	17805
909.647	17687
909.762	17581
909.878	17577
909.993	17573
910.108	17478
910.224	17520
910.339	17520
910.454	17414
910.57	17474
910.685	17288
910.8	17630
910.915	17516
911.03	17414
911.145	17185
911.259	17060
911.374	17159
911.489	16942
911.604	16968
911.718	16923
911.833	16968
911.947	16763
912.062	16717
912.176	16908
912.291	16824
912.405	16980
912.519	17014
912.633	17136
912.748	16858
912.862	16877
912.976	16736
913.09	16588
913.204	16599
913.318	16687
913.431	16805
913.545	16736
913.659	16820
913.772	16675
913.886	16436
914	16474
914.113	16550
914.226	16603
914.34	16512
914.453	16291
914.566	16592
914.68	16337
914.793	16341
914.906	16051
915.019	16082
915.132	16040
915.245	16067
915.358	16166
915.47	16040
915.583	15994
915.696	16017
915.809	16162
915.921	16253
916.034	15960
916.146	15983
916.259	15911
916.371	16010
916.483	15979
916.595	15873
916.708	15915
916.82	15838
916.932	15804
917.044	15869
917.156	15793
917.268	15720
917.38	15724
917.491	15606
917.603	15614
917.715	15698
917.826	15736
917.938	15614
918.049	15504
918.161	15675
918.272	15728
918.384	15709
918.495	15679
918.606	15424
918.717	15340
918.828	15454
918.939	15363
919.05	15367
919.161	15439
919.272	15180
919.383	15344
919.494	15439
919.604	15557
919.715	15351
919.826	15241
919.936	15287
920.047	15386
920.157	15332
920.267	15519
920.378	15359
920.488	15275
920.598	15447
920.708	15618
920.818	15500
920.928	15561
921.038	15622
921.148	15576
921.258	15256
921.368	15237
921.477	15116
921.587	15070
921.697	14887
921.806	15085
921.916	14804
922.025	14746
922.134	14708
922.244	14678
922.353	14762
922.462	14537
922.571	14469
922.68	14358
922.789	14419
922.898	14339
923.007	14305
923.116	14343
923.224	14400
923.333	14370
923.442	14233
923.55	14164
923.659	14214
923.767	14252
923.876	14096
923.984	14218
924.092	13967
924.201	14050
924.309	14008
924.417	14001
924.525	14046
924.633	13974
924.741	14861
924.849	13799
924.956	13868
925.064	13734
925.172	13689
925.279	13677
925.387	13616
925.494	13597
925.602	13887
925.709	13757
925.816	13704
925.924	13662
926.031	13761
926.138	13628
926.245	13639
926.352	13483
926.459	13685
926.566	13738
926.673	13525
926.779	13445
926.886	13422
926.993	13225
927.099	13247
927.206	13160
927.312	13206
927.419	13225
927.525	13228
927.631	13304
927.737	13164
927.843	13156
927.95	12897
928.056	13042
928.162	13171
928.267	13118
928.373	13723
928.479	13145
928.585	12970
928.69	13053
928.796	13015
928.901	12932
929.007	12776
929.112	12833
929.218	12867
929.323	12810
929.428	12810
929.533	12875
929.638	12669
929.743	12616
929.848	12749
929.953	12650
930.058	12582
930.163	12471
930.267	12498
930.372	12563
930.477	12350
930.581	12563
930.685	12376
930.79	12266
930.894	12327
930.998	12270
931.103	12441
931.207	12060
931.311	11992
931.415	11870
931.519	11619
931.623	11619
