Data from test_V78500241_2661.txt Node
Date: Fri Mar 25 16:00:14 CST 2022
User: usil
Spectrometer: V785-0024
Trigger mode: 0
Integration Time (sec): 4.000000E-1
Scans to average: 1
Nonlinearity correction enabled: false
Boxcar width: 0
Storing dark spectrum: false
XAxis mode: Wavelengths
Number of Pixels in Spectrum: 1024
>>>>>Begin Spectral Data<<<<<
801.071	28656
801.214	28713
801.356	28588
801.499	28485
801.641	28333
801.783	28310
801.926	28398
802.068	28344
802.211	28219
802.353	28265
802.496	27926
802.638	27945
802.78	27956
802.923	27778
803.065	27819
803.208	28055
803.35	28036
803.492	28185
803.635	28200
803.777	28154
803.919	28329
804.061	28603
804.204	28284
804.346	28318
804.488	28177
804.63	28318
804.773	28169
804.915	28314
805.057	28367
805.199	28120
805.341	28310
805.483	28428
805.626	28379
805.768	28344
805.91	28443
806.052	28333
806.194	28284
806.336	28508
806.478	28519
806.62	28390
806.762	28523
806.904	28710
807.046	28828
807.188	28866
807.33	28984
807.472	28896
807.614	28839
807.756	28930
807.898	28755
808.04	28698
808.182	28752
808.324	28835
808.465	28713
808.607	28900
808.749	29147
808.891	29292
809.033	29254
809.174	29128
809.316	29048
809.458	29086
809.6	29102
809.741	29136
809.883	29185
810.025	29364
810.166	29337
810.308	29383
810.45	29284
810.591	29284
810.733	29277
810.875	29166
811.016	29109
811.158	28892
811.299	29143
811.441	29261
811.582	29296
811.724	29208
811.865	29060
812.007	29094
812.148	29181
812.29	29292
812.431	29292
812.573	29429
812.714	29558
812.855	29691
812.997	29695
813.138	29794
813.279	29710
813.421	29615
813.562	29543
813.703	29391
813.845	29383
813.986	29197
814.127	29071
814.268	28858
814.41	28961
814.551	28748
814.692	28862
814.833	28858
814.974	28862
815.115	28896
815.256	28801
815.397	28634
815.539	28694
815.68	28733
815.821	28535
815.962	28679
816.103	28679
816.244	28443
816.385	28531
816.526	28401
816.666	28234
816.807	28055
816.948	28196
817.089	28188
817.23	28078
817.371	28067
817.512	28131
817.653	28166
817.793	28093
817.934	28082
818.075	28124
818.216	28295
818.356	28112
818.497	28070
818.638	27972
818.778	27991
818.919	27800
819.06	27991
819.2	27979
819.341	28181
819.481	28063
819.622	28371
819.762	28333
819.903	28341
820.043	28303
820.184	28344
820.324	28344
820.465	28462
820.605	28196
820.746	28196
820.886	28074
821.026	28051
821.167	28188
821.307	28398
821.447	28086
821.588	28139
821.728	27972
821.868	27686
822.008	27743
822.149	27485
822.289	27713
822.429	27355
822.569	27397
822.709	27348
822.849	27237
822.99	27233
823.13	27161
823.27	27142
823.41	26933
823.55	26796
823.69	27036
823.83	27024
823.97	26880
824.11	26625
824.25	26663
824.389	26765
824.529	26762
824.669	26773
824.809	26899
824.949	26872
825.089	26830
825.228	26834
825.368	26568
825.508	26674
825.648	26640
825.787	26720
825.927	26640
826.067	26568
826.206	26651
826.346	26697
826.485	26765
826.625	26678
826.765	26792
826.904	26708
827.044	26419
827.183	26294
827.323	26324
827.462	26450
827.601	26370
827.741	26263
827.88	26309
828.02	26164
828.159	26286
828.298	26366
828.437	26438
828.577	26336
828.716	26476
828.855	26298
828.994	26122
829.134	26020
829.273	26096
829.412	26111
829.551	25944
829.69	26119
829.829	26176
829.968	26199
830.107	26054
830.246	26001
830.385	26077
830.524	25966
830.663	25822
830.802	25830
830.941	25738
831.08	25666
831.219	25700
831.357	25746
831.496	25887
831.635	25715
831.774	25533
831.913	25422
832.051	25415
832.19	25373
832.329	25510
832.467	25339
832.606	25438
832.744	25297
832.883	25274
833.022	25350
833.16	25346
833.299	25411
833.437	25468
833.576	25354
833.714	25460
833.852	25468
833.991	25487
834.129	25327
834.267	25510
834.406	25468
834.544	25392
834.682	25392
834.821	25441
834.959	25704
835.097	25312
835.235	25464
835.373	25365
835.511	25343
835.65	25232
835.788	25202
835.926	25145
836.064	25046
836.202	25080
836.34	25160
836.478	25346
836.615	25278
836.753	25343
836.891	25362
837.029	25293
837.167	25065
837.305	25114
837.443	25148
837.58	25046
837.718	25103
837.856	25042
837.993	25050
838.131	25061
838.269	24992
838.406	24928
838.544	24825
838.681	24726
838.819	24639
838.956	24486
839.094	24547
839.231	24536
839.369	24703
839.506	24916
839.643	24882
839.781	24559
839.918	24338
840.055	24559
840.193	24452
840.33	24437
840.467	24445
840.604	24601
840.742	24635
840.879	24235
841.016	24285
841.153	24388
841.29	24448
841.427	24464
841.564	24544
841.701	24388
841.838	24266
841.975	24285
842.112	24391
842.249	24258
842.385	24197
842.522	24395
842.659	24243
842.796	24182
842.933	24292
843.069	24235
843.206	24068
843.343	24216
843.479	24289
843.616	24186
843.752	24003
843.889	23965
844.025	24190
844.162	23878
844.298	24079
844.435	23954
844.571	23855
844.708	23931
844.844	24155
844.98	24038
845.117	24076
845.253	24022
845.389	23813
845.525	23790
845.661	23710
845.798	23630
845.934	23748
846.07	23687
846.206	23832
846.342	23680
846.478	23680
846.614	23539
846.75	23337
846.886	23410
847.022	23410
847.158	23512
847.294	23433
847.429	23414
847.565	23349
847.701	23710
847.837	23067
847.972	23155
848.108	23246
848.244	23140
848.379	23067
848.515	23014
848.65	22889
848.786	23102
848.921	22995
849.057	23075
849.192	23037
849.328	22869
849.463	22908
849.598	22972
849.734	22809
849.869	22847
850.004	22763
850.14	22733
850.275	22733
850.41	22634
850.545	22816
850.68	22782
850.815	22793
850.95	22771
851.085	23003
851.22	22957
851.355	22740
851.49	22767
851.625	22755
851.76	22736
851.895	22554
852.03	22641
852.165	22702
852.299	22694
852.434	22805
852.569	22687
852.703	22778
852.838	22793
852.973	22938
853.107	22839
853.242	22603
853.376	22645
853.511	22367
853.645	22535
853.78	22748
853.914	22561
854.048	22493
854.183	22634
854.317	22550
854.451	22900
854.585	22550
854.72	22641
854.854	22740
854.988	22516
855.122	22656
855.256	22466
855.39	22531
855.524	22497
855.658	22717
855.792	22588
855.926	22611
856.06	22653
856.194	22694
856.327	22618
856.461	22538
856.595	22588
856.729	22596
856.862	22717
856.996	22649
857.13	22679
857.263	22797
857.397	22660
857.53	22546
857.664	22843
857.797	22656
857.931	22592
858.064	22622
858.197	22713
858.331	22527
858.464	22497
858.597	22360
858.731	22550
858.864	22531
858.997	22436
859.13	22603
859.263	22577
859.396	22531
859.529	22584
859.662	22626
859.795	22592
859.928	22546
860.061	22675
860.194	22812
860.327	22713
860.46	22588
860.592	22850
860.725	22702
860.858	22710
860.99	22531
861.123	22512
861.256	22516
861.388	22569
861.521	23440
861.653	22443
861.786	22421
861.918	22428
862.05	22344
862.183	22607
862.315	22523
862.447	22645
862.58	22497
862.712	22367
862.844	22276
862.976	22325
863.108	22432
863.24	22672
863.372	22097
863.504	22246
863.636	22238
863.768	22276
863.9	22253
864.032	22272
864.164	22303
864.296	22303
864.428	22417
864.559	22291
864.691	22363
864.823	22379
864.954	22291
865.086	22219
865.217	22314
865.349	22105
865.48	22101
865.612	22059
865.743	22314
865.875	22181
866.006	22185
866.137	22173
866.269	22196
866.4	22036
866.531	22105
866.662	22025
866.793	22154
866.924	22101
867.055	22074
867.186	22090
867.317	22097
867.448	21998
867.579	22036
867.71	21994
867.841	21892
867.972	22158
868.103	21979
868.233	22074
868.364	22150
868.495	22131
868.625	22337
868.756	22405
868.886	22268
869.017	22329
869.147	22497
869.278	22523
869.408	22428
869.539	22341
869.669	22413
869.799	22367
869.929	22436
870.06	22390
870.19	22569
870.32	22542
870.45	22740
870.58	22774
870.71	23014
870.84	22744
870.97	22744
871.1	22740
871.23	23003
871.36	22927
871.489	22900
871.619	22889
871.749	22923
871.879	23044
872.008	23010
872.138	22987
872.267	22881
872.397	22767
872.526	22698
872.656	22725
872.785	22733
872.915	22995
873.044	23064
873.173	22938
873.303	23025
873.432	22968
873.561	23102
873.69	22965
873.819	22942
873.948	23044
874.077	22866
874.206	22999
874.335	22972
874.464	23056
874.593	23193
874.722	23128
874.851	23261
874.979	23212
875.108	23174
875.237	23083
875.365	23105
875.494	23064
875.623	23258
875.751	23056
875.88	23151
876.008	23220
876.136	23299
876.265	23585
876.393	23646
876.521	23501
876.65	23691
876.778	23524
876.906	23665
877.034	23448
877.162	23581
877.29	23528
877.418	23391
877.546	23505
877.674	23512
877.802	23516
877.93	23436
878.058	23486
878.185	23341
878.313	23516
878.441	23448
878.568	23364
878.696	23387
878.824	23455
878.951	23608
879.079	23592
879.206	23786
879.333	23737
879.461	23638
879.588	23703
879.715	23729
879.842	23703
879.97	23554
880.097	23269
880.224	23345
880.351	23368
880.478	23345
880.605	23258
880.732	23273
880.859	23429
880.986	23239
881.112	23334
881.239	23212
881.366	23083
881.493	22896
881.619	22889
881.746	22824
881.872	22930
881.999	22824
882.125	22873
882.252	22881
882.378	22900
882.505	23025
882.631	22656
882.757	22573
882.883	22778
883.01	22653
883.136	22455
883.262	22519
883.388	22360
883.514	22573
883.64	22531
883.766	22413
883.892	22322
884.018	22428
884.143	22516
884.269	22550
884.395	22379
884.52	22139
884.646	22261
884.772	22082
884.897	22036
885.023	22139
885.148	22253
885.274	22344
885.399	22253
885.524	22086
885.65	22097
885.775	22173
885.9	22173
886.025	22295
886.15	22306
886.275	22032
886.4	22086
886.525	22310
886.65	22002
886.775	22116
886.9	22257
887.025	22379
887.149	22249
887.274	22032
887.399	21930
887.523	21941
887.648	21934
887.773	21789
887.897	22147
888.021	21850
888.146	21949
888.27	22070
888.395	22013
888.519	21991
888.643	21994
888.767	22040
888.891	21884
889.015	21819
889.139	21854
889.263	21637
889.387	21865
889.511	21979
889.635	22074
889.759	21720
889.883	21606
890.006	21789
890.13	21816
890.254	21576
890.377	21690
890.501	21454
890.624	21504
890.748	21572
890.871	21348
890.995	21237
891.118	21161
891.241	21302
891.364	21291
891.488	21462
891.611	21287
891.734	21329
891.857	21325
891.98	21302
892.103	21283
892.226	21287
892.349	21176
892.471	21081
892.594	21203
892.717	21142
892.839	21165
892.962	21127
893.085	21070
893.207	21165
893.33	21108
893.452	21116
893.575	21237
893.697	21150
893.819	21306
893.941	21351
894.064	21351
894.186	21020
894.308	21237
894.43	21230
894.552	21294
894.674	21241
894.796	21188
894.918	21207
895.04	21157
895.161	21241
895.283	21233
895.405	21127
895.526	21146
895.648	21138
895.769	21150
895.891	21260
896.012	21272
896.134	21157
896.255	21142
896.376	21108
896.498	21005
896.619	21233
896.74	21150
896.861	21203
896.982	21431
897.103	21492
897.224	21268
897.345	21317
897.466	21272
897.587	21321
897.708	21492
897.828	21393
897.949	21329
898.07	21184
898.19	21188
898.311	21302
898.431	21214
898.552	21329
898.672	21431
898.792	21431
898.913	21241
899.033	21180
899.153	21184
899.273	21024
899.393	21112
899.513	21047
899.633	21123
899.753	21066
899.873	20921
899.993	21135
900.113	21005
900.232	21051
900.352	21062
900.472	20971
900.591	20830
900.711	20910
900.83	20811
900.95	20944
901.069	20838
901.189	20724
901.308	20492
901.427	20385
901.546	20385
901.665	20480
901.784	20370
901.904	20275
902.023	20107
902.141	20001
902.26	19913
902.379	19982
902.498	19902
902.617	19894
902.735	19963
902.854	19982
902.973	19875
903.091	19597
903.21	19590
903.328	19575
903.446	19460
903.565	19297
903.683	19487
903.801	19232
903.919	19316
904.038	19179
904.156	19190
904.274	19168
904.392	19072
904.51	19114
904.627	19015
904.745	19156
904.863	19198
904.981	18939
905.098	18745
905.216	18734
905.334	18837
905.451	18829
905.569	18779
905.686	18798
905.803	18715
905.921	18627
906.038	18677
906.155	18642
906.272	18410
906.389	18498
906.506	18334
906.623	18330
906.74	18384
906.857	18197
906.974	18197
907.091	18319
907.208	18467
907.324	18262
907.441	18171
907.557	18148
907.674	18053
907.79	17973
907.907	18038
908.023	18053
908.139	17988
908.256	18007
908.372	17889
908.488	17954
908.604	17783
908.72	17634
908.836	17710
908.952	17684
909.068	17729
909.184	17916
909.3	17676
909.415	17802
909.531	17699
909.647	17497
909.762	17471
909.878	17364
909.993	17448
910.108	17467
910.224	17425
910.339	17353
910.454	17322
910.57	17265
910.685	17193
910.8	17402
910.915	17379
911.03	17166
911.145	17056
911.259	17102
911.374	17010
911.489	16896
911.604	16904
911.718	16828
911.833	16763
911.947	16687
912.062	16584
912.176	16801
912.291	16725
912.405	16702
912.519	16946
912.633	16877
912.748	16752
912.862	16748
912.976	16561
913.09	16508
913.204	16519
913.318	16565
913.431	16615
913.545	16561
913.659	16580
913.772	16466
913.886	16318
914	16508
914.113	16459
914.226	16493
914.34	16352
914.453	16314
914.566	16375
914.68	16299
914.793	16188
914.906	16036
915.019	15949
915.132	15861
915.245	15846
915.358	15968
915.47	16010
915.583	15838
915.696	15926
915.809	15975
915.921	15987
916.034	15869
916.146	15880
916.259	15823
916.371	15816
916.483	15766
916.595	15766
916.708	15686
916.82	15736
916.932	15656
917.044	15614
917.156	15679
917.268	15492
917.38	15595
917.491	15587
917.603	15477
917.715	15561
917.826	15618
917.938	15477
918.049	15431
918.161	15447
918.272	15679
918.384	15553
918.495	15488
918.606	15351
918.717	15264
918.828	15344
918.939	15355
919.05	15256
919.161	15275
919.272	15131
919.383	15013
919.494	15256
919.604	15462
919.715	15138
919.826	15211
919.936	15199
920.047	15310
920.157	15222
920.267	15389
920.378	15252
920.488	15199
920.598	15382
920.708	15648
920.818	15313
920.928	15386
921.038	15420
921.148	15420
921.258	15195
921.368	15123
921.477	15028
921.587	14975
921.697	14834
921.806	14918
921.916	14807
922.025	14602
922.134	14579
922.244	14492
922.353	14610
922.462	14480
922.571	14476
922.68	14206
922.789	14168
922.898	14271
923.007	14153
923.116	14176
923.224	14149
923.333	14149
923.442	14081
923.55	13978
923.659	14077
923.767	14191
923.876	13959
923.984	14081
924.092	13917
924.201	13967
924.309	13951
924.417	13955
924.525	13898
924.633	13845
924.741	14830
924.849	13753
924.956	13841
925.064	13674
925.172	13605
925.279	13556
925.387	13647
925.494	13597
925.602	13715
925.709	13655
925.816	13578
925.924	13628
926.031	13738
926.138	13556
926.245	13685
926.352	13502
926.459	13647
926.566	13677
926.673	13502
926.779	13377
926.886	13381
926.993	13202
927.099	13209
927.206	13107
927.312	13076
927.419	13240
927.525	13187
927.631	13194
927.737	13061
927.843	13034
927.95	12897
928.056	13027
928.162	13027
928.267	13031
928.373	13620
928.479	13057
928.585	12875
928.69	13031
928.796	12977
928.901	12890
929.007	12795
929.112	12848
929.218	12795
929.323	12779
929.428	12779
929.533	12867
929.638	12623
929.743	12620
929.848	12760
929.953	12650
930.058	12506
930.163	12422
930.267	12532
930.372	12456
930.477	12296
930.581	12471
930.685	12448
930.79	12220
930.894	12262
930.998	12266
931.103	12380
931.207	12011
931.311	11946
931.415	11851
931.519	11619
931.623	11623
