Data from test_V78500241_3235.txt Node
Date: Fri Mar 25 16:04:12 CST 2022
User: usil
Spectrometer: V785-0024
Trigger mode: 0
Integration Time (sec): 4.000000E-1
Scans to average: 1
Nonlinearity correction enabled: false
Boxcar width: 0
Storing dark spectrum: false
XAxis mode: Wavelengths
Number of Pixels in Spectrum: 1024
>>>>>Begin Spectral Data<<<<<
801.071	28862
801.214	28850
801.356	28694
801.499	28634
801.641	28470
801.783	28413
801.926	28641
802.068	28470
802.211	28561
802.353	28325
802.496	28242
802.638	28337
802.78	28101
802.923	28105
803.065	27964
803.208	28306
803.35	28207
803.492	28451
803.635	28421
803.777	28462
803.919	28421
804.061	28710
804.204	28459
804.346	28504
804.488	28322
804.63	28447
804.773	28367
804.915	28474
805.057	28607
805.199	28424
805.341	28508
805.483	28626
805.626	28428
805.768	28504
805.91	28626
806.052	28500
806.194	28535
806.336	28847
806.478	28588
806.62	28630
806.762	28748
806.904	28869
807.046	29064
807.188	29010
807.33	29056
807.472	29299
807.614	28927
807.756	28904
807.898	28942
808.04	28957
808.182	29033
808.324	28850
808.465	29025
808.607	29098
808.749	29372
808.891	29440
809.033	29531
809.174	29349
809.316	29280
809.458	29239
809.6	29334
809.741	29436
809.883	29501
810.025	29634
810.166	29566
810.308	29547
810.45	29642
810.591	29459
810.733	29406
810.875	29375
811.016	29235
811.158	29254
811.299	29463
811.441	29570
811.582	29512
811.724	29265
811.865	29235
812.007	29421
812.148	29307
812.29	29436
812.431	29558
812.573	29630
812.714	29737
812.855	29874
812.997	29958
813.138	30038
813.279	30053
813.421	29969
813.562	29821
813.703	29855
813.845	29566
813.986	29334
814.127	29341
814.268	29128
814.41	29098
814.551	29014
814.692	29067
814.833	29033
814.974	29075
815.115	29018
815.256	28854
815.397	28881
815.539	28850
815.68	28923
815.821	28854
815.962	28949
816.103	28938
816.244	28660
816.385	28634
816.526	28607
816.666	28466
816.807	28375
816.948	28371
817.089	28424
817.23	28470
817.371	28386
817.512	28390
817.653	28265
817.793	28295
817.934	28341
818.075	28512
818.216	28413
818.356	28257
818.497	28303
818.638	27998
818.778	28093
818.919	28070
819.06	28238
819.2	28284
819.341	28470
819.481	28325
819.622	28481
819.762	28854
819.903	28645
820.043	28630
820.184	28447
820.324	28451
820.465	28360
820.605	28535
820.746	28466
820.886	28428
821.026	28599
821.167	28436
821.307	28447
821.447	28390
821.588	28459
821.728	28272
821.868	28002
822.008	27953
822.149	27869
822.289	27869
822.429	27439
822.569	27519
822.709	27427
822.849	27443
822.99	27313
823.13	27401
823.27	27279
823.41	27070
823.55	27055
823.69	27207
823.83	27226
823.97	27062
824.11	27017
824.25	26921
824.389	26944
824.529	27188
824.669	27123
824.809	27291
824.949	27058
825.089	27081
825.228	26956
825.368	26842
825.508	26826
825.648	26819
825.787	26994
825.927	26963
826.067	26724
826.206	26937
826.346	27020
826.485	26929
826.625	26880
826.765	27051
826.904	27096
827.044	26739
827.183	26792
827.323	26667
827.462	26777
827.601	26648
827.741	26640
827.88	26640
828.02	26560
828.159	26457
828.298	26564
828.437	26838
828.577	26537
828.716	26492
828.855	26526
828.994	26275
829.134	26256
829.273	26431
829.412	26298
829.551	26199
829.69	26298
829.829	26427
829.968	26450
830.107	26332
830.246	26400
830.385	26328
830.524	26225
830.663	26157
830.802	26020
830.941	25784
831.08	25913
831.219	26005
831.357	25978
831.496	26168
831.635	25974
831.774	25814
831.913	25753
832.051	25715
832.19	25715
832.329	25586
832.467	25578
832.606	25476
832.744	25616
832.883	25407
833.022	25506
833.16	25715
833.299	25655
833.437	25590
833.576	25613
833.714	25708
833.852	25689
833.991	25666
834.129	25731
834.267	25803
834.406	25693
834.544	25655
834.682	25632
834.821	25632
834.959	25830
835.097	25495
835.235	25666
835.373	25582
835.511	25575
835.65	25616
835.788	25495
835.926	25495
836.064	25350
836.202	25362
836.34	25510
836.478	25449
836.615	25457
836.753	25441
836.891	25590
837.029	25396
837.167	25468
837.305	25320
837.443	25365
837.58	25301
837.718	25369
837.856	25240
837.993	25194
838.131	25358
838.269	25152
838.406	25244
838.544	25236
838.681	24833
838.819	24863
838.956	24684
839.094	24734
839.231	24787
839.369	24871
839.506	25160
839.643	24973
839.781	24738
839.918	24711
840.055	24802
840.193	24635
840.33	24707
840.467	24684
840.604	24608
840.742	24909
840.879	24528
841.016	24646
841.153	24665
841.29	24757
841.427	24585
841.564	24696
841.701	24730
841.838	24654
841.975	24623
842.112	24642
842.249	24563
842.385	24380
842.522	24620
842.659	24532
842.796	24422
842.933	24410
843.069	24467
843.206	24338
843.343	24414
843.479	24311
843.616	24490
843.752	24205
843.889	24270
844.025	24163
844.162	24239
844.298	24304
844.435	24197
844.571	24110
844.708	24152
844.844	24258
844.98	24258
845.117	24330
845.253	24114
845.389	24095
845.525	23969
845.661	24064
845.798	23866
845.934	24003
846.07	23859
846.206	23916
846.342	24022
846.478	23847
846.614	23707
846.75	23668
846.886	23642
847.022	23722
847.158	23695
847.294	23547
847.429	23638
847.565	23558
847.701	23802
847.837	23455
847.972	23417
848.108	23425
848.244	23436
848.379	23288
848.515	23227
848.65	23109
848.786	23231
848.921	23265
849.057	23345
849.192	23265
849.328	23185
849.463	23254
849.598	23220
849.734	23166
849.869	23121
850.004	23094
850.14	23052
850.275	23010
850.41	22881
850.545	22915
850.68	22812
850.815	22938
850.95	22984
851.085	23060
851.22	23113
851.355	23025
851.49	23075
851.625	23018
851.76	22972
851.895	22938
852.03	22858
852.165	22930
852.299	23033
852.434	23025
852.569	23208
852.703	22991
852.838	23109
852.973	23117
853.107	23136
853.242	22889
853.376	22869
853.511	22683
853.645	22843
853.78	22812
853.914	22816
854.048	22885
854.183	22877
854.317	22889
854.451	22987
854.585	22812
854.72	22820
854.854	22877
854.988	22778
855.122	22809
855.256	22691
855.39	22763
855.524	23010
855.658	22820
855.792	22866
855.926	22801
856.06	22862
856.194	22949
856.327	22793
856.461	22805
856.595	22729
856.729	22687
856.862	22965
856.996	22885
857.13	22858
857.263	22862
857.397	22850
857.53	22839
857.664	22885
857.797	22938
857.931	22957
858.064	22790
858.197	22915
858.331	22854
858.464	22664
858.597	22687
858.731	22706
858.864	22733
858.997	22725
859.13	22816
859.263	22953
859.396	22980
859.529	22805
859.662	22816
859.795	22809
859.928	22816
860.061	22946
860.194	22984
860.327	22869
860.46	22801
860.592	23025
860.725	22934
860.858	22919
860.99	22858
861.123	22786
861.256	22809
861.388	22706
861.521	23444
861.653	22645
861.786	22611
861.918	22675
862.05	22786
862.183	22809
862.315	22721
862.447	22694
862.58	22805
862.712	22573
862.844	22588
862.976	22584
863.108	22557
863.24	22987
863.372	22500
863.504	22447
863.636	22504
863.768	22569
863.9	22424
864.032	22508
864.164	22516
864.296	22451
864.428	22672
864.559	22481
864.691	22634
864.823	22573
864.954	22523
865.086	22386
865.217	22424
865.349	22417
865.48	22386
865.612	22417
865.743	22474
865.875	22375
866.006	22299
866.137	22325
866.269	22318
866.4	22337
866.531	22314
866.662	22325
866.793	22280
866.924	22341
867.055	22382
867.186	22398
867.317	22280
867.448	22173
867.579	22238
867.71	22257
867.841	22295
867.972	22470
868.103	22352
868.233	22280
868.364	22405
868.495	22451
868.625	22527
868.756	22679
868.886	22443
869.017	22573
869.147	22630
869.278	22603
869.408	22603
869.539	22592
869.669	22694
869.799	22656
869.929	22649
870.06	22580
870.19	22828
870.32	22797
870.45	22752
870.58	22984
870.71	23003
870.84	22991
870.97	22965
871.1	23060
871.23	23124
871.36	23109
871.489	23075
871.619	23056
871.749	23220
871.879	23273
872.008	23208
872.138	23102
872.267	23064
872.397	23006
872.526	23022
872.656	23029
872.785	23029
872.915	23284
873.044	23136
873.173	23258
873.303	23254
873.432	23220
873.561	23185
873.69	23246
873.819	23185
873.948	23235
874.077	23143
874.206	23079
874.335	23212
874.464	23288
874.593	23486
874.722	23349
874.851	23395
874.979	23554
875.108	23497
875.237	23254
875.365	23398
875.494	23296
875.623	23455
875.751	23414
875.88	23322
876.008	23531
876.136	23592
876.265	23920
876.393	23912
876.521	23665
876.65	23748
876.778	23733
876.906	23885
877.034	23756
877.162	23653
877.29	23531
877.418	23726
877.546	23657
877.674	23714
877.802	23687
877.93	23653
878.058	23764
878.185	23745
878.313	23638
878.441	23710
878.568	23585
878.696	23718
878.824	23703
878.951	23756
879.079	23885
879.206	24015
879.333	23885
879.461	23733
879.588	23832
879.715	23859
879.842	24018
879.97	23718
880.097	23600
880.224	23543
880.351	23577
880.478	23638
880.605	23558
880.732	23535
880.859	23836
880.986	23600
881.112	23429
881.239	23356
881.366	23326
881.493	23162
881.619	23174
881.746	23102
881.872	23159
881.999	23052
882.125	22984
882.252	23239
882.378	22995
882.505	23193
882.631	22904
882.757	22839
882.883	22896
883.01	22691
883.136	22763
883.262	22577
883.388	22531
883.514	22771
883.64	22763
883.766	22618
883.892	22459
884.018	22615
884.143	22649
884.269	22797
884.395	22523
884.52	22443
884.646	22428
884.772	22371
884.897	22390
885.023	22440
885.148	22561
885.274	22531
885.399	22489
885.524	22261
885.65	22421
885.775	22310
885.9	22306
886.025	22516
886.15	22508
886.275	22375
886.4	22306
886.525	22405
886.65	22310
886.775	22318
886.9	22481
887.025	22592
887.149	22447
887.274	21998
887.399	22150
887.523	22143
887.648	22059
887.773	21987
887.897	22181
888.021	22223
888.146	22116
888.27	22200
888.395	22234
888.519	22082
888.643	22150
888.767	22185
888.891	22086
889.015	21972
889.139	22105
889.263	22021
889.387	22036
889.511	22242
889.635	21926
889.759	22006
889.883	21991
890.006	21960
890.13	21991
890.254	21960
890.377	21755
890.501	21675
890.624	21667
890.748	21694
890.871	21523
890.995	21412
891.118	21504
891.241	21473
891.364	21568
891.488	21637
891.611	21382
891.734	21557
891.857	21519
891.98	21572
892.103	21492
892.226	21416
892.349	21428
892.471	21256
892.594	21374
892.717	21386
892.839	21367
892.962	21458
893.085	21306
893.207	21340
893.33	21264
893.452	21264
893.575	21378
893.697	21329
893.819	21450
893.941	21549
894.064	21401
894.186	21428
894.308	21302
894.43	21485
894.552	21405
894.674	21424
894.796	21287
894.918	21340
895.04	21237
895.161	21428
895.283	21420
895.405	21351
895.526	21378
895.648	21340
895.769	21344
895.891	21401
896.012	21408
896.134	21348
896.255	21367
896.376	21344
896.498	21351
896.619	21431
896.74	21393
896.861	21325
896.982	21679
897.103	21720
897.224	21667
897.345	21580
897.466	21511
897.587	21576
897.708	21671
897.828	21576
897.949	21462
898.07	21401
898.19	21439
898.311	21747
898.431	21549
898.552	21568
898.672	21545
898.792	21530
898.913	21519
899.033	21485
899.153	21344
899.273	21176
899.393	21283
899.513	21188
899.633	21268
899.753	21374
899.873	21085
899.993	21272
900.113	21344
900.232	21146
900.352	21062
900.472	20998
900.591	21005
900.711	21093
900.83	20910
900.95	21146
901.069	21157
901.189	20872
901.308	20678
901.427	20689
901.546	20598
901.665	20701
901.784	20533
901.904	20556
902.023	20294
902.141	20149
902.26	20046
902.379	20054
902.498	20008
902.617	20046
902.735	20233
902.854	19978
902.973	20031
903.091	19772
903.21	19719
903.328	19826
903.446	19639
903.565	19521
903.683	19529
903.801	19392
903.919	19468
904.038	19403
904.156	19293
904.274	19339
904.392	19217
904.51	19324
904.627	19320
904.745	19320
904.863	19297
904.981	19065
905.098	18993
905.216	19053
905.334	19038
905.451	18939
905.569	19076
905.686	18996
905.803	18966
905.921	18738
906.038	18863
906.155	18760
906.272	18601
906.389	18570
906.506	18380
906.623	18452
906.74	18528
906.857	18369
906.974	18414
907.091	18707
907.208	18601
907.324	18429
907.441	18445
907.557	18235
907.674	18209
907.79	18011
907.907	18155
908.023	18205
908.139	18197
908.256	18140
908.372	18076
908.488	18117
908.604	17874
908.72	17912
908.836	17916
908.952	17916
909.068	17927
909.184	18053
909.3	17775
909.415	17851
909.531	17836
909.647	17752
909.762	17615
909.878	17687
909.993	17714
910.108	17634
910.224	17535
910.339	17566
910.454	17554
910.57	17322
910.685	17330
910.8	17589
910.915	17493
911.03	17391
911.145	17265
911.259	17181
911.374	17189
911.489	17083
911.604	17003
911.718	16999
911.833	16866
911.947	16824
912.062	16733
912.176	16968
912.291	16957
912.405	16847
912.519	17098
912.633	17052
912.748	16999
912.862	16927
912.976	16725
913.09	16626
913.204	16736
913.318	16660
913.431	16828
913.545	16812
913.659	16790
913.772	16649
913.886	16546
914	16485
914.113	16634
914.226	16596
914.34	16421
914.453	16386
914.566	16531
914.68	16356
914.793	16493
914.906	16166
915.019	16173
915.132	16051
915.245	16120
915.358	16135
915.47	16093
915.583	15991
915.696	16128
915.809	16169
915.921	16238
916.034	16021
916.146	15911
916.259	15869
916.371	16158
916.483	15998
916.595	15930
916.708	15781
916.82	15884
916.932	15956
917.044	15766
917.156	15850
917.268	15694
917.38	15739
917.491	15682
917.603	15641
917.715	15747
917.826	15800
917.938	15614
918.049	15473
918.161	15587
918.272	15709
918.384	15713
918.495	15526
918.606	15420
918.717	15420
918.828	15443
918.939	15378
919.05	15416
919.161	15313
919.272	15161
919.383	15283
919.494	15492
919.604	15618
919.715	15397
919.826	15378
919.936	15344
920.047	15412
920.157	15382
920.267	15549
920.378	15386
920.488	15256
920.598	15530
920.708	15648
920.818	15408
920.928	15481
921.038	15694
921.148	15553
921.258	15264
921.368	15355
921.477	15039
921.587	15123
921.697	14853
921.806	15070
921.916	14971
922.025	14804
922.134	14750
922.244	14621
922.353	14743
922.462	14564
922.571	14587
922.68	14450
922.789	14358
922.898	14419
923.007	14286
923.116	14385
923.224	14347
923.333	14282
923.442	14164
923.55	14168
923.659	14286
923.767	14347
923.876	14119
923.984	14161
924.092	14100
924.201	14111
924.309	14115
924.417	14058
924.525	14046
924.633	14046
924.741	14834
924.849	13753
924.956	13932
925.064	13723
925.172	13731
925.279	13708
925.387	13757
925.494	13715
925.602	13921
925.709	13719
925.816	13696
925.924	13670
926.031	13757
926.138	13696
926.245	13780
926.352	13563
926.459	13681
926.566	13685
926.673	13715
926.779	13483
926.886	13457
926.993	13403
927.099	13187
927.206	13247
927.312	13198
927.419	13301
927.525	13251
927.631	13312
927.737	13175
927.843	13114
927.95	12951
928.056	12954
928.162	13118
928.267	13095
928.373	13639
928.479	13129
928.585	12913
928.69	13000
928.796	13072
928.901	12993
929.007	12726
929.112	12924
929.218	12882
929.323	12798
929.428	12844
929.533	12905
929.638	12700
929.743	12730
929.848	12730
929.953	12787
930.058	12570
930.163	12418
930.267	12376
930.372	12525
930.477	12464
930.581	12620
930.685	12429
930.79	12285
930.894	12365
930.998	12361
931.103	12353
931.207	12083
931.311	11984
931.415	11931
931.519	11619
931.623	11722
