Data from test_V78500241_2675.txt Node
Date: Fri Mar 25 16:00:19 CST 2022
User: usil
Spectrometer: V785-0024
Trigger mode: 0
Integration Time (sec): 4.000000E-1
Scans to average: 1
Nonlinearity correction enabled: false
Boxcar width: 0
Storing dark spectrum: false
XAxis mode: Wavelengths
Number of Pixels in Spectrum: 1024
>>>>>Begin Spectral Data<<<<<
801.071	28854
801.214	28866
801.356	28702
801.499	28493
801.641	28360
801.783	28447
801.926	28356
802.068	28398
802.211	28386
802.353	28242
802.496	28131
802.638	28128
802.78	28105
802.923	28128
803.065	28013
803.208	27968
803.35	28188
803.492	28295
803.635	28322
803.777	28223
803.919	28462
804.061	28656
804.204	28421
804.346	28363
804.488	28329
804.63	28440
804.773	28348
804.915	28337
805.057	28516
805.199	28287
805.341	28508
805.483	28493
805.626	28432
805.768	28379
805.91	28474
806.052	28622
806.194	28519
806.336	28679
806.478	28546
806.62	28664
806.762	28569
806.904	28729
807.046	29025
807.188	28869
807.33	28828
807.472	29102
807.614	28896
807.756	29010
807.898	28835
808.04	28713
808.182	28771
808.324	28953
808.465	28995
808.607	29178
808.749	29189
808.891	29235
809.033	29356
809.174	29204
809.316	29128
809.458	29189
809.6	29227
809.741	29277
809.883	29273
810.025	29482
810.166	29490
810.308	29543
810.45	29429
810.591	29334
810.733	29379
810.875	29220
811.016	29277
811.158	29018
811.299	29227
811.441	29398
811.582	29318
811.724	29193
811.865	29094
812.007	29311
812.148	29170
812.29	29261
812.431	29448
812.573	29661
812.714	29661
812.855	29657
812.997	29718
813.138	29996
813.279	29809
813.421	29733
813.562	29752
813.703	29672
813.845	29455
813.986	29326
814.127	29033
814.268	28934
814.41	29033
814.551	28831
814.692	28995
814.833	28847
814.974	28892
815.115	29029
815.256	28824
815.397	28892
815.539	28854
815.68	28736
815.821	28778
815.962	28763
816.103	28634
816.244	28706
816.385	28550
816.526	28421
816.666	28386
816.807	28303
816.948	28398
817.089	28310
817.23	28363
817.371	28173
817.512	28284
817.653	28112
817.793	28158
817.934	28219
818.075	28295
818.216	28344
818.356	28200
818.497	28097
818.638	27918
818.778	27994
818.919	28086
819.06	28021
819.2	28177
819.341	28257
819.481	28204
819.622	28421
819.762	28615
819.903	28538
820.043	28413
820.184	28386
820.324	28318
820.465	28489
820.605	28447
820.746	28360
820.886	28329
821.026	28211
821.167	28257
821.307	28310
821.447	28299
821.588	28242
821.728	27930
821.868	27880
822.008	27800
822.149	27663
822.289	27800
822.429	27549
822.569	27336
822.709	27458
822.849	27313
822.99	27233
823.13	27279
823.27	27298
823.41	27123
823.55	26982
823.69	27051
823.83	27142
823.97	27077
824.11	26842
824.25	26864
824.389	26933
824.529	27024
824.669	26826
824.809	26975
824.949	27058
825.089	27032
825.228	26864
825.368	26701
825.508	26792
825.648	26765
825.787	26815
825.927	26819
826.067	26880
826.206	26910
826.346	26823
826.485	26807
826.625	26823
826.765	27051
826.904	26823
827.044	26636
827.183	26686
827.323	26488
827.462	26552
827.601	26568
827.741	26594
827.88	26522
828.02	26336
828.159	26469
828.298	26594
828.437	26465
828.577	26309
828.716	26590
828.855	26347
828.994	26103
829.134	26092
829.273	26294
829.412	26115
829.551	26065
829.69	26176
829.829	26168
829.968	26343
830.107	26244
830.246	26115
830.385	26233
830.524	26107
830.663	26073
830.802	25909
830.941	25864
831.08	25586
831.219	25795
831.357	25898
831.496	26005
831.635	25715
831.774	25658
831.913	25727
832.051	25655
832.19	25529
832.329	25651
832.467	25499
832.606	25601
832.744	25270
832.883	25419
833.022	25479
833.16	25483
833.299	25426
833.437	25548
833.576	25521
833.714	25491
833.852	25457
833.991	25453
834.129	25590
834.267	25700
834.406	25506
834.544	25540
834.682	25525
834.821	25525
834.959	25693
835.097	25472
835.235	25464
835.373	25449
835.511	25586
835.65	25270
835.788	25282
835.926	25095
836.064	25084
836.202	25274
836.34	25362
836.478	25479
836.615	25301
836.753	25304
836.891	25263
837.029	25441
837.167	25270
837.305	25148
837.443	25145
837.58	25061
837.718	25213
837.856	25225
837.993	25126
838.131	25065
838.269	24943
838.406	25110
838.544	24951
838.681	24738
838.819	24627
838.956	24722
839.094	24525
839.231	24642
839.369	24787
839.506	25099
839.643	24840
839.781	24787
839.918	24578
840.055	24684
840.193	24669
840.33	24566
840.467	24661
840.604	24578
840.742	24837
840.879	24380
841.016	24346
841.153	24357
841.29	24612
841.427	24627
841.564	24639
841.701	24403
841.838	24357
841.975	24388
842.112	24494
842.249	24456
842.385	24334
842.522	24498
842.659	24353
842.796	24426
842.933	24361
843.069	24178
843.206	24194
843.343	24292
843.479	24346
843.616	24171
843.752	24106
843.889	24079
844.025	24209
844.162	23977
844.298	24194
844.435	23988
844.571	24053
844.708	24087
844.844	24277
844.98	24239
845.117	24007
845.253	23882
845.389	23969
845.525	23931
845.661	23897
845.798	23718
845.934	23901
846.07	23824
846.206	23775
846.342	23832
846.478	23775
846.614	23695
846.75	23501
846.886	23410
847.022	23611
847.158	23608
847.294	23444
847.429	23554
847.565	23520
847.701	23805
847.837	23239
847.972	23299
848.108	23383
848.244	23330
848.379	23231
848.515	23105
848.65	23151
848.786	23090
848.921	23242
849.057	23128
849.192	23258
849.328	23193
849.463	23178
849.598	22904
849.734	23014
849.869	22923
850.004	22847
850.14	22900
850.275	22911
850.41	22797
850.545	22675
850.68	22896
850.815	22885
850.95	22812
851.085	22972
851.22	22904
851.355	22809
851.49	22736
851.625	22854
851.76	22812
851.895	22812
852.03	22752
852.165	22824
852.299	22850
852.434	22820
852.569	22923
852.703	22900
852.838	22934
852.973	22987
853.107	23018
853.242	22820
853.376	22729
853.511	22588
853.645	22702
853.78	22797
853.914	22637
854.048	22603
854.183	22702
854.317	22725
854.451	22816
854.585	22710
854.72	22702
854.854	22759
854.988	22744
855.122	22634
855.256	22611
855.39	22630
855.524	22698
855.658	22687
855.792	22603
855.926	22782
856.06	22801
856.194	22786
856.327	22698
856.461	22538
856.595	22656
856.729	22615
856.862	22763
856.996	22843
857.13	22664
857.263	22812
857.397	22725
857.53	22702
857.664	22774
857.797	22721
857.931	22721
858.064	22698
858.197	22691
858.331	22596
858.464	22736
858.597	22691
858.731	22592
858.864	22512
858.997	22649
859.13	22660
859.263	22691
859.396	22641
859.529	22653
859.662	22561
859.795	22519
859.928	22653
860.061	22885
860.194	22767
860.327	22687
860.46	22675
860.592	22873
860.725	22797
860.858	22736
860.99	22710
861.123	22599
861.256	22622
861.388	22626
861.521	23387
861.653	22615
861.786	22535
861.918	22569
862.05	22523
862.183	22519
862.315	22618
862.447	22630
862.58	22500
862.712	22455
862.844	22367
862.976	22535
863.108	22428
863.24	22900
863.372	22318
863.504	22363
863.636	22489
863.768	22474
863.9	22577
864.032	22344
864.164	22337
864.296	22417
864.428	22531
864.559	22421
864.691	22428
864.823	22394
864.954	22371
865.086	22261
865.217	22299
865.349	22219
865.48	22238
865.612	22253
865.743	22261
865.875	22207
866.006	22341
866.137	22367
866.269	22257
866.4	22173
866.531	22253
866.662	22116
866.793	22124
866.924	22097
867.055	22238
867.186	22116
867.317	22131
867.448	22002
867.579	22188
867.71	22116
867.841	22116
867.972	22211
868.103	22097
868.233	22234
868.364	22299
868.495	22329
868.625	22398
868.756	22584
868.886	22382
869.017	22382
869.147	22470
869.278	22451
869.408	22413
869.539	22417
869.669	22424
869.799	22386
869.929	22592
870.06	22580
870.19	22679
870.32	22710
870.45	22782
870.58	22767
870.71	22843
870.84	23056
870.97	22908
871.1	22828
871.23	22953
871.36	22991
871.489	22915
871.619	22946
871.749	23029
871.879	23018
872.008	23025
872.138	22961
872.267	23083
872.397	22854
872.526	22957
872.656	22957
872.785	22759
872.915	22995
873.044	23044
873.173	23048
873.303	23178
873.432	23056
873.561	23189
873.69	22976
873.819	23098
873.948	23223
874.077	23128
874.206	23052
874.335	23094
874.464	23079
874.593	23368
874.722	23322
874.851	23204
874.979	23322
875.108	23410
875.237	23220
875.365	23102
875.494	23258
875.623	23391
875.751	23151
875.88	23296
876.008	23337
876.136	23440
876.265	23642
876.393	23775
876.521	23764
876.65	23707
876.778	23649
876.906	23592
877.034	23623
877.162	23608
877.29	23512
877.418	23467
877.546	23592
877.674	23482
877.802	23562
877.93	23581
878.058	23558
878.185	23520
878.313	23478
878.441	23589
878.568	23463
878.696	23463
878.824	23433
878.951	23630
879.079	23646
879.206	23771
879.333	23676
879.461	23596
879.588	23813
879.715	23767
879.842	23958
879.97	23623
880.097	23448
880.224	23387
880.351	23486
880.478	23337
880.605	23429
880.732	23486
880.859	23596
880.986	23299
881.112	23379
881.239	23292
881.366	23136
881.493	23048
881.619	22980
881.746	22965
881.872	23044
881.999	23056
882.125	22881
882.252	23018
882.378	22957
882.505	23010
882.631	22862
882.757	22752
882.883	22797
883.01	22592
883.136	22611
883.262	22432
883.388	22504
883.514	22664
883.64	22626
883.766	22542
883.892	22379
884.018	22402
884.143	22607
884.269	22565
884.395	22196
884.52	22211
884.646	22303
884.772	22333
884.897	22367
885.023	22272
885.148	22341
885.274	22322
885.399	22360
885.524	22265
885.65	22268
885.775	22204
885.9	22177
886.025	22322
886.15	22413
886.275	22185
886.4	22185
886.525	22409
886.65	22181
886.775	22112
886.9	22287
887.025	22379
887.149	22325
887.274	22116
887.399	22105
887.523	22013
887.648	22093
887.773	21972
887.897	22040
888.021	22173
888.146	22032
888.27	22154
888.395	22154
888.519	22010
888.643	22055
888.767	22112
888.891	22029
889.015	21857
889.139	21930
889.263	21751
889.387	21903
889.511	22051
889.635	21945
889.759	21793
889.883	21827
890.006	21800
890.13	21918
890.254	21675
890.377	21823
890.501	21637
890.624	21595
890.748	21576
890.871	21500
890.995	21351
891.118	21340
891.241	21313
891.364	21370
891.488	21466
891.611	21443
891.734	21355
891.857	21412
891.98	21344
892.103	21317
892.226	21431
892.349	21317
892.471	21131
892.594	21294
892.717	21268
892.839	21298
892.962	21264
893.085	21218
893.207	21203
893.33	21150
893.452	21127
893.575	21344
893.697	21275
893.819	21313
893.941	21439
894.064	21443
894.186	21154
894.308	21013
894.43	21313
894.552	21351
894.674	21291
894.796	21142
894.918	21169
895.04	21222
895.161	21264
895.283	21279
895.405	21157
895.526	21146
895.648	21226
895.769	21233
895.891	21169
896.012	21268
896.134	21310
896.255	21184
896.376	21135
896.498	21287
896.619	21230
896.74	21268
896.861	21199
896.982	21568
897.103	21663
897.224	21549
897.345	21469
897.466	21538
897.587	21359
897.708	21595
897.828	21469
897.949	21428
898.07	21199
898.19	21306
898.311	21507
898.431	21374
898.552	21359
898.672	21420
898.792	21374
898.913	21439
899.033	21298
899.153	21321
899.273	21009
899.393	21203
899.513	21222
899.633	21085
899.753	21165
899.873	21081
899.993	21173
900.113	21112
900.232	21119
900.352	21036
900.472	21028
900.591	20944
900.711	20941
900.83	20979
900.95	20975
901.069	21043
901.189	20811
901.308	20503
901.427	20457
901.546	20537
901.665	20488
901.784	20495
901.904	20259
902.023	20199
902.141	20103
902.26	20012
902.379	20100
902.498	19826
902.617	19970
902.735	20046
902.854	19963
902.973	19784
903.091	19712
903.21	19453
903.328	19658
903.446	19628
903.565	19400
903.683	19430
903.801	19312
903.919	19518
904.038	19308
904.156	19183
904.274	19244
904.392	19240
904.51	19164
904.627	19255
904.745	19263
904.863	19187
904.981	19031
905.098	18985
905.216	18844
905.334	18844
905.451	18954
905.569	18730
905.686	18909
905.803	18875
905.921	18681
906.038	18722
906.155	18601
906.272	18551
906.389	18597
906.506	18319
906.623	18338
906.74	18410
906.857	18334
906.974	18327
907.091	18479
907.208	18513
907.324	18429
907.441	18190
907.557	18163
907.674	18148
907.79	18003
907.907	18110
908.023	18022
908.139	18003
908.256	18079
908.372	17885
908.488	17996
908.604	17927
908.72	17824
908.836	17798
908.952	17794
909.068	17904
909.184	17901
909.3	17942
909.415	17832
909.531	17821
909.647	17524
909.762	17520
909.878	17497
909.993	17570
910.108	17478
910.224	17573
910.339	17402
910.454	17242
910.57	17330
910.685	17208
910.8	17463
910.915	17398
911.03	17345
911.145	17037
911.259	17067
911.374	17083
911.489	17064
911.604	17010
911.718	16896
911.833	16881
911.947	16797
912.062	16679
912.176	16733
912.291	16824
912.405	16850
912.519	17018
912.633	17014
912.748	16782
912.862	16748
912.976	16607
913.09	16546
913.204	16607
913.318	16653
913.431	16656
913.545	16668
913.659	16736
913.772	16607
913.886	16440
914	16424
914.113	16512
914.226	16512
914.34	16485
914.453	16230
914.566	16474
914.68	16325
914.793	16207
914.906	16090
915.019	15895
915.132	15873
915.245	15987
915.358	15994
915.47	15979
915.583	15937
915.696	15918
915.809	16013
915.921	16154
916.034	15869
916.146	15846
916.259	15865
916.371	15949
916.483	15915
916.595	15857
916.708	15793
916.82	15823
916.932	15633
917.044	15701
917.156	15793
917.268	15610
917.38	15660
917.491	15561
917.603	15557
917.715	15682
917.826	15599
917.938	15591
918.049	15412
918.161	15564
918.272	15629
918.384	15637
918.495	15473
918.606	15321
918.717	15275
918.828	15416
918.939	15302
919.05	15226
919.161	15370
919.272	15218
919.383	15192
919.494	15378
919.604	15488
919.715	15203
919.826	15298
919.936	15329
920.047	15447
920.157	15275
920.267	15401
920.378	15386
920.488	15283
920.598	15439
920.708	15568
920.818	15370
920.928	15363
921.038	15534
921.148	15447
921.258	15279
921.368	15119
921.477	14998
921.587	14944
921.697	14838
921.806	15055
921.916	14864
922.025	14705
922.134	14610
922.244	14606
922.353	14663
922.462	14579
922.571	14495
922.68	14324
922.789	14309
922.898	14275
923.007	14229
923.116	14290
923.224	14317
923.333	14218
923.442	14096
923.55	14062
923.659	14016
923.767	14088
923.876	14024
923.984	14130
924.092	13974
924.201	14081
924.309	13940
924.417	14024
924.525	13887
924.633	13967
924.741	14773
924.849	13689
924.956	13841
925.064	13670
925.172	13628
925.279	13666
925.387	13693
925.494	13651
925.602	13738
925.709	13685
925.816	13548
925.924	13571
926.031	13590
926.138	13525
926.245	13689
926.352	13457
926.459	13624
926.566	13651
926.673	13525
926.779	13369
926.886	13483
926.993	13304
927.099	13175
927.206	13110
927.312	13171
927.419	13274
927.525	13168
927.631	13225
927.737	13057
927.843	13008
927.95	12894
928.056	13008
928.162	13008
928.267	13061
928.373	13559
928.479	13057
928.585	12772
928.69	13023
928.796	12970
928.901	12867
929.007	12764
929.112	12878
929.218	12825
929.323	12722
929.428	12711
929.533	12859
929.638	12627
929.743	12665
929.848	12696
929.953	12662
930.058	12532
930.163	12350
930.267	12361
930.372	12570
930.477	12376
930.581	12642
930.685	12353
930.79	12365
930.894	12243
930.998	12216
931.103	12357
931.207	11965
931.311	11923
931.415	11786
931.519	11627
931.623	11573
