Data from test_V78500241_861.txt Node
Date: Fri Mar 25 15:47:45 CST 2022
User: usil
Spectrometer: V785-0024
Trigger mode: 0
Integration Time (sec): 4.000000E-1
Scans to average: 1
Nonlinearity correction enabled: false
Boxcar width: 0
Storing dark spectrum: false
XAxis mode: Wavelengths
Number of Pixels in Spectrum: 1024
>>>>>Begin Spectral Data<<<<<
801.071	28101
801.214	28067
801.356	27679
801.499	27667
801.641	27389
801.783	27534
801.926	27690
802.068	27557
802.211	27439
802.353	27408
802.496	27279
802.638	27405
802.78	27222
802.923	27233
803.065	27184
803.208	27226
803.35	27336
803.492	27207
803.635	27374
803.777	27157
803.919	27363
804.061	27808
804.204	27443
804.346	27427
804.488	27378
804.63	27488
804.773	27279
804.915	27542
805.057	27542
805.199	27492
805.341	27614
805.483	27526
805.626	27599
805.768	27325
805.91	27603
806.052	27561
806.194	27538
806.336	27842
806.478	27572
806.62	27713
806.762	27587
806.904	27850
807.046	28086
807.188	27972
807.33	27987
807.472	28131
807.614	27850
807.756	27884
807.898	27937
808.04	27759
808.182	27888
808.324	27895
808.465	27831
808.607	28051
808.749	28238
808.891	28284
809.033	28493
809.174	28333
809.316	28207
809.458	28401
809.6	28067
809.741	28390
809.883	28443
810.025	28474
810.166	28599
810.308	28599
810.45	28519
810.591	28401
810.733	28272
810.875	28268
811.016	28112
811.158	28135
811.299	28394
811.441	28474
811.582	28451
811.724	28310
811.865	28223
812.007	28246
812.148	28200
812.29	28291
812.431	28310
812.573	28516
812.714	28713
812.855	28649
812.997	28930
813.138	28965
813.279	28831
813.421	28782
813.562	28691
813.703	28569
813.845	28455
813.986	28173
814.127	28029
814.268	27968
814.41	27926
814.551	27842
814.692	28017
814.833	27774
814.974	28002
815.115	27888
815.256	27747
815.397	27930
815.539	27682
815.68	27637
815.821	27625
815.962	27770
816.103	27717
816.244	27553
816.385	27458
816.526	27443
816.666	27332
816.807	27119
816.948	27321
817.089	27363
817.23	27192
817.371	27192
817.512	27230
817.653	27173
817.793	27093
817.934	27207
818.075	27264
818.216	27195
818.356	27195
818.497	27188
818.638	26918
818.778	26960
818.919	27001
819.06	27043
819.2	27154
819.341	27218
819.481	27154
819.622	27363
819.762	27698
819.903	27572
820.043	27462
820.184	27405
820.324	27348
820.465	27321
820.605	27443
820.746	27321
820.886	27195
821.026	27245
821.167	27329
821.307	27435
821.447	27260
821.588	27218
821.728	27032
821.868	27001
822.008	26670
822.149	26720
822.289	26712
822.429	26385
822.569	26427
822.709	26434
822.849	26237
822.99	26393
823.13	26252
823.27	26122
823.41	26077
823.55	26001
823.69	25986
823.83	25966
823.97	26001
824.11	25738
824.25	25833
824.389	25928
824.529	25944
824.669	25928
824.809	25955
824.949	25875
825.089	25917
825.228	26001
825.368	25708
825.508	25685
825.648	25898
825.787	25837
825.927	25852
826.067	25811
826.206	25693
826.346	25845
826.485	25852
826.625	25788
826.765	25879
826.904	25776
827.044	25594
827.183	25540
827.323	25426
827.462	25552
827.601	25441
827.741	25445
827.88	25460
828.02	25244
828.159	25441
828.298	25400
828.437	25552
828.577	25449
828.716	25609
828.855	25457
828.994	25202
829.134	25137
829.273	25187
829.412	25141
829.551	25175
829.69	25270
829.829	25091
829.968	25244
830.107	25362
830.246	25088
830.385	25141
830.524	24913
830.663	24909
830.802	24871
830.941	24886
831.08	24741
831.219	24837
831.357	24852
831.496	24939
831.635	24783
831.774	24764
831.913	24650
832.051	24703
832.19	24623
832.329	24525
832.467	24445
832.606	24525
832.744	24414
832.883	24410
833.022	24414
833.16	24422
833.299	24608
833.437	24502
833.576	24635
833.714	24441
833.852	24471
833.991	24509
834.129	24631
834.267	24505
834.406	24494
834.544	24528
834.682	24437
834.821	24479
834.959	24604
835.097	24414
835.235	24608
835.373	24559
835.511	24498
835.65	24414
835.788	24342
835.926	24346
836.064	24098
836.202	24148
836.34	24327
836.478	24437
836.615	24232
836.753	24270
836.891	24338
837.029	24338
837.167	24186
837.305	24220
837.443	24182
837.58	24072
837.718	24220
837.856	24258
837.993	24087
838.131	24148
838.269	23912
838.406	24178
838.544	23904
838.681	23836
838.819	23859
838.956	23665
839.094	23657
839.231	23726
839.369	23802
839.506	24022
839.643	23779
839.781	23585
839.918	23547
840.055	23520
840.193	23581
840.33	23562
840.467	23493
840.604	23646
840.742	23961
840.879	23539
841.016	23414
841.153	23391
841.29	23547
841.427	23558
841.564	23592
841.701	23376
841.838	23379
841.975	23512
842.112	23402
842.249	23349
842.385	23239
842.522	23608
842.659	23440
842.796	23337
842.933	23303
843.069	23345
843.206	23197
843.343	23429
843.479	23307
843.616	23421
843.752	23044
843.889	22961
844.025	23124
844.162	23094
844.298	23147
844.435	22991
844.571	23075
844.708	23197
844.844	23185
844.98	23193
845.117	23113
845.253	23014
845.389	22927
845.525	22946
845.661	23025
845.798	22885
845.934	22771
846.07	22820
846.206	22774
846.342	22976
846.478	22820
846.614	22561
846.75	22424
846.886	22645
847.022	22580
847.158	22504
847.294	22542
847.429	22474
847.565	22466
847.701	22782
847.837	22257
847.972	22295
848.108	22306
848.244	22413
848.379	22169
848.515	22090
848.65	22177
848.786	22234
848.921	22120
849.057	22185
849.192	22265
849.328	22169
849.463	21994
849.598	22017
849.734	22051
849.869	21964
850.004	21918
850.14	21827
850.275	21941
850.41	21812
850.545	21724
850.68	21873
850.815	21823
850.95	22044
851.085	22162
851.22	22017
851.355	21964
851.49	21888
851.625	21907
851.76	21846
851.895	21797
852.03	21804
852.165	21873
852.299	21899
852.434	21949
852.569	21941
852.703	21850
852.838	21926
852.973	21998
853.107	22032
853.242	21861
853.376	21774
853.511	21739
853.645	21587
853.78	21873
853.914	21671
854.048	21652
854.183	21663
854.317	21736
854.451	21937
854.585	21705
854.72	21747
854.854	21713
854.988	21572
855.122	21576
855.256	21660
855.39	21675
855.524	21705
855.658	21766
855.792	21732
855.926	21724
856.06	21835
856.194	21819
856.327	21800
856.461	21622
856.595	21580
856.729	21637
856.862	21789
856.996	21690
857.13	21705
857.263	21781
857.397	21720
857.53	21724
857.664	21698
857.797	21781
857.931	21759
858.064	21728
858.197	21713
858.331	21679
858.464	21587
858.597	21549
858.731	21625
858.864	21637
858.997	21690
859.13	21698
859.263	21633
859.396	21835
859.529	21637
859.662	21785
859.795	21644
859.928	21682
860.061	21846
860.194	21964
860.327	21728
860.46	21755
860.592	21789
860.725	21876
860.858	21827
860.99	21827
861.123	21675
861.256	21713
861.388	21717
861.521	22333
861.653	21606
861.786	21466
861.918	21568
862.05	21686
862.183	21603
862.315	21694
862.447	21717
862.58	21660
862.712	21386
862.844	21310
862.976	21500
863.108	21545
863.24	21892
863.372	21454
863.504	21435
863.636	21313
863.768	21416
863.9	21538
864.032	21302
864.164	21344
864.296	21321
864.428	21534
864.559	21389
864.691	21424
864.823	21428
864.954	21481
865.086	21367
865.217	21317
865.349	21195
865.48	21302
865.612	21332
865.743	21401
865.875	21272
866.006	21237
866.137	21447
866.269	21401
866.4	21199
866.531	21264
866.662	21157
866.793	21100
866.924	21359
867.055	21260
867.186	21272
867.317	21161
867.448	21116
867.579	21283
867.71	21108
867.841	21154
867.972	21142
868.103	21207
868.233	21272
868.364	21161
868.495	21298
868.625	21412
868.756	21633
868.886	21359
869.017	21530
869.147	21637
869.278	21564
869.408	21450
869.539	21408
869.669	21622
869.799	21481
869.929	21713
870.06	21595
870.19	21762
870.32	21622
870.45	21873
870.58	21991
870.71	21880
870.84	21934
870.97	21717
871.1	21895
871.23	22055
871.36	22166
871.489	21918
871.619	21949
871.749	22029
871.879	22120
872.008	22143
872.138	21979
872.267	22112
872.397	21937
872.526	21846
872.656	21884
872.785	21823
872.915	22207
873.044	22120
873.173	22090
873.303	22226
873.432	22059
873.561	22257
873.69	22284
873.819	22124
873.948	22120
874.077	22109
874.206	22017
874.335	22109
874.464	22211
874.593	22356
874.722	22215
874.851	22375
874.979	22295
875.108	22382
875.237	22181
875.365	22196
875.494	22318
875.623	22382
875.751	22215
875.88	22356
876.008	22432
876.136	22497
876.265	22763
876.393	22733
876.521	22793
876.65	22721
876.778	22847
876.906	22588
877.034	22641
877.162	22653
877.29	22565
877.418	22694
877.546	22691
877.674	22675
877.802	22573
877.93	22626
878.058	22672
878.185	22436
878.313	22546
878.441	22653
878.568	22531
878.696	22580
878.824	22622
878.951	22805
879.079	22801
879.206	22930
879.333	22809
879.461	22706
879.588	22793
879.715	22782
879.842	22824
879.97	22710
880.097	22481
880.224	22504
880.351	22603
880.478	22447
880.605	22474
880.732	22489
880.859	22599
880.986	22481
881.112	22466
881.239	22417
881.366	22280
881.493	22226
881.619	22070
881.746	21998
881.872	21979
881.999	22017
882.125	21930
882.252	22040
882.378	21998
882.505	22078
882.631	21873
882.757	21660
882.883	21835
883.01	21736
883.136	21709
883.262	21663
883.388	21648
883.514	21808
883.64	21682
883.766	21622
883.892	21530
884.018	21591
884.143	21698
884.269	21679
884.395	21526
884.52	21329
884.646	21389
884.772	21298
884.897	21302
885.023	21454
885.148	21492
885.274	21401
885.399	21378
885.524	21393
885.65	21389
885.775	21481
885.9	21336
886.025	21450
886.15	21412
886.275	21405
886.4	21245
886.525	21363
886.65	21329
886.775	21329
886.9	21507
887.025	21553
887.149	21359
887.274	21112
887.399	21112
887.523	21028
887.648	21081
887.773	21028
887.897	21146
888.021	21142
888.146	21085
888.27	21211
888.395	21199
888.519	21104
888.643	21226
888.767	21165
888.891	21127
889.015	21013
889.139	21009
889.263	20982
889.387	20960
889.511	21066
889.635	21001
889.759	20895
889.883	20800
890.006	20967
890.13	21013
890.254	20788
890.377	20731
890.501	20754
890.624	20636
890.748	20663
890.871	20533
890.995	20488
891.118	20492
891.241	20587
891.364	20469
891.488	20674
891.611	20461
891.734	20495
891.857	20552
891.98	20473
892.103	20442
892.226	20457
892.349	20492
892.471	20355
892.594	20526
892.717	20457
892.839	20313
892.962	20450
893.085	20415
893.207	20438
893.33	20233
893.452	20396
893.575	20442
893.697	20252
893.819	20621
893.941	20579
894.064	20511
894.186	20358
894.308	20343
894.43	20587
894.552	20663
894.674	20526
894.796	20305
894.918	20358
895.04	20377
895.161	20473
895.283	20480
895.405	20358
895.526	20263
895.648	20301
895.769	20362
895.891	20377
896.012	20587
896.134	20454
896.255	20427
896.376	20450
896.498	20431
896.619	20454
896.74	20339
896.861	20484
896.982	20758
897.103	20876
897.224	20781
897.345	20609
897.466	20541
897.587	20571
897.708	20705
897.828	20644
897.949	20564
898.07	20492
898.19	20511
898.311	20724
898.431	20571
898.552	20545
898.672	20743
898.792	20689
898.913	20533
899.033	20454
899.153	20396
899.273	20320
899.393	20358
899.513	20393
899.633	20301
899.753	20457
899.873	20309
899.993	20385
900.113	20278
900.232	20259
900.352	20183
900.472	20145
900.591	20096
900.711	20088
900.83	20138
900.95	20244
901.069	20050
901.189	19989
901.308	19791
901.427	19613
901.546	19601
901.665	19765
901.784	19658
901.904	19670
902.023	19460
902.141	19327
902.26	19225
902.379	19403
902.498	19232
902.617	19141
902.735	19362
902.854	19240
902.973	19141
903.091	18894
903.21	18890
903.328	18722
903.446	18856
903.565	18757
903.683	18730
903.801	18665
903.919	18795
904.038	18604
904.156	18483
904.274	18479
904.392	18437
904.51	18365
904.627	18399
904.745	18525
904.863	18467
904.981	18292
905.098	18072
905.216	18106
905.334	18190
905.451	18095
905.569	18174
905.686	18232
905.803	18125
905.921	18015
906.038	18011
906.155	17939
906.272	17809
906.389	17805
906.506	17604
906.623	17691
906.74	17687
906.857	17577
906.974	17520
907.091	17737
907.208	17737
907.324	17737
907.441	17581
907.557	17379
907.674	17364
907.79	17284
907.907	17353
908.023	17318
908.139	17467
908.256	17254
908.372	17296
908.488	17178
908.604	17140
908.72	17151
908.836	17147
908.952	17003
909.068	17105
909.184	17147
909.3	17079
909.415	17124
909.531	17056
909.647	16790
909.762	16763
909.878	16892
909.993	16824
910.108	16824
910.224	16778
910.339	16672
910.454	16668
910.57	16691
910.685	16561
910.8	16862
910.915	16683
911.03	16660
911.145	16481
911.259	16337
911.374	16352
911.489	16341
911.604	16348
911.718	16139
911.833	16181
911.947	16078
912.062	16093
912.176	16116
912.291	16135
912.405	16093
912.519	16287
912.633	16329
912.748	16169
912.862	16124
912.976	15922
913.09	15793
913.204	15991
913.318	15937
913.431	15983
913.545	16044
913.659	16086
913.772	15884
913.886	15720
914	15781
914.113	15789
914.226	15812
914.34	15785
914.453	15656
914.566	15728
914.68	15564
914.793	15511
914.906	15389
915.019	15340
915.132	15241
915.245	15218
915.358	15386
915.47	15260
915.583	15249
915.696	15310
915.809	15408
915.921	15462
916.034	15203
916.146	15249
916.259	15241
916.371	15272
916.483	15325
916.595	15211
916.708	15226
916.82	15192
916.932	15138
917.044	15131
917.156	14967
917.268	14979
917.38	15036
917.491	15036
917.603	14914
917.715	15058
917.826	15123
917.938	15028
918.049	14689
918.161	14986
918.272	15055
918.384	14986
918.495	15032
918.606	14743
918.717	14678
918.828	14849
918.939	14845
919.05	14667
919.161	14785
919.272	14533
919.383	14629
919.494	14777
919.604	15024
919.715	14739
919.826	14530
919.936	14754
920.047	14853
920.157	14743
920.267	14899
920.378	14754
920.488	14598
920.598	14948
920.708	14948
920.818	14785
920.928	14838
921.038	15066
921.148	15017
921.258	14632
921.368	14568
921.477	14556
921.587	14431
921.697	14294
921.806	14461
921.916	14282
922.025	14081
922.134	14195
922.244	14081
922.353	14069
922.462	13887
922.571	13921
922.68	13750
922.789	13738
922.898	13757
923.007	13689
923.116	13712
923.224	13636
923.333	13628
923.442	13609
923.55	13552
923.659	13495
923.767	13647
923.876	13518
923.984	13544
924.092	13460
924.201	13464
924.309	13521
924.417	13453
924.525	13381
924.633	13457
924.741	14343
924.849	13149
924.956	13232
925.064	13114
925.172	13080
925.279	13137
925.387	13190
925.494	13114
925.602	13213
925.709	13168
925.816	13023
925.924	13072
926.031	13266
926.138	13053
926.245	13088
926.352	12989
926.459	13156
926.566	13152
926.673	13046
926.779	12894
926.886	12871
926.993	12658
927.099	12646
927.206	12734
927.312	12631
927.419	12658
927.525	12688
927.631	12711
927.737	12597
927.843	12589
927.95	12380
928.056	12498
928.162	12513
928.267	12494
928.373	13149
928.479	12601
928.585	12304
928.69	12456
928.796	12437
928.901	12441
929.007	12209
929.112	12323
929.218	12311
929.323	12262
929.428	12228
929.533	12369
929.638	12148
929.743	12232
929.848	12178
929.953	12216
930.058	12095
930.163	11912
930.267	11988
930.372	11996
930.477	11912
930.581	12041
930.685	11992
930.79	11897
930.894	11847
930.998	11851
931.103	11912
931.207	11649
931.311	11501
931.415	11372
931.519	11124
931.623	11143
