Data from test_V78500241_3608.txt Node
Date: Fri Mar 25 16:06:47 CST 2022
User: usil
Spectrometer: V785-0024
Trigger mode: 0
Integration Time (sec): 4.000000E-1
Scans to average: 1
Nonlinearity correction enabled: false
Boxcar width: 0
Storing dark spectrum: false
XAxis mode: Wavelengths
Number of Pixels in Spectrum: 1024
>>>>>Begin Spectral Data<<<<<
801.071	28820
801.214	28771
801.356	28508
801.499	28519
801.641	28466
801.783	28447
801.926	28322
802.068	28474
802.211	28424
802.353	28303
802.496	28139
802.638	27998
802.78	28078
802.923	28166
803.065	27831
803.208	27987
803.35	28143
803.492	28200
803.635	28306
803.777	28116
803.919	28261
804.061	28736
804.204	28405
804.346	28204
804.488	28211
804.63	28337
804.773	28158
804.915	28379
805.057	28417
805.199	28474
805.341	28375
805.483	28569
805.626	28512
805.768	28386
805.91	28599
806.052	28462
806.194	28394
806.336	28660
806.478	28546
806.62	28550
806.762	28542
806.904	28839
807.046	28828
807.188	28984
807.33	28972
807.472	29064
807.614	28919
807.756	28946
807.898	28843
808.04	28660
808.182	28733
808.324	28774
808.465	28706
808.607	29136
808.749	29261
808.891	29250
809.033	29288
809.174	29318
809.316	29212
809.458	29128
809.6	29136
809.741	29242
809.883	29212
810.025	29425
810.166	29551
810.308	29474
810.45	29478
810.591	29440
810.733	29379
810.875	29231
811.016	29140
811.158	29056
811.299	29239
811.441	29277
811.582	29406
811.724	29208
811.865	29174
812.007	29261
812.148	29322
812.29	29387
812.431	29459
812.573	29539
812.714	29699
812.855	29798
812.997	29703
813.138	29965
813.279	29908
813.421	29733
813.562	29832
813.703	29619
813.845	29512
813.986	29200
814.127	29094
814.268	29033
814.41	29086
814.551	28999
814.692	28972
814.833	28919
814.974	28885
815.115	28968
815.256	28953
815.397	28748
815.539	28725
815.68	28717
815.821	28706
815.962	28683
816.103	28900
816.244	28519
816.385	28588
816.526	28390
816.666	28306
816.807	28166
816.948	28284
817.089	28337
817.23	28257
817.371	28158
817.512	28207
817.653	28352
817.793	28185
817.934	28219
818.075	28299
818.216	28196
818.356	28249
818.497	28112
818.638	27987
818.778	28032
818.919	27975
819.06	28109
819.2	28051
819.341	28154
819.481	28265
819.622	28455
819.762	28626
819.903	28443
820.043	28428
820.184	28344
820.324	28360
820.465	28394
820.605	28322
820.746	28219
820.886	28223
821.026	28417
821.167	28215
821.307	28306
821.447	28257
821.588	28181
821.728	27987
821.868	27945
822.008	27751
822.149	27778
822.289	27694
822.429	27515
822.569	27443
822.709	27363
822.849	27370
822.99	27310
823.13	27214
823.27	27203
823.41	27203
823.55	26872
823.69	27233
823.83	27047
823.97	27055
824.11	26971
824.25	26845
824.389	26762
824.529	26994
824.669	26857
824.809	26895
824.949	26960
825.089	27043
825.228	27051
825.368	26720
825.508	26739
825.648	26796
825.787	26735
825.927	26845
826.067	26758
826.206	26708
826.346	26735
826.485	26819
826.625	26773
826.765	26883
826.904	26777
827.044	26533
827.183	26495
827.323	26431
827.462	26621
827.601	26583
827.741	26438
827.88	26511
828.02	26336
828.159	26385
828.298	26552
828.437	26400
828.577	26427
828.716	26590
828.855	26492
828.994	26092
829.134	26020
829.273	26180
829.412	26138
829.551	26145
829.69	26077
829.829	26248
829.968	26183
830.107	26202
830.246	26172
830.385	25993
830.524	26081
830.663	26024
830.802	25890
830.941	25795
831.08	25647
831.219	25856
831.357	25913
831.496	25970
831.635	25753
831.774	25693
831.913	25552
832.051	25495
832.19	25460
832.329	25616
832.467	25525
832.606	25476
832.744	25400
832.883	25460
833.022	25324
833.16	25434
833.299	25575
833.437	25430
833.576	25499
833.714	25495
833.852	25571
833.991	25590
834.129	25632
834.267	25750
834.406	25655
834.544	25655
834.682	25556
834.821	25388
834.959	25658
835.097	25415
835.235	25438
835.373	25457
835.511	25377
835.65	25362
835.788	25365
835.926	25278
836.064	25046
836.202	25175
836.34	25362
836.478	25510
836.615	25381
836.753	25407
836.891	25419
837.029	25358
837.167	25244
837.305	25156
837.443	25156
837.58	25148
837.718	25103
837.856	25152
837.993	25042
838.131	25168
838.269	25080
838.406	25118
838.544	25031
838.681	24738
838.819	24859
838.956	24547
839.094	24589
839.231	24696
839.369	24688
839.506	24871
839.643	24932
839.781	24540
839.918	24570
840.055	24433
840.193	24646
840.33	24418
840.467	24437
840.604	24593
840.742	24753
840.879	24315
841.016	24517
841.153	24437
841.29	24467
841.427	24582
841.564	24639
841.701	24525
841.838	24445
841.975	24346
842.112	24388
842.249	24399
842.385	24235
842.522	24483
842.659	24346
842.796	24327
842.933	24235
843.069	24327
843.206	24273
843.343	24178
843.479	24201
843.616	24163
843.752	24087
843.889	24129
844.025	24285
844.162	24060
844.298	24102
844.435	23988
844.571	24098
844.708	24041
844.844	24201
844.98	24167
845.117	24178
845.253	24064
845.389	23889
845.525	23954
845.661	23908
845.798	23729
845.934	23931
846.07	23840
846.206	23889
846.342	23889
846.478	23783
846.614	23687
846.75	23493
846.886	23501
847.022	23665
847.158	23505
847.294	23547
847.429	23547
847.565	23421
847.701	23714
847.837	23356
847.972	23105
848.108	23254
848.244	23391
848.379	23246
848.515	23143
848.65	23052
848.786	23052
848.921	23113
849.057	23048
849.192	23246
849.328	23033
849.463	23140
849.598	23079
849.734	23083
849.869	22919
850.004	22915
850.14	22869
850.275	22862
850.41	22843
850.545	22797
850.68	22858
850.815	22881
850.95	22858
851.085	22930
851.22	22923
851.355	22949
851.49	22790
851.625	22774
851.76	22831
851.895	22710
852.03	22786
852.165	22934
852.299	22774
852.434	22881
852.569	22839
852.703	22942
852.838	22965
852.973	22999
853.107	23025
853.242	22763
853.376	22744
853.511	22664
853.645	22641
853.78	22782
853.914	22668
854.048	22634
854.183	22687
854.317	22736
854.451	22793
854.585	22797
854.72	22634
854.854	22721
854.988	22653
855.122	22660
855.256	22497
855.39	22725
855.524	22622
855.658	22668
855.792	22725
855.926	22622
856.06	22774
856.194	22755
856.327	22607
856.461	22531
856.595	22599
856.729	22717
856.862	22831
856.996	22679
857.13	22748
857.263	22885
857.397	22759
857.53	22580
857.664	22862
857.797	22664
857.931	22748
858.064	22748
858.197	22664
858.331	22771
858.464	22607
858.597	22561
858.731	22546
858.864	22622
858.997	22691
859.13	22755
859.263	22615
859.396	22744
859.529	22577
859.662	22706
859.795	22546
859.928	22584
860.061	22790
860.194	22873
860.327	22702
860.46	22691
860.592	22755
860.725	22767
860.858	22725
860.99	22615
861.123	22565
861.256	22683
861.388	22774
861.521	23452
861.653	22557
861.786	22421
861.918	22462
862.05	22573
862.183	22607
862.315	22527
862.447	22687
862.58	22630
862.712	22371
862.844	22394
862.976	22573
863.108	22413
863.24	22843
863.372	22295
863.504	22409
863.636	22413
863.768	22413
863.9	22352
864.032	22352
864.164	22318
864.296	22466
864.428	22390
864.559	22489
864.691	22481
864.823	22440
864.954	22413
865.086	22470
865.217	22287
865.349	22192
865.48	22325
865.612	22242
865.743	22409
865.875	22318
866.006	22295
866.137	22375
866.269	22211
866.4	22223
866.531	22158
866.662	22120
866.793	22150
866.924	22166
867.055	22238
867.186	22303
867.317	22276
867.448	22185
867.579	22192
867.71	22029
867.841	22006
867.972	22276
868.103	22074
868.233	22074
868.364	22249
868.495	22291
868.625	22363
868.756	22455
868.886	22405
869.017	22303
869.147	22611
869.278	22489
869.408	22447
869.539	22493
869.669	22546
869.799	22455
869.929	22615
870.06	22519
870.19	22809
870.32	22755
870.45	22782
870.58	22748
870.71	22885
870.84	22927
870.97	22869
871.1	22710
871.23	23109
871.36	23033
871.489	22839
871.619	23102
871.749	23037
871.879	22991
872.008	23113
872.138	23003
872.267	23041
872.397	23037
872.526	22824
872.656	23010
872.785	22862
872.915	22869
873.044	23239
873.173	23124
873.303	23105
873.432	23200
873.561	23231
873.69	22984
873.819	23048
873.948	23003
874.077	23132
874.206	23052
874.335	23121
874.464	23143
874.593	23269
874.722	23197
874.851	23387
874.979	23349
875.108	23277
875.237	23162
875.365	23178
875.494	23143
875.623	23334
875.751	23235
875.88	23200
876.008	23376
876.136	23436
876.265	23665
876.393	23824
876.521	23699
876.65	23722
876.778	23741
876.906	23577
877.034	23577
877.162	23630
877.29	23589
877.418	23535
877.546	23638
877.674	23535
877.802	23516
877.93	23733
878.058	23657
878.185	23421
878.313	23687
878.441	23661
878.568	23558
878.696	23619
878.824	23627
878.951	23775
879.079	23684
879.206	23737
879.333	23756
879.461	23592
879.588	23585
879.715	23805
879.842	23870
879.97	23737
880.097	23535
880.224	23455
880.351	23596
880.478	23562
880.605	23387
880.732	23436
880.859	23710
880.986	23512
881.112	23440
881.239	23250
881.366	23121
881.493	23075
881.619	22999
881.746	22972
881.872	23151
881.999	22934
882.125	22885
882.252	23014
882.378	22999
882.505	23048
882.631	22911
882.757	22771
882.883	22683
883.01	22649
883.136	22721
883.262	22717
883.388	22493
883.514	22797
883.64	22759
883.766	22603
883.892	22379
884.018	22436
884.143	22634
884.269	22618
884.395	22352
884.52	22280
884.646	22249
884.772	22272
884.897	22223
885.023	22280
885.148	22402
885.274	22440
885.399	22333
885.524	22223
885.65	22306
885.775	22363
885.9	22257
886.025	22409
886.15	22360
886.275	22230
886.4	22196
886.525	22314
886.65	22185
886.775	22207
886.9	22428
887.025	22470
887.149	22280
887.274	22109
887.399	22029
887.523	22093
887.648	22002
887.773	22021
887.897	22090
888.021	22109
888.146	21850
888.27	22139
888.395	22093
888.519	21991
888.643	22074
888.767	22139
888.891	22025
889.015	21736
889.139	21876
889.263	21873
889.387	21994
889.511	21983
889.635	21994
889.759	21838
889.883	21895
890.006	21816
890.13	22040
890.254	21713
890.377	21633
890.501	21641
890.624	21644
890.748	21587
890.871	21405
890.995	21526
891.118	21435
891.241	21397
891.364	21348
891.488	21519
891.611	21542
891.734	21351
891.857	21564
891.98	21431
892.103	21435
892.226	21393
892.349	21412
892.471	21237
892.594	21241
892.717	21355
892.839	21207
892.962	21180
893.085	21561
893.207	21237
893.33	21245
893.452	21104
893.575	21241
893.697	21260
893.819	21485
893.941	21526
894.064	21435
894.186	21294
894.308	21245
894.43	21283
894.552	21435
894.674	21329
894.796	21199
894.918	21302
895.04	21230
895.161	21386
895.283	21268
895.405	21252
895.526	21211
895.648	21279
895.769	21275
895.891	21249
896.012	21332
896.134	21275
896.255	21249
896.376	21298
896.498	21252
896.619	21374
896.74	21214
896.861	21374
896.982	21652
897.103	21561
897.224	21580
897.345	21473
897.466	21431
897.587	21511
897.708	21534
897.828	21553
897.949	21382
898.07	21336
898.19	21424
898.311	21549
898.431	21458
898.552	21538
898.672	21473
898.792	21504
898.913	21492
899.033	21329
899.153	21256
899.273	21112
899.393	21218
899.513	21256
899.633	21184
899.753	21237
899.873	21017
899.993	21268
900.113	21036
900.232	21070
900.352	21161
900.472	20971
900.591	20868
900.711	20925
900.83	20804
900.95	20998
901.069	21020
901.189	20819
901.308	20648
901.427	20469
901.546	20507
901.665	20537
901.784	20499
901.904	20438
902.023	20339
902.141	20054
902.26	20161
902.379	20145
902.498	20001
902.617	19955
902.735	20050
902.854	20020
902.973	19788
903.091	19662
903.21	19685
903.328	19712
903.446	19639
903.565	19533
903.683	19502
903.801	19282
903.919	19403
904.038	19480
904.156	19308
904.274	19255
904.392	19289
904.51	19175
904.627	19209
904.745	19339
904.863	19308
904.981	19050
905.098	18939
905.216	18852
905.334	18897
905.451	18954
905.569	18935
905.686	18768
905.803	18973
905.921	18730
906.038	18696
906.155	18673
906.272	18445
906.389	18582
906.506	18380
906.623	18486
906.74	18380
906.857	18369
906.974	18277
907.091	18338
907.208	18525
907.324	18388
907.441	18330
907.557	18098
907.674	18178
907.79	18022
907.907	18098
908.023	18064
908.139	18152
908.256	18083
908.372	17980
908.488	17920
908.604	17897
908.72	17843
908.836	17843
908.952	17798
909.068	17847
909.184	17958
909.3	17866
909.415	17920
909.531	17847
909.647	17493
909.762	17539
909.878	17501
909.993	17516
910.108	17474
910.224	17478
910.339	17547
910.454	17444
910.57	17265
910.685	17311
910.8	17505
910.915	17532
911.03	17277
911.145	17071
911.259	17086
911.374	17098
911.489	17140
911.604	16927
911.718	16771
911.833	16881
911.947	16771
912.062	16687
912.176	16809
912.291	16839
912.405	16854
912.519	16965
912.633	16984
912.748	16927
912.862	16790
912.976	16755
913.09	16527
913.204	16554
913.318	16660
913.431	16774
913.545	16820
913.659	16664
913.772	16664
913.886	16470
914	16447
914.113	16436
914.226	16447
914.34	16436
914.453	16341
914.566	16462
914.68	16360
914.793	16322
914.906	16124
915.019	15968
915.132	15861
915.245	15994
915.358	16059
915.47	16017
915.583	16055
915.696	16006
915.809	16131
915.921	16090
916.034	15846
916.146	15964
916.259	15991
916.371	15945
916.483	15953
916.595	15854
916.708	15819
916.82	15797
916.932	15785
917.044	15774
917.156	15705
917.268	15675
917.38	15728
917.491	15587
917.603	15728
917.715	15762
917.826	15800
917.938	15545
918.049	15584
918.161	15629
918.272	15743
918.384	15682
918.495	15549
918.606	15443
918.717	15294
918.828	15321
918.939	15382
919.05	15336
919.161	15424
919.272	15161
919.383	15207
919.494	15374
919.604	15545
919.715	15374
919.826	15161
919.936	15268
920.047	15329
920.157	15294
920.267	15523
920.378	15374
920.488	15348
920.598	15439
920.708	15652
920.818	15393
920.928	15443
921.038	15717
921.148	15530
921.258	15321
921.368	15180
921.477	14998
921.587	14990
921.697	14872
921.806	15081
921.916	14929
922.025	14823
922.134	14712
922.244	14621
922.353	14644
922.462	14526
922.571	14400
922.68	14320
922.789	14336
922.898	14465
923.007	14294
923.116	14324
923.224	14324
923.333	14278
923.442	14233
923.55	14096
923.659	14172
923.767	14225
923.876	14062
923.984	14161
924.092	14027
924.201	14073
924.309	13986
924.417	14058
924.525	13898
924.633	13932
924.741	14864
924.849	13833
924.956	13830
925.064	13689
925.172	13594
925.279	13696
925.387	13662
925.494	13658
925.602	13746
925.709	13708
925.816	13533
925.924	13586
926.031	13693
926.138	13597
926.245	13575
926.352	13464
926.459	13616
926.566	13727
926.673	13582
926.779	13396
926.886	13369
926.993	13175
927.099	13240
927.206	13149
927.312	13099
927.419	13202
927.525	13202
927.631	13183
927.737	13099
927.843	13031
927.95	12924
928.056	13015
928.162	13122
928.267	13012
928.373	13723
928.479	13084
928.585	12867
928.69	12928
928.796	13057
928.901	12890
929.007	12810
929.112	12817
929.218	12859
929.323	12711
929.428	12772
929.533	12833
929.638	12650
929.743	12608
929.848	12783
929.953	12722
930.058	12506
930.163	12330
930.267	12418
930.372	12509
930.477	12372
930.581	12551
930.685	12437
930.79	12334
930.894	12289
930.998	12262
931.103	12391
931.207	12064
931.311	11965
931.415	11783
931.519	11630
931.623	11684
