Data from test_V78500241_2144.txt Node
Date: Fri Mar 25 15:56:39 CST 2022
User: usil
Spectrometer: V785-0024
Trigger mode: 0
Integration Time (sec): 4.000000E-1
Scans to average: 1
Nonlinearity correction enabled: false
Boxcar width: 0
Storing dark spectrum: false
XAxis mode: Wavelengths
Number of Pixels in Spectrum: 1024
>>>>>Begin Spectral Data<<<<<
801.071	29067
801.214	28877
801.356	28694
801.499	28675
801.641	28554
801.783	28535
801.926	28710
802.068	28611
802.211	28500
802.353	28443
802.496	28299
802.638	28280
802.78	28238
802.923	28101
803.065	28272
803.208	28223
803.35	28234
803.492	28569
803.635	28516
803.777	28428
803.919	28573
804.061	28774
804.204	28630
804.346	28478
804.488	28306
804.63	28535
804.773	28474
804.915	28557
805.057	28687
805.199	28588
805.341	28656
805.483	28668
805.626	28637
805.768	28653
805.91	28615
806.052	28729
806.194	28573
806.336	28915
806.478	28607
806.62	28592
806.762	28778
806.904	28991
807.046	29170
807.188	29044
807.33	29033
807.472	29090
807.614	29178
807.756	29197
807.898	29033
808.04	29006
808.182	28965
808.324	29064
808.465	29098
808.607	29128
808.749	29406
808.891	29467
809.033	29501
809.174	29543
809.316	29334
809.458	29429
809.6	29391
809.741	29509
809.883	29577
810.025	29733
810.166	29680
810.308	29729
810.45	29558
810.591	29570
810.733	29383
810.875	29406
811.016	29242
811.158	29223
811.299	29433
811.441	29573
811.582	29600
811.724	29444
811.865	29242
812.007	29482
812.148	29455
812.29	29429
812.431	29668
812.573	29589
812.714	29729
812.855	29920
812.997	30034
813.138	30049
813.279	30034
813.421	30026
813.562	29859
813.703	29718
813.845	29699
813.986	29372
814.127	29181
814.268	29143
814.41	29185
814.551	29025
814.692	29197
814.833	28968
814.974	29086
815.115	29200
815.256	29128
815.397	28968
815.539	28862
815.68	28995
815.821	28934
815.962	28835
816.103	28828
816.244	28908
816.385	28725
816.526	28691
816.666	28519
816.807	28421
816.948	28390
817.089	28497
817.23	28295
817.371	28329
817.512	28611
817.653	28401
817.793	28398
817.934	28333
818.075	28398
818.216	28322
818.356	28382
818.497	28253
818.638	28112
818.778	28192
818.919	28226
819.06	28360
819.2	28268
819.341	28493
819.481	28367
819.622	28550
819.762	28778
819.903	28645
820.043	28733
820.184	28538
820.324	28535
820.465	28668
820.605	28592
820.746	28409
820.886	28436
821.026	28443
821.167	28447
821.307	28596
821.447	28512
821.588	28291
821.728	28303
821.868	27987
822.008	28013
822.149	27914
822.289	27876
822.429	27519
822.569	27637
822.709	27542
822.849	27507
822.99	27462
823.13	27359
823.27	27329
823.41	27332
823.55	27188
823.69	27302
823.83	27252
823.97	27188
824.11	26918
824.25	27039
824.389	26929
824.529	27165
824.669	27104
824.809	27260
824.949	27169
825.089	27161
825.228	27013
825.368	26971
825.508	26830
825.648	27043
825.787	27089
825.927	26998
826.067	26902
826.206	26887
826.346	27096
826.485	27032
826.625	26895
826.765	27070
826.904	27009
827.044	26739
827.183	26792
827.323	26587
827.462	26655
827.601	26648
827.741	26712
827.88	26659
828.02	26537
828.159	26526
828.298	26659
828.437	26720
828.577	26552
828.716	26754
828.855	26689
828.994	26305
829.134	26351
829.273	26396
829.412	26248
829.551	26328
829.69	26343
829.829	26278
829.968	26465
830.107	26427
830.246	26313
830.385	26298
830.524	26043
830.663	26252
830.802	26050
830.941	25856
831.08	25826
831.219	26005
831.357	26062
831.496	26073
831.635	25887
831.774	25833
831.913	25708
832.051	25757
832.19	25696
832.329	25681
832.467	25594
832.606	25601
832.744	25590
832.883	25677
833.022	25605
833.16	25548
833.299	25753
833.437	25700
833.576	25807
833.714	25590
833.852	25750
833.991	25651
834.129	25738
834.267	25799
834.406	25643
834.544	25677
834.682	25738
834.821	25479
834.959	25928
835.097	25693
835.235	25643
835.373	25635
835.511	25658
835.65	25571
835.788	25502
835.926	25502
836.064	25289
836.202	25350
836.34	25521
836.478	25708
836.615	25472
836.753	25514
836.891	25525
837.029	25582
837.167	25434
837.305	25293
837.443	25464
837.58	25289
837.718	25331
837.856	25358
837.993	25304
838.131	25358
838.269	25069
838.406	25190
838.544	25175
838.681	24989
838.819	24947
838.956	24795
839.094	24760
839.231	24791
839.369	24856
839.506	25213
839.643	24981
839.781	24696
839.918	24760
840.055	24783
840.193	24658
840.33	24673
840.467	24684
840.604	24692
840.742	24989
840.879	24559
841.016	24639
841.153	24494
841.29	24825
841.427	24646
841.564	24802
841.701	24688
841.838	24555
841.975	24623
842.112	24585
842.249	24441
842.385	24399
842.522	24589
842.659	24422
842.796	24410
842.933	24471
843.069	24437
843.206	24304
843.343	24445
843.479	24551
843.616	24437
843.752	24232
843.889	24251
844.025	24429
844.162	24125
844.298	24311
844.435	24285
844.571	24262
844.708	24064
844.844	24395
844.98	24452
845.117	24232
845.253	24129
845.389	24174
845.525	24076
845.661	24114
845.798	24144
845.934	24076
846.07	23958
846.206	24060
846.342	24049
846.478	23897
846.614	23756
846.75	23668
846.886	23642
847.022	23790
847.158	23680
847.294	23695
847.429	23680
847.565	23573
847.701	23973
847.837	23547
847.972	23493
848.108	23360
848.244	23414
848.379	23216
848.515	23273
848.65	23398
848.786	23315
848.921	23368
849.057	23398
849.192	23421
849.328	23318
849.463	23353
849.598	23318
849.734	23140
849.869	23189
850.004	22968
850.14	23018
850.275	23079
850.41	22961
850.545	22965
850.68	22972
850.815	23105
850.95	22911
851.085	23288
851.22	23246
851.355	23090
851.49	23041
851.625	23083
851.76	23044
851.895	22889
852.03	22927
852.165	23105
852.299	23094
852.434	23151
852.569	23060
852.703	23044
852.838	23048
852.973	23185
853.107	23143
853.242	23010
853.376	22938
853.511	22820
853.645	22828
853.78	23102
853.914	22885
854.048	22885
854.183	22839
854.317	22999
854.451	23090
854.585	22805
854.72	22949
854.854	22892
854.988	22725
855.122	22828
855.256	22733
855.39	22877
855.524	22885
855.658	22904
855.792	22911
855.926	22824
856.06	22793
856.194	22896
856.327	22828
856.461	22858
856.595	22797
856.729	22820
856.862	22946
856.996	23056
857.13	23037
857.263	22850
857.397	23014
857.53	22820
857.664	22869
857.797	22946
857.931	22953
858.064	22919
858.197	23022
858.331	22801
858.464	22816
858.597	22782
858.731	22904
858.864	22805
858.997	22668
859.13	22881
859.263	22771
859.396	22972
859.529	22831
859.662	22900
859.795	22938
859.928	22908
860.061	22999
860.194	23121
860.327	22953
860.46	22793
860.592	23094
860.725	23033
860.858	22995
860.99	22809
861.123	22858
861.256	22824
861.388	22877
861.521	23410
861.653	22679
861.786	22641
861.918	22672
862.05	22778
862.183	22759
862.315	22763
862.447	22854
862.58	22915
862.712	22561
862.844	22516
862.976	22748
863.108	22630
863.24	22987
863.372	22485
863.504	22664
863.636	22573
863.768	22603
863.9	22557
864.032	22500
864.164	22531
864.296	22592
864.428	22683
864.559	22611
864.691	22717
864.823	22603
864.954	22402
865.086	22679
865.217	22485
865.349	22249
865.48	22470
865.612	22459
865.743	22535
865.875	22470
866.006	22470
866.137	22314
866.269	22375
866.4	22421
866.531	22405
866.662	22398
866.793	22386
866.924	22344
867.055	22382
867.186	22409
867.317	22287
867.448	22173
867.579	22325
867.71	22242
867.841	22219
867.972	22314
868.103	22306
868.233	22295
868.364	22382
868.495	22470
868.625	22588
868.756	22592
868.886	22550
869.017	22611
869.147	22641
869.278	22721
869.408	22535
869.539	22432
869.669	22672
869.799	22721
869.929	22835
870.06	22725
870.19	22721
870.32	22995
870.45	22980
870.58	22877
870.71	23071
870.84	23071
870.97	22957
871.1	22908
871.23	23140
871.36	23277
871.489	23044
871.619	23128
871.749	23212
871.879	23284
872.008	23318
872.138	23178
872.267	23273
872.397	23124
872.526	23048
872.656	23136
872.785	23029
872.915	23273
873.044	23273
873.173	23417
873.303	23345
873.432	23311
873.561	23254
873.69	23280
873.819	23330
873.948	23395
874.077	23220
874.206	23212
874.335	23136
874.464	23337
874.593	23554
874.722	23345
874.851	23467
874.979	23459
875.108	23505
875.237	23356
875.365	23334
875.494	23417
875.623	23463
875.751	23398
875.88	23444
876.008	23543
876.136	23558
876.265	23973
876.393	23999
876.521	23939
876.65	23821
876.778	23707
876.906	23767
877.034	23771
877.162	23851
877.29	23699
877.418	23722
877.546	23748
877.674	23710
877.802	23786
877.93	23634
878.058	23714
878.185	23653
878.313	23771
878.441	23824
878.568	23455
878.696	23737
878.824	23638
878.951	23832
879.079	24022
879.206	23973
879.333	23828
879.461	23786
879.588	23961
879.715	23847
879.842	23984
879.97	23893
880.097	23691
880.224	23596
880.351	23577
880.478	23562
880.605	23581
880.732	23531
880.859	23893
880.986	23600
881.112	23714
881.239	23562
881.366	23417
881.493	23185
881.619	23159
881.746	23109
881.872	23140
881.999	23181
882.125	23083
882.252	23117
882.378	23113
882.505	23242
882.631	22953
882.757	22866
882.883	22999
883.01	22744
883.136	22736
883.262	22725
883.388	22637
883.514	22721
883.64	22809
883.766	22592
883.892	22500
884.018	22664
884.143	22809
884.269	22782
884.395	22607
884.52	22344
884.646	22402
884.772	22424
884.897	22367
885.023	22459
885.148	22504
885.274	22630
885.399	22481
885.524	22398
885.65	22462
885.775	22474
885.9	22443
886.025	22417
886.15	22451
886.275	22481
886.4	22382
886.525	22367
886.65	22379
886.775	22333
886.9	22459
887.025	22694
887.149	22421
887.274	22253
887.399	22207
887.523	22223
887.648	22188
887.773	22048
887.897	22200
888.021	22272
888.146	22173
888.27	22284
888.395	22211
888.519	22249
888.643	22253
888.767	22173
888.891	22150
889.015	21964
889.139	22025
889.263	21964
889.387	22074
889.511	22234
889.635	22120
889.759	21968
889.883	21888
890.006	21975
890.13	21956
890.254	21888
890.377	21941
890.501	21781
890.624	21724
890.748	21717
890.871	21587
890.995	21496
891.118	21523
891.241	21614
891.364	21545
891.488	21644
891.611	21614
891.734	21545
891.857	21469
891.98	21462
892.103	21618
892.226	21530
892.349	21405
892.471	21386
892.594	21477
892.717	21351
892.839	21272
892.962	21374
893.085	21496
893.207	21515
893.33	21100
893.452	21268
893.575	21428
893.697	21382
893.819	21485
893.941	21523
894.064	21515
894.186	21207
894.308	21439
894.43	21382
894.552	21462
894.674	21412
894.796	21287
894.918	21332
895.04	21408
895.161	21488
895.283	21378
895.405	21340
895.526	21264
895.648	21469
895.769	21336
895.891	21389
896.012	21466
896.134	21431
896.255	21340
896.376	21279
896.498	21408
896.619	21367
896.74	21378
896.861	21435
896.982	21701
897.103	21766
897.224	21675
897.345	21625
897.466	21492
897.587	21545
897.708	21724
897.828	21568
897.949	21443
898.07	21332
898.19	21549
898.311	21698
898.431	21488
898.552	21515
898.672	21717
898.792	21652
898.913	21526
899.033	21580
899.153	21233
899.273	21230
899.393	21268
899.513	21252
899.633	21355
899.753	21374
899.873	21135
899.993	21332
900.113	21199
900.232	21249
900.352	21256
900.472	21081
900.591	21051
900.711	21146
900.83	20956
900.95	21032
901.069	21131
901.189	20963
901.308	20815
901.427	20590
901.546	20606
901.665	20689
901.784	20590
901.904	20575
902.023	20492
902.141	20081
902.26	20183
902.379	20187
902.498	20153
902.617	20088
902.735	20077
902.854	20077
902.973	20001
903.091	19818
903.21	19662
903.328	19769
903.446	19632
903.565	19586
903.683	19483
903.801	19430
903.919	19426
904.038	19639
904.156	19297
904.274	19422
904.392	19324
904.51	19324
904.627	19384
904.745	19255
904.863	19263
904.981	19076
905.098	19015
905.216	19038
905.334	19069
905.451	19038
905.569	18928
905.686	18989
905.803	18973
905.921	18814
906.038	18875
906.155	18738
906.272	18722
906.389	18715
906.506	18570
906.623	18604
906.74	18452
906.857	18418
906.974	18388
907.091	18570
907.208	18627
907.324	18506
907.441	18376
907.557	18262
907.674	18136
907.79	18159
907.907	18228
908.023	18251
908.139	18201
908.256	18152
908.372	18076
908.488	18091
908.604	17927
908.72	17824
908.836	17961
908.952	17847
909.068	17965
909.184	18102
909.3	17908
909.415	18003
909.531	17897
909.647	17657
909.762	17653
909.878	17516
909.993	17634
910.108	17581
910.224	17611
910.339	17699
910.454	17482
910.57	17326
910.685	17292
910.8	17649
910.915	17539
911.03	17379
911.145	17265
911.259	17105
911.374	17250
911.489	17102
911.604	17090
911.718	16904
911.833	16949
911.947	16892
912.062	16767
912.176	16915
912.291	16995
912.405	16927
912.519	17102
912.633	17204
912.748	16946
912.862	16809
912.976	16767
913.09	16630
913.204	16611
913.318	16691
913.431	16828
913.545	16869
913.659	16812
913.772	16725
913.886	16554
914	16527
914.113	16493
914.226	16630
914.34	16481
914.453	16367
914.566	16474
914.68	16405
914.793	16375
914.906	16207
915.019	16166
915.132	16071
915.245	16090
915.358	16036
915.47	16044
915.583	16071
915.696	16177
915.809	16204
915.921	16177
916.034	15983
916.146	16044
916.259	15869
916.371	16101
916.483	16051
916.595	15926
916.708	15968
916.82	15911
916.932	15937
917.044	15953
917.156	15812
917.268	15778
917.38	15698
917.491	15686
917.603	15720
917.715	15865
917.826	15823
917.938	15766
918.049	15549
918.161	15724
918.272	15717
918.384	15819
918.495	15591
918.606	15572
918.717	15363
918.828	15504
918.939	15488
919.05	15420
919.161	15420
919.272	15233
919.383	15321
919.494	15485
919.604	15656
919.715	15450
919.826	15306
919.936	15332
920.047	15462
920.157	15393
920.267	15549
920.378	15519
920.488	15397
920.598	15633
920.708	15701
920.818	15580
920.928	15386
921.038	15713
921.148	15572
921.258	15408
921.368	15188
921.477	15108
921.587	15222
921.697	14990
921.806	15188
921.916	15001
922.025	14838
922.134	14815
922.244	14674
922.353	14845
922.462	14606
922.571	14575
922.68	14438
922.789	14415
922.898	14461
923.007	14442
923.116	14480
923.224	14328
923.333	14389
923.442	14282
923.55	14358
923.659	14195
923.767	14256
923.876	14176
923.984	14180
924.092	14123
924.201	14107
924.309	14142
924.417	14180
924.525	13974
924.633	14046
924.741	14857
924.849	13750
924.956	13925
925.064	13826
925.172	13685
925.279	13712
925.387	13795
925.494	13776
925.602	13852
925.709	13860
925.816	13795
925.924	13765
926.031	13837
926.138	13784
926.245	13776
926.352	13544
926.459	13712
926.566	13757
926.673	13616
926.779	13403
926.886	13476
926.993	13346
927.099	13403
927.206	13365
927.312	13198
927.419	13297
927.525	13255
927.631	13301
927.737	13225
927.843	13160
927.95	13103
928.056	13137
928.162	13061
928.267	13285
928.373	13765
928.479	13202
928.585	12947
928.69	13034
928.796	13114
928.901	12935
929.007	12829
929.112	13012
929.218	12996
929.323	12909
929.428	12814
929.533	13008
929.638	12760
929.743	12749
929.848	12886
929.953	12703
930.058	12578
930.163	12517
930.267	12528
930.372	12627
930.477	12506
930.581	12623
930.685	12471
930.79	12395
930.894	12369
930.998	12330
931.103	12414
931.207	12133
931.311	11988
931.415	11977
931.519	11809
931.623	11729
