Data from test_V78500241_1302.txt Node
Date: Fri Mar 25 15:50:49 CST 2022
User: usil
Spectrometer: V785-0024
Trigger mode: 0
Integration Time (sec): 4.000000E-1
Scans to average: 1
Nonlinearity correction enabled: false
Boxcar width: 0
Storing dark spectrum: false
XAxis mode: Wavelengths
Number of Pixels in Spectrum: 1024
>>>>>Begin Spectral Data<<<<<
801.071	28363
801.214	28379
801.356	28219
801.499	28131
801.641	27930
801.783	27899
801.926	27998
802.068	27869
802.211	27930
802.353	27835
802.496	27682
802.638	27717
802.78	27599
802.923	27542
803.065	27492
803.208	27561
803.35	27553
803.492	27633
803.635	27854
803.777	27865
803.919	27835
804.061	28257
804.204	27823
804.346	27869
804.488	27816
804.63	27846
804.773	27823
804.915	27934
805.057	28021
805.199	27846
805.341	27850
805.483	28059
805.626	27964
805.768	27960
805.91	27964
806.052	28017
806.194	28040
806.336	28261
806.478	28013
806.62	28044
806.762	28002
806.904	28379
807.046	28428
807.188	28481
807.33	28417
807.472	28356
807.614	28443
807.756	28382
807.898	28303
808.04	28272
808.182	28371
808.324	28356
808.465	28500
808.607	28596
808.749	28656
808.891	28706
809.033	28820
809.174	28683
809.316	28634
809.458	28698
809.6	28660
809.741	28736
809.883	28961
810.025	28953
810.166	29117
810.308	28938
810.45	29022
810.591	28843
810.733	28675
810.875	28694
811.016	28607
811.158	28527
811.299	28763
811.441	28843
811.582	28847
811.724	28672
811.865	28649
812.007	28649
812.148	28752
812.29	28702
812.431	28774
812.573	29098
812.714	29132
812.855	29242
812.997	29185
813.138	29429
813.279	29284
813.421	29159
813.562	29117
813.703	29128
813.845	28911
813.986	28649
814.127	28440
814.268	28561
814.41	28371
814.551	28375
814.692	28481
814.833	28322
814.974	28447
815.115	28333
815.256	28398
815.397	28363
815.539	28329
815.68	28200
815.821	28204
815.962	28230
816.103	28306
816.244	28090
816.385	28173
816.526	27953
816.666	27778
816.807	27838
816.948	27728
817.089	27804
817.23	27789
817.371	27774
817.512	27648
817.653	27660
817.793	27603
817.934	27637
818.075	27804
818.216	27797
818.356	27686
818.497	27667
818.638	27469
818.778	27496
818.919	27500
819.06	27488
819.2	27500
819.341	27671
819.481	27739
819.622	27835
819.762	28150
819.903	27991
820.043	27911
820.184	27892
820.324	27751
820.465	27743
820.605	28006
820.746	27850
820.886	27709
821.026	27759
821.167	27850
821.307	27698
821.447	27648
821.588	27545
821.728	27515
821.868	27386
822.008	27245
822.149	27241
822.289	27096
822.429	26925
822.569	26853
822.709	26921
822.849	26826
822.99	26693
823.13	26655
823.27	26617
823.41	26495
823.55	26256
823.69	26632
823.83	26621
823.97	26484
824.11	26419
824.25	26294
824.389	26183
824.529	26415
824.669	26336
824.809	26526
824.949	26453
825.089	26370
825.228	26336
825.368	26176
825.508	26214
825.648	26218
825.787	26168
825.927	26206
826.067	26252
826.206	26187
826.346	26317
826.485	26248
826.625	26191
826.765	26415
826.904	26210
827.044	26046
827.183	26043
827.323	25776
827.462	26039
827.601	25826
827.741	25837
827.88	26016
828.02	25791
828.159	25906
828.298	25989
828.437	26008
828.577	25769
828.716	25951
828.855	25856
828.994	25643
829.134	25483
829.273	25670
829.412	25609
829.551	25628
829.69	25533
829.829	25537
829.968	25727
830.107	25712
830.246	25639
830.385	25487
830.524	25556
830.663	25438
830.802	25293
830.941	25274
831.08	25266
831.219	25187
831.357	25343
831.496	25449
831.635	25293
831.774	25114
831.913	25213
832.051	24966
832.19	25031
832.329	25015
832.467	24947
832.606	24856
832.744	24890
832.883	24791
833.022	24886
833.16	24992
833.299	25023
833.437	25031
833.576	24909
833.714	25031
833.852	24992
833.991	24954
834.129	25126
834.267	25012
834.406	24890
834.544	24992
834.682	24947
834.821	25046
834.959	25171
835.097	24962
835.235	25103
835.373	24852
835.511	24886
835.65	24764
835.788	24749
835.926	24563
836.064	24517
836.202	24585
836.34	24833
836.478	24802
836.615	24696
836.753	24715
836.891	24817
837.029	24871
837.167	24772
837.305	24749
837.443	24711
837.58	24623
837.718	24825
837.856	24528
837.993	24464
838.131	24646
838.269	24475
838.406	24494
838.544	24429
838.681	24270
838.819	24319
838.956	24068
839.094	24110
839.231	24144
839.369	24292
839.506	24433
839.643	24365
839.781	24038
839.918	24030
840.055	24106
840.193	24064
840.33	23885
840.467	24018
840.604	24053
840.742	24228
840.879	23805
841.016	24015
841.153	23870
841.29	24072
841.427	24030
841.564	24034
841.701	24034
841.838	24022
841.975	24022
842.112	23931
842.249	23733
842.385	23893
842.522	23878
842.659	23745
842.796	23672
842.933	23771
843.069	23684
843.206	23752
843.343	23786
843.479	23710
843.616	23779
843.752	23520
843.889	23649
844.025	23452
844.162	23490
844.298	23604
844.435	23455
844.571	23474
844.708	23440
844.844	23539
844.98	23566
845.117	23585
845.253	23364
845.389	23406
845.525	23478
845.661	23250
845.798	23280
845.934	23334
846.07	23311
846.206	23277
846.342	23448
846.478	23212
846.614	23121
846.75	22934
846.886	23003
847.022	23071
847.158	22972
847.294	23033
847.429	22923
847.565	22889
847.701	23170
847.837	22717
847.972	22687
848.108	22687
848.244	22782
848.379	22618
848.515	22542
848.65	22542
848.786	22573
848.921	22527
849.057	22599
849.192	22668
849.328	22527
849.463	22474
849.598	22394
849.734	22394
849.869	22386
850.004	22497
850.14	22314
850.275	22417
850.41	22211
850.545	22131
850.68	22291
850.815	22436
850.95	22314
851.085	22535
851.22	22409
851.355	22356
851.49	22371
851.625	22303
851.76	22280
851.895	22238
852.03	22192
852.165	22325
852.299	22265
852.434	22478
852.569	22333
852.703	22363
852.838	22550
852.973	22325
853.107	22432
853.242	22348
853.376	22166
853.511	22032
853.645	22139
853.78	22234
853.914	22109
854.048	22097
854.183	22139
854.317	22215
854.451	22295
854.585	22215
854.72	22162
854.854	22215
854.988	22067
855.122	22124
855.256	22143
855.39	22150
855.524	22261
855.658	22226
855.792	22105
855.926	22200
856.06	21991
856.194	22211
856.327	22177
856.461	22017
856.595	22082
856.729	22211
856.862	22238
856.996	21998
857.13	22268
857.263	22295
857.397	22215
857.53	22261
857.664	22116
857.797	22166
857.931	22177
858.064	22253
858.197	22207
858.331	22120
858.464	22032
858.597	22010
858.731	22109
858.864	22116
858.997	22067
859.13	22169
859.263	22196
859.396	22249
859.529	22025
859.662	22025
859.795	22124
859.928	22124
860.061	22188
860.194	22348
860.327	22051
860.46	22177
860.592	22242
860.725	22306
860.858	22238
860.99	22116
861.123	22093
861.256	22253
861.388	22124
861.521	22843
861.653	22067
861.786	21934
861.918	22010
862.05	21975
862.183	22086
862.315	21987
862.447	22067
862.58	22048
862.712	21816
862.844	21869
862.976	21835
863.108	21960
863.24	22192
863.372	21720
863.504	21770
863.636	21857
863.768	21884
863.9	21865
864.032	21728
864.164	21857
864.296	21808
864.428	21960
864.559	21778
864.691	21968
864.823	21793
864.954	21831
865.086	21823
865.217	21835
865.349	21793
865.48	21819
865.612	21766
865.743	21876
865.875	21747
866.006	21694
866.137	21724
866.269	21778
866.4	21770
866.531	21701
866.662	21648
866.793	21587
866.924	21534
867.055	21564
867.186	21591
867.317	21572
867.448	21599
867.579	21603
867.71	21595
867.841	21504
867.972	21682
868.103	21614
868.233	21686
868.364	21622
868.495	21698
868.625	21964
868.756	22013
868.886	21785
869.017	21922
869.147	22048
869.278	21960
869.408	21907
869.539	21888
869.669	21964
869.799	21926
869.929	21972
870.06	22128
870.19	22051
870.32	22135
870.45	22238
870.58	22371
870.71	22333
870.84	22341
870.97	22306
871.1	22196
871.23	22402
871.36	22546
871.489	22363
871.619	22405
871.749	22436
871.879	22428
872.008	22516
872.138	22497
872.267	22489
872.397	22265
872.526	22428
872.656	22280
872.785	22192
872.915	22474
873.044	22641
873.173	22451
873.303	22535
873.432	22519
873.561	22637
873.69	22497
873.819	22402
873.948	22554
874.077	22504
874.206	22523
874.335	22546
874.464	22523
874.593	22831
874.722	22569
874.851	22725
874.979	22702
875.108	22820
875.237	22637
875.365	22656
875.494	22698
875.623	22710
875.751	22592
875.88	22721
876.008	22828
876.136	22824
876.265	23029
876.393	23326
876.521	23162
876.65	23185
876.778	23052
876.906	23079
877.034	23018
877.162	22915
877.29	22957
877.418	23010
877.546	23094
877.674	22984
877.802	23136
877.93	23075
878.058	23147
878.185	22885
878.313	23006
878.441	23075
878.568	22809
878.696	22919
878.824	23083
878.951	23044
879.079	23132
879.206	23349
879.333	23239
879.461	23048
879.588	23178
879.715	23105
879.842	23383
879.97	23094
880.097	22885
880.224	22793
880.351	22904
880.478	22858
880.605	22889
880.732	22987
880.859	23143
880.986	22923
881.112	22763
881.239	22721
881.366	22683
881.493	22580
881.619	22512
881.746	22561
881.872	22474
881.999	22455
882.125	22325
882.252	22512
882.378	22360
882.505	22535
882.631	22265
882.757	22169
882.883	22204
883.01	22002
883.136	22029
883.262	21983
883.388	22010
883.514	22173
883.64	22128
883.766	22124
883.892	21979
884.018	22006
884.143	22067
884.269	22166
884.395	21827
884.52	21728
884.646	21713
884.772	21690
884.897	21603
885.023	21842
885.148	21854
885.274	21949
885.399	21888
885.524	21785
885.65	21808
885.775	21755
885.9	21705
886.025	21953
886.15	21823
886.275	21682
886.4	21561
886.525	21686
886.65	21595
886.775	21614
886.9	21778
887.025	21869
887.149	21667
887.274	21439
887.399	21420
887.523	21557
887.648	21530
887.773	21447
887.897	21618
888.021	21519
888.146	21526
888.27	21648
888.395	21618
888.519	21549
888.643	21572
888.767	21557
888.891	21473
889.015	21325
889.139	21264
889.263	21329
889.387	21534
889.511	21644
889.635	21435
889.759	21287
889.883	21161
890.006	21344
890.13	21298
890.254	21249
890.377	21256
890.501	21135
890.624	21070
890.748	21051
890.871	20891
890.995	20979
891.118	20746
891.241	20963
891.364	20895
891.488	21024
891.611	20845
891.734	20944
891.857	20979
891.98	21001
892.103	20933
892.226	20895
892.349	20834
892.471	20708
892.594	20762
892.717	20735
892.839	20735
892.962	20754
893.085	20902
893.207	20811
893.33	20693
893.452	20648
893.575	20777
893.697	20773
893.819	20899
893.941	20914
894.064	21020
894.186	20678
894.308	20590
894.43	20762
894.552	20842
894.674	20758
894.796	20769
894.918	20762
895.04	20663
895.161	20921
895.283	20910
895.405	20739
895.526	20716
895.648	20708
895.769	20712
895.891	20750
896.012	20769
896.134	20819
896.255	20739
896.376	20659
896.498	20636
896.619	20849
896.74	20754
896.861	20815
896.982	21108
897.103	21089
897.224	21005
897.345	21013
897.466	20906
897.587	20960
897.708	21096
897.828	20929
897.949	20838
898.07	20853
898.19	20830
898.311	20975
898.431	20960
898.552	20994
898.672	20910
898.792	21043
898.913	20925
899.033	20765
899.153	20750
899.273	20785
899.393	20686
899.513	20682
899.633	20667
899.753	20788
899.873	20617
899.993	20583
900.113	20602
900.232	20739
900.352	20423
900.472	20537
900.591	20450
900.711	20541
900.83	20454
900.95	20556
901.069	20568
901.189	20317
901.308	20103
901.427	20172
901.546	20107
901.665	19860
901.784	20073
901.904	19921
902.023	19769
902.141	19677
902.26	19514
902.379	19628
902.498	19616
902.617	19453
902.735	19521
902.854	19487
902.973	19434
903.091	19278
903.21	19270
903.328	19266
903.446	19133
903.565	19069
903.683	19122
903.801	18928
903.919	18943
904.038	19019
904.156	18711
904.274	18840
904.392	18760
904.51	18711
904.627	18696
904.745	18821
904.863	18753
904.981	18574
905.098	18422
905.216	18479
905.334	18521
905.451	18391
905.569	18437
905.686	18525
905.803	18334
905.921	18262
906.038	18342
906.155	18251
906.272	18117
906.389	18148
906.506	17942
906.623	17954
906.74	17958
906.857	17927
906.974	17908
907.091	18057
907.208	18121
907.324	17965
907.441	17824
907.557	17646
907.674	17783
907.79	17630
907.907	17608
908.023	17684
908.139	17786
908.256	17676
908.372	17630
908.488	17486
908.604	17425
908.72	17414
908.836	17330
908.952	17307
909.068	17341
909.184	17547
909.3	17398
909.415	17448
909.531	17410
909.647	17155
909.762	17151
909.878	16976
909.993	17025
910.108	17045
910.224	17090
910.339	16972
910.454	16892
910.57	16919
910.685	16797
910.8	17056
910.915	16934
911.03	16911
911.145	16653
911.259	16691
911.374	16641
911.489	16664
911.604	16527
911.718	16409
911.833	16409
911.947	16409
912.062	16386
912.176	16375
912.291	16542
912.405	16394
912.519	16535
912.633	16569
912.748	16432
912.862	16428
912.976	16200
913.09	15991
913.204	16211
913.318	16211
913.431	16325
913.545	16253
913.659	16226
913.772	16158
913.886	16048
914	15949
914.113	16067
914.226	16116
914.34	16116
914.453	15918
914.566	16013
914.68	15903
914.793	15903
914.906	15618
915.019	15660
915.132	15485
915.245	15523
915.358	15633
915.47	15587
915.583	15587
915.696	15610
915.809	15694
915.921	15671
916.034	15599
916.146	15511
916.259	15496
916.371	15633
916.483	15504
916.595	15538
916.708	15408
916.82	15439
916.932	15428
917.044	15428
917.156	15447
917.268	15332
917.38	15249
917.491	15195
917.603	15291
917.715	15245
917.826	15420
917.938	15169
918.049	15062
918.161	15157
918.272	15264
918.384	15272
918.495	15241
918.606	15066
918.717	14948
918.828	15135
918.939	15009
919.05	14914
919.161	14941
919.272	14796
919.383	14845
919.494	15157
919.604	15146
919.715	14952
919.826	14902
919.936	14910
920.047	15047
920.157	15028
920.267	15268
920.378	15013
920.488	14838
920.598	15131
920.708	15291
920.818	15161
920.928	15009
921.038	15279
921.148	15222
921.258	14918
921.368	14918
921.477	14788
921.587	14819
921.697	14636
921.806	14796
921.916	14552
922.025	14427
922.134	14412
922.244	14305
922.353	14454
922.462	14229
922.571	14100
922.68	14073
922.789	13955
922.898	14054
923.007	13986
923.116	14062
923.224	13967
923.333	13967
923.442	13811
923.55	13864
923.659	13887
923.767	13940
923.876	13807
923.984	13765
924.092	13658
924.201	13734
924.309	13708
924.417	13723
924.525	13628
924.633	13693
924.741	14537
924.849	13434
924.956	13601
925.064	13362
925.172	13301
925.279	13335
925.387	13457
925.494	13384
925.602	13487
925.709	13354
925.816	13365
925.924	13301
926.031	13392
926.138	13251
926.245	13316
926.352	13244
926.459	13362
926.566	13407
926.673	13316
926.779	13012
926.886	13133
926.993	12951
927.099	12989
927.206	12814
927.312	12886
927.419	13027
927.525	12924
927.631	12890
927.737	12844
927.843	12764
927.95	12741
928.056	12688
928.162	12734
928.267	12806
928.373	13411
928.479	12829
928.585	12547
928.69	12703
928.796	12700
928.901	12582
929.007	12441
929.112	12642
929.218	12631
929.323	12490
929.428	12506
929.533	12616
929.638	12357
929.743	12403
929.848	12391
929.953	12388
930.058	12285
930.163	12159
930.267	12102
930.372	12254
930.477	12129
930.581	12426
930.685	12148
930.79	11927
930.894	12152
930.998	11973
931.103	12106
931.207	11775
931.311	11741
931.415	11497
931.519	11349
931.623	11368
