Data from test_V78500241_1709.txt Node
Date: Fri Mar 25 15:53:38 CST 2022
User: usil
Spectrometer: V785-0024
Trigger mode: 0
Integration Time (sec): 4.000000E-1
Scans to average: 1
Nonlinearity correction enabled: false
Boxcar width: 0
Storing dark spectrum: false
XAxis mode: Wavelengths
Number of Pixels in Spectrum: 1024
>>>>>Begin Spectral Data<<<<<
801.071	28154
801.214	28147
801.356	27987
801.499	27899
801.641	27819
801.783	27774
801.926	27804
802.068	27766
802.211	27652
802.353	27667
802.496	27298
802.638	27439
802.78	27466
802.923	27325
803.065	27302
803.208	27424
803.35	27530
803.492	27705
803.635	27587
803.777	27549
803.919	27656
804.061	27823
804.204	27789
804.346	27526
804.488	27469
804.63	27732
804.773	27477
804.915	27641
805.057	27789
805.199	27747
805.341	27831
805.483	27682
805.626	27793
805.768	27618
805.91	27842
806.052	27831
806.194	27816
806.336	28029
806.478	27865
806.62	27785
806.762	27960
806.904	28135
807.046	28287
807.188	28284
807.33	28276
807.472	28287
807.614	28325
807.756	28280
807.898	27975
808.04	28070
808.182	27994
808.324	28082
808.465	28162
808.607	28287
808.749	28360
808.891	28557
809.033	28470
809.174	28691
809.316	28618
809.458	28508
809.6	28413
809.741	28615
809.883	28607
810.025	28809
810.166	28645
810.308	28702
810.45	28668
810.591	28691
810.733	28508
810.875	28466
811.016	28272
811.158	28443
811.299	28497
811.441	28641
811.582	28672
811.724	28592
811.865	28481
812.007	28325
812.148	28462
812.29	28527
812.431	28584
812.573	28774
812.714	28987
812.855	28919
812.997	29105
813.138	29174
813.279	29143
813.421	29048
813.562	28812
813.703	28904
813.845	28752
813.986	28413
814.127	28310
814.268	28124
814.41	28219
814.551	28143
814.692	28219
814.833	28109
814.974	28067
815.115	28158
815.256	28029
815.397	28040
815.539	28036
815.68	27956
815.821	27914
815.962	27949
816.103	28029
816.244	27713
816.385	27618
816.526	27823
816.666	27443
816.807	27485
816.948	27583
817.089	27534
817.23	27427
817.371	27443
817.512	27439
817.653	27530
817.793	27363
817.934	27454
818.075	27504
818.216	27454
818.356	27424
818.497	27283
818.638	27161
818.778	27119
818.919	27211
819.06	27260
819.2	27405
819.341	27370
819.481	27424
819.622	27663
819.762	27895
819.903	27694
820.043	27614
820.184	27564
820.324	27637
820.465	27720
820.605	27485
820.746	27606
820.886	27389
821.026	27523
821.167	27469
821.307	27519
821.447	27538
821.588	27477
821.728	27260
821.868	27131
822.008	26979
822.149	27001
822.289	26910
822.429	26651
822.569	26564
822.709	26602
822.849	26522
822.99	26453
823.13	26514
823.27	26332
823.41	26191
823.55	26214
823.69	26381
823.83	26351
823.97	26187
824.11	26062
824.25	26142
824.389	25959
824.529	26043
824.669	26081
824.809	26237
824.949	26142
825.089	26172
825.228	26161
825.368	25982
825.508	25890
825.648	25978
825.787	26008
825.927	26134
826.067	25925
826.206	26107
826.346	25951
826.485	26039
826.625	25894
826.765	26168
826.904	25955
827.044	25719
827.183	25784
827.323	25571
827.462	25681
827.601	25556
827.741	25700
827.88	25784
828.02	25392
828.159	25719
828.298	25704
828.437	25830
828.577	25620
828.716	25772
828.855	25658
828.994	25358
829.134	25282
829.273	25468
829.412	25297
829.551	25324
829.69	25529
829.829	25346
829.968	25419
830.107	25415
830.246	25228
830.385	25308
830.524	25240
830.663	25137
830.802	25038
830.941	24848
831.08	25072
831.219	24951
831.357	24852
831.496	25206
831.635	25088
831.774	24973
831.913	24840
832.051	24863
832.19	24863
832.329	24734
832.467	24658
832.606	24509
832.744	24494
832.883	24578
833.022	24582
833.16	24593
833.299	24635
833.437	24681
833.576	24715
833.714	24738
833.852	24833
833.991	24753
834.129	24730
834.267	24776
834.406	24673
834.544	24764
834.682	24738
834.821	24703
834.959	24863
835.097	24681
835.235	24764
835.373	24525
835.511	24688
835.65	24540
835.788	24525
835.926	24357
836.064	24422
836.202	24395
836.34	24422
836.478	24578
836.615	24559
836.753	24555
836.891	24456
837.029	24612
837.167	24460
837.305	24372
837.443	24433
837.58	24441
837.718	24410
837.856	24407
837.993	24384
838.131	24380
838.269	24140
838.406	24365
838.544	24144
838.681	24007
838.819	23946
838.956	23775
839.094	23916
839.231	23756
839.369	24095
839.506	24304
839.643	24049
839.781	23809
839.918	23790
840.055	23859
840.193	23805
840.33	23813
840.467	23843
840.604	23821
840.742	24087
840.879	23558
841.016	23695
841.153	23619
841.29	23897
841.427	23554
841.564	23802
841.701	23767
841.838	23863
841.975	23554
842.112	23501
842.249	23554
842.385	23585
842.522	23874
842.659	23551
842.796	23467
842.933	23383
843.069	23395
843.206	23444
843.343	23482
843.479	23516
843.616	23406
843.752	23280
843.889	23379
844.025	23501
844.162	23235
844.298	23326
844.435	23239
844.571	23395
844.708	23292
844.844	23395
844.98	23376
845.117	23242
845.253	23254
845.389	23250
845.525	23109
845.661	23094
845.798	23098
845.934	23048
846.07	22946
846.206	23094
846.342	22949
846.478	22984
846.614	22744
846.75	22653
846.886	22706
847.022	22740
847.158	22706
847.294	22816
847.429	22744
847.565	22668
847.701	22889
847.837	22535
847.972	22390
848.108	22733
848.244	22523
848.379	22344
848.515	22295
848.65	22360
848.786	22341
848.921	22318
849.057	22428
849.192	22367
849.328	22405
849.463	22333
849.598	22303
849.734	22211
849.869	22192
850.004	22169
850.14	22112
850.275	22162
850.41	22055
850.545	22185
850.68	22021
850.815	22158
850.95	21960
851.085	22219
851.22	22207
851.355	22055
851.49	21972
851.625	22029
851.76	22048
851.895	21983
852.03	22090
852.165	22090
852.299	22230
852.434	22143
852.569	22074
852.703	22059
852.838	22158
852.973	22166
853.107	22230
853.242	22025
853.376	22082
853.511	21785
853.645	21720
853.78	21975
853.914	21873
854.048	21903
854.183	21968
854.317	21816
854.451	22017
854.585	21884
854.72	21861
854.854	21934
854.988	21762
855.122	21968
855.256	21759
855.39	21983
855.524	21827
855.658	22059
855.792	21964
855.926	21918
856.06	21972
856.194	22044
856.327	21987
856.461	21915
856.595	21918
856.729	21861
856.862	22048
856.996	22013
857.13	21895
857.263	22097
857.397	22029
857.53	21949
857.664	22082
857.797	21937
857.931	21998
858.064	21968
858.197	22067
858.331	21854
858.464	21892
858.597	21876
858.731	21934
858.864	21934
858.997	21800
859.13	21880
859.263	21930
859.396	21991
859.529	21850
859.662	21888
859.795	21888
859.928	21873
860.061	22063
860.194	22040
860.327	22006
860.46	21827
860.592	22097
860.725	22150
860.858	21994
860.99	21842
861.123	21869
861.256	21762
861.388	21812
861.521	22645
861.653	21842
861.786	21717
861.918	21625
862.05	21808
862.183	21838
862.315	21937
862.447	21869
862.58	21861
862.712	21618
862.844	21633
862.976	21694
863.108	21724
863.24	21926
863.372	21663
863.504	21625
863.636	21595
863.768	21595
863.9	21675
864.032	21545
864.164	21641
864.296	21538
864.428	21739
864.559	21698
864.691	21682
864.823	21572
864.954	21633
865.086	21595
865.217	21614
865.349	21504
865.48	21595
865.612	21587
865.743	21629
865.875	21488
866.006	21481
866.137	21504
866.269	21477
866.4	21511
866.531	21485
866.662	21526
866.793	21450
866.924	21477
867.055	21431
867.186	21389
867.317	21374
867.448	21420
867.579	21359
867.71	21325
867.841	21294
867.972	21424
868.103	21370
868.233	21485
868.364	21454
868.495	21416
868.625	21667
868.756	21644
868.886	21622
869.017	21610
869.147	21861
869.278	21762
869.408	21682
869.539	21701
869.669	21762
869.799	21694
869.929	21850
870.06	21755
870.19	21949
870.32	22082
870.45	22017
870.58	22078
870.71	22086
870.84	22097
870.97	22086
871.1	21964
871.23	22154
871.36	22318
871.489	22284
871.619	22169
871.749	22207
871.879	22226
872.008	22348
872.138	22329
872.267	22322
872.397	22116
872.526	22112
872.656	22207
872.785	22025
872.915	22200
873.044	22402
873.173	22291
873.303	22337
873.432	22314
873.561	22405
873.69	22299
873.819	22287
873.948	22333
874.077	22314
874.206	22246
874.335	22322
874.464	22394
874.593	22470
874.722	22508
874.851	22478
874.979	22508
875.108	22580
875.237	22512
875.365	22303
875.494	22459
875.623	22592
875.751	22497
875.88	22470
876.008	22637
876.136	22603
876.265	22831
876.393	23098
876.521	22984
876.65	23014
876.778	22927
876.906	22873
877.034	22877
877.162	22740
877.29	22889
877.418	22759
877.546	23022
877.674	22812
877.802	22908
877.93	22889
878.058	22831
878.185	22698
878.313	22782
878.441	22717
878.568	22573
878.696	22797
878.824	22847
878.951	22942
879.079	23025
879.206	23227
879.333	23064
879.461	22759
879.588	22923
879.715	22976
879.842	23155
879.97	23018
880.097	22706
880.224	22675
880.351	22717
880.478	22580
880.605	22607
880.732	22637
880.859	22869
880.986	22733
881.112	22660
881.239	22519
881.366	22352
881.493	22344
881.619	22329
881.746	22375
881.872	22257
881.999	22280
882.125	22162
882.252	22352
882.378	22306
882.505	22390
882.631	22192
882.757	21888
882.883	22067
883.01	22036
883.136	21861
883.262	21854
883.388	21778
883.514	21918
883.64	21972
883.766	21854
883.892	21713
884.018	21641
884.143	21861
884.269	21956
884.395	21614
884.52	21526
884.646	21633
884.772	21523
884.897	21428
885.023	21580
885.148	21614
885.274	21747
885.399	21717
885.524	21519
885.65	21568
885.775	21542
885.9	21610
886.025	21561
886.15	21705
886.275	21580
886.4	21580
886.525	21538
886.65	21538
886.775	21382
886.9	21564
887.025	21819
887.149	21542
887.274	21488
887.399	21401
887.523	21389
887.648	21260
887.773	21230
887.897	21473
888.021	21370
888.146	21298
888.27	21348
888.395	21466
888.519	21283
888.643	21382
888.767	21310
888.891	21241
889.015	21104
889.139	21176
889.263	21169
889.387	21211
889.511	21420
889.635	21241
889.759	21096
889.883	21104
890.006	21112
890.13	21184
890.254	21039
890.377	21093
890.501	20902
890.624	20872
890.748	20948
890.871	20735
890.995	20686
891.118	20629
891.241	20781
891.364	20735
891.488	20712
891.611	20762
891.734	20724
891.857	20697
891.98	20708
892.103	20773
892.226	20632
892.349	20640
892.471	20499
892.594	20613
892.717	20575
892.839	20583
892.962	20617
893.085	20674
893.207	20571
893.33	20450
893.452	20488
893.575	20648
893.697	20609
893.819	20697
893.941	20849
894.064	20769
894.186	20514
894.308	20473
894.43	20750
894.552	20686
894.674	20640
894.796	20473
894.918	20503
895.04	20400
895.161	20701
895.283	20693
895.405	20590
895.526	20644
895.648	20545
895.769	20602
895.891	20648
896.012	20663
896.134	20579
896.255	20651
896.376	20530
896.498	20590
896.619	20636
896.74	20366
896.861	20594
896.982	20979
897.103	20929
897.224	20880
897.345	20750
897.466	20746
897.587	20979
897.708	20864
897.828	20823
897.949	20560
898.07	20667
898.19	20807
898.311	20864
898.431	20735
898.552	20712
898.672	20944
898.792	20906
898.913	20800
899.033	20716
899.153	20629
899.273	20400
899.393	20518
899.513	20575
899.633	20434
899.753	20655
899.873	20552
899.993	20552
900.113	20465
900.232	20499
900.352	20408
900.472	20454
900.591	20328
900.711	20385
900.83	20339
900.95	20343
901.069	20320
901.189	20206
901.308	20046
901.427	19826
901.546	19909
901.665	19860
901.784	19906
901.904	19788
902.023	19643
902.141	19445
902.26	19384
902.379	19521
902.498	19438
902.617	19358
902.735	19548
902.854	19331
902.973	19221
903.091	19042
903.21	18905
903.328	19027
903.446	18932
903.565	19019
903.683	18795
903.801	18734
903.919	18840
904.038	18859
904.156	18658
904.274	18669
904.392	18601
904.51	18582
904.627	18612
904.745	18601
904.863	18669
904.981	18357
905.098	18251
905.216	18289
905.334	18334
905.451	18323
905.569	18289
905.686	18216
905.803	18262
905.921	18034
906.038	18201
906.155	18007
906.272	17923
906.389	18030
906.506	17904
906.623	17824
906.74	17809
906.857	17794
906.974	17870
907.091	17840
907.208	17958
907.324	17775
907.441	17760
907.557	17570
907.674	17467
907.79	17455
907.907	17444
908.023	17455
908.139	17547
908.256	17452
908.372	17471
908.488	17379
908.604	17273
908.72	17235
908.836	17246
908.952	17292
909.068	17356
909.184	17391
909.3	17273
909.415	17239
909.531	17242
909.647	16995
909.762	16885
909.878	16934
909.993	16942
910.108	16896
910.224	16923
910.339	16923
910.454	16797
910.57	16858
910.685	16569
910.8	16938
910.915	16843
911.03	16740
911.145	16565
911.259	16493
911.374	16554
911.489	16462
911.604	16489
911.718	16306
911.833	16291
911.947	16128
912.062	16154
912.176	16337
912.291	16207
912.405	16249
912.519	16417
912.633	16360
912.748	16394
912.862	16303
912.976	16181
913.09	15983
913.204	16017
913.318	16074
913.431	16192
913.545	16135
913.659	16097
913.772	16143
913.886	15854
914	15846
914.113	16044
914.226	15975
914.34	15983
914.453	15778
914.566	15873
914.68	15762
914.793	15705
914.906	15564
915.019	15561
915.132	15477
915.245	15534
915.358	15542
915.47	15564
915.583	15443
915.696	15519
915.809	15576
915.921	15660
916.034	15313
916.146	15466
916.259	15473
916.371	15477
916.483	15473
916.595	15325
916.708	15291
916.82	15332
916.932	15256
917.044	15233
917.156	15218
917.268	15116
917.38	15116
917.491	15058
917.603	15173
917.715	15169
917.826	15218
917.938	15032
918.049	14910
918.161	14986
918.272	15165
918.384	15154
918.495	15066
918.606	14967
918.717	14887
918.828	14819
918.939	14872
919.05	14743
919.161	14861
919.272	14705
919.383	14686
919.494	14899
919.604	15013
919.715	14838
919.826	14731
919.936	14811
920.047	14929
920.157	14895
920.267	15043
920.378	14796
920.488	14781
920.598	14990
920.708	15146
920.818	14948
920.928	14994
921.038	15108
921.148	15070
921.258	14693
921.368	14651
921.477	14602
921.587	14530
921.697	14446
921.806	14530
921.916	14366
922.025	14278
922.134	14229
922.244	14244
922.353	14233
922.462	14069
922.571	13951
922.68	13887
922.789	13852
922.898	13887
923.007	13734
923.116	13852
923.224	13845
923.333	13909
923.442	13666
923.55	13689
923.659	13594
923.767	13731
923.876	13674
923.984	13689
924.092	13563
924.201	13609
924.309	13525
924.417	13575
924.525	13483
924.633	13483
924.741	14355
924.849	13327
924.956	13400
925.064	13266
925.172	13126
925.279	13289
925.387	13198
925.494	13244
925.602	13266
925.709	13232
925.816	13084
925.924	13236
926.031	13316
926.138	13141
926.245	13255
926.352	12996
926.459	13164
926.566	13217
926.673	13164
926.779	12993
926.886	13004
926.993	12757
927.099	12738
927.206	12684
927.312	12779
927.419	12856
927.525	12890
927.631	12833
927.737	12654
927.843	12589
927.95	12601
928.056	12597
928.162	12665
928.267	12604
928.373	13301
928.479	12597
928.585	12456
928.69	12566
928.796	12528
928.901	12479
929.007	12327
929.112	12448
929.218	12384
929.323	12342
929.428	12289
929.533	12525
929.638	12277
929.743	12266
929.848	12330
929.953	12254
930.058	12133
930.163	11992
930.267	12053
930.372	12163
930.477	11901
930.581	12213
930.685	12045
930.79	11870
930.894	11977
930.998	11843
931.103	12053
931.207	11642
931.311	11467
931.415	11558
931.519	11299
931.623	11292
