Data from test_V78500241_3641.txt Node
Date: Fri Mar 25 16:07:01 CST 2022
User: usil
Spectrometer: V785-0024
Trigger mode: 0
Integration Time (sec): 4.000000E-1
Scans to average: 1
Nonlinearity correction enabled: false
Boxcar width: 0
Storing dark spectrum: false
XAxis mode: Wavelengths
Number of Pixels in Spectrum: 1024
>>>>>Begin Spectral Data<<<<<
801.071	28040
801.214	27979
801.356	27800
801.499	27739
801.641	27724
801.783	27732
801.926	27739
802.068	27705
802.211	27614
802.353	27595
802.496	27431
802.638	27317
802.78	27325
802.923	27161
803.065	27131
803.208	27283
803.35	27188
803.492	27416
803.635	27568
803.777	27355
803.919	27466
804.061	27816
804.204	27606
804.346	27450
804.488	27450
804.63	27378
804.773	27488
804.915	27606
805.057	27633
805.199	27572
805.341	27698
805.483	27637
805.626	27583
805.768	27686
805.91	27701
806.052	27648
806.194	27629
806.336	27873
806.478	27595
806.62	27705
806.762	27660
806.904	27884
807.046	28105
807.188	28097
807.33	27964
807.472	28116
807.614	28010
807.756	27998
807.898	27892
808.04	27865
808.182	27713
808.324	27964
808.465	27911
808.607	28097
808.749	28318
808.891	28478
809.033	28432
809.174	28447
809.316	28443
809.458	28204
809.6	28295
809.741	28363
809.883	28371
810.025	28523
810.166	28466
810.308	28584
810.45	28565
810.591	28489
810.733	28413
810.875	28356
811.016	28223
811.158	28257
811.299	28405
811.441	28421
811.582	28478
811.724	28329
811.865	28284
812.007	28333
812.148	28500
812.29	28348
812.431	28557
812.573	28615
812.714	28687
812.855	28839
812.997	28934
813.138	28991
813.279	28942
813.421	28896
813.562	28721
813.703	28698
813.845	28508
813.986	28207
814.127	27960
814.268	27991
814.41	28135
814.551	28040
814.692	27979
814.833	27937
814.974	28025
815.115	28013
815.256	27911
815.397	27827
815.539	27968
815.68	27922
815.821	27732
815.962	27850
816.103	27770
816.244	27816
816.385	27542
816.526	27526
816.666	27507
816.807	27298
816.948	27135
817.089	27405
817.23	27256
817.371	27146
817.512	27230
817.653	27237
817.793	27298
817.934	27245
818.075	27260
818.216	27344
818.356	27329
818.497	27192
818.638	27047
818.778	27138
818.919	27081
819.06	27173
819.2	27199
819.341	27393
819.481	27306
819.622	27466
819.762	27663
819.903	27511
820.043	27545
820.184	27370
820.324	27439
820.465	27408
820.605	27336
820.746	27534
820.886	27233
821.026	27310
821.167	27405
821.307	27469
821.447	27317
821.588	27214
821.728	27119
821.868	26975
822.008	26868
822.149	26781
822.289	26792
822.429	26602
822.569	26404
822.709	26526
822.849	26290
822.99	26286
823.13	26339
823.27	26271
823.41	26115
823.55	25921
823.69	26157
823.83	25947
823.97	26050
824.11	25959
824.25	25921
824.389	25871
824.529	26027
824.669	25818
824.809	26062
824.949	26046
825.089	25993
825.228	25993
825.368	25769
825.508	25784
825.648	25852
825.787	25830
825.927	25875
826.067	25761
826.206	25609
826.346	25814
826.485	25917
826.625	25864
826.765	25795
826.904	25723
827.044	25506
827.183	25567
827.323	25434
827.462	25502
827.601	25537
827.741	25457
827.88	25529
828.02	25449
828.159	25460
828.298	25575
828.437	25506
828.577	25400
828.716	25495
828.855	25502
828.994	25168
829.134	25206
829.273	25190
829.412	25175
829.551	25095
829.69	25168
829.829	25225
829.968	25251
830.107	25274
830.246	25152
830.385	25107
830.524	25145
830.663	24951
830.802	24753
830.941	24829
831.08	24768
831.219	24920
831.357	24894
831.496	24981
831.635	24753
831.774	24646
831.913	24639
832.051	24665
832.19	24593
832.329	24623
832.467	24540
832.606	24410
832.744	24407
832.883	24486
833.022	24555
833.16	24471
833.299	24570
833.437	24574
833.576	24589
833.714	24513
833.852	24616
833.991	24722
834.129	24635
834.267	24589
834.406	24582
834.544	24452
834.682	24570
834.821	24403
834.959	24692
835.097	24505
835.235	24559
835.373	24452
835.511	24601
835.65	24448
835.788	24304
835.926	24308
836.064	24106
836.202	24319
836.34	24456
836.478	24547
836.615	24467
836.753	24433
836.891	24342
837.029	24254
837.167	24266
837.305	24190
837.443	24216
837.58	24228
837.718	24319
837.856	24190
837.993	24053
838.131	24197
838.269	24030
838.406	24159
838.544	23942
838.681	23950
838.819	23805
838.956	23764
839.094	23619
839.231	23798
839.369	23863
839.506	24098
839.643	23992
839.781	23600
839.918	23718
840.055	23535
840.193	23604
840.33	23520
840.467	23554
840.604	23581
840.742	23790
840.879	23410
841.016	23642
841.153	23410
841.29	23649
841.427	23573
841.564	23638
841.701	23543
841.838	23649
841.975	23524
842.112	23452
842.249	23440
842.385	23433
842.522	23577
842.659	23345
842.796	23322
842.933	23269
843.069	23486
843.206	23296
843.343	23341
843.479	23334
843.616	23261
843.752	23208
843.889	23162
844.025	23296
844.162	22995
844.298	23170
844.435	23109
844.571	23075
844.708	23155
844.844	23349
844.98	23269
845.117	23269
845.253	23041
845.389	22972
845.525	23094
845.661	22915
845.798	22915
845.934	23022
846.07	22904
846.206	22938
846.342	23033
846.478	22862
846.614	22618
846.75	22519
846.886	22664
847.022	22721
847.158	22656
847.294	22611
847.429	22542
847.565	22596
847.701	22710
847.837	22341
847.972	22268
848.108	22459
848.244	22455
848.379	22306
848.515	22196
848.65	22154
848.786	22204
848.921	22276
849.057	22299
849.192	22337
849.328	22192
849.463	22135
849.598	22139
849.734	21903
849.869	21926
850.004	21857
850.14	22021
850.275	22032
850.41	21831
850.545	21945
850.68	21922
850.815	21937
850.95	21956
851.085	22067
851.22	22078
851.355	22017
851.49	21964
851.625	21998
851.76	21998
851.895	21785
852.03	21888
852.165	21972
852.299	22074
852.434	22177
852.569	21915
852.703	21895
852.838	22048
852.973	22051
853.107	22105
853.242	21941
853.376	21770
853.511	21663
853.645	21781
853.78	21888
853.914	21751
854.048	21736
854.183	21705
854.317	21831
854.451	22006
854.585	21922
854.72	21827
854.854	21869
854.988	21701
855.122	21835
855.256	21743
855.39	21778
855.524	21918
855.658	21812
855.792	21728
855.926	21823
856.06	21911
856.194	21827
856.327	21808
856.461	21720
856.595	21789
856.729	21865
856.862	21865
856.996	21854
857.13	21854
857.263	21987
857.397	21808
857.53	21660
857.664	21751
857.797	21888
857.931	22013
858.064	21759
858.197	21873
858.331	21827
858.464	21724
858.597	21705
858.731	21682
858.864	21823
858.997	21663
859.13	21705
859.263	21739
859.396	21793
859.529	21766
859.662	21751
859.795	21751
859.928	21819
860.061	21983
860.194	22048
860.327	21850
860.46	21751
860.592	21918
860.725	21918
860.858	21854
860.99	21895
861.123	21850
861.256	21739
861.388	21682
861.521	22554
861.653	21656
861.786	21648
861.918	21690
862.05	21545
862.183	21736
862.315	21713
862.447	21759
862.58	21644
862.712	21587
862.844	21576
862.976	21610
863.108	21450
863.24	21987
863.372	21443
863.504	21526
863.636	21477
863.768	21580
863.9	21587
864.032	21534
864.164	21466
864.296	21500
864.428	21686
864.559	21618
864.691	21515
864.823	21511
864.954	21507
865.086	21485
865.217	21355
865.349	21428
865.48	21412
865.612	21473
865.743	21633
865.875	21367
866.006	21633
866.137	21424
866.269	21393
866.4	21458
866.531	21317
866.662	21313
866.793	21214
866.924	21340
867.055	21230
867.186	21329
867.317	21405
867.448	21135
867.579	21302
867.71	21180
867.841	21226
867.972	21150
868.103	21195
868.233	21340
868.364	21321
868.495	21462
868.625	21507
868.756	21618
868.886	21477
869.017	21583
869.147	21690
869.278	21656
869.408	21507
869.539	21576
869.669	21694
869.799	21641
869.929	21675
870.06	21698
870.19	21926
870.32	21850
870.45	21991
870.58	21983
870.71	22067
870.84	22010
870.97	21998
871.1	21956
871.23	22177
871.36	22131
871.489	22036
871.619	22131
871.749	22226
871.879	22318
872.008	22360
872.138	22192
872.267	22181
872.397	22044
872.526	21949
872.656	21934
872.785	21964
872.915	22341
873.044	22375
873.173	22253
873.303	22223
873.432	22188
873.561	22207
873.69	22268
873.819	22215
873.948	22242
874.077	22230
874.206	22017
874.335	22116
874.464	22303
874.593	22390
874.722	22474
874.851	22447
874.979	22481
875.108	22478
875.237	22310
875.365	22352
875.494	22417
875.623	22527
875.751	22519
875.88	22424
876.008	22542
876.136	22596
876.265	22771
876.393	22927
876.521	22835
876.65	22862
876.778	22881
876.906	22748
877.034	22812
877.162	22782
877.29	22706
877.418	22782
877.546	22809
877.674	22778
877.802	22702
877.93	22896
878.058	22755
878.185	22698
878.313	22740
878.441	22805
878.568	22550
878.696	22755
878.824	22672
878.951	22873
879.079	22908
879.206	23029
879.333	22961
879.461	22736
879.588	22877
879.715	22801
879.842	23025
879.97	22835
880.097	22527
880.224	22649
880.351	22664
880.478	22577
880.605	22603
880.732	22592
880.859	22923
880.986	22573
881.112	22691
881.239	22432
881.366	22219
881.493	22272
881.619	22158
881.746	22143
881.872	22120
881.999	22082
882.125	22048
882.252	22188
882.378	22124
882.505	22211
882.631	22040
882.757	21800
882.883	21873
883.01	21823
883.136	21793
883.262	21793
883.388	21694
883.514	21793
883.64	21812
883.766	21964
883.892	21648
884.018	21618
884.143	21648
884.269	21701
884.395	21606
884.52	21481
884.646	21587
884.772	21401
884.897	21393
885.023	21675
885.148	21564
885.274	21576
885.399	21618
885.524	21564
885.65	21443
885.775	21530
885.9	21466
886.025	21564
886.15	21466
886.275	21542
886.4	21519
886.525	21397
886.65	21336
886.775	21332
886.9	21561
887.025	21694
887.149	21450
887.274	21351
887.399	21222
887.523	21237
887.648	21279
887.773	21195
887.897	21287
888.021	21237
888.146	21047
888.27	21401
888.395	21340
888.519	21329
888.643	21199
888.767	21245
888.891	21146
889.015	21009
889.139	21119
889.263	21020
889.387	21085
889.511	21214
889.635	21184
889.759	21020
889.883	20910
890.006	21020
890.13	21085
890.254	20986
890.377	20971
890.501	20800
890.624	20762
890.748	20910
890.871	20712
890.995	20716
891.118	20568
891.241	20705
891.364	20545
891.488	20777
891.611	20602
891.734	20651
891.857	20743
891.98	20492
892.103	20701
892.226	20587
892.349	20549
892.471	20499
892.594	20473
892.717	20476
892.839	20560
892.962	20518
893.085	20533
893.207	20514
893.33	20347
893.452	20412
893.575	20587
893.697	20526
893.819	20674
893.941	20773
894.064	20667
894.186	20423
894.308	20488
894.43	20537
894.552	20686
894.674	20629
894.796	20457
894.918	20492
895.04	20446
895.161	20507
895.283	20533
895.405	20400
895.526	20556
895.648	20450
895.769	20461
895.891	20617
896.012	20590
896.134	20434
896.255	20514
896.376	20434
896.498	20423
896.619	20545
896.74	20522
896.861	20594
896.982	20819
897.103	20941
897.224	20788
897.345	20727
897.466	20697
897.587	20716
897.708	20891
897.828	20792
897.949	20667
898.07	20564
898.19	20674
898.311	20769
898.431	20716
898.552	20621
898.672	20788
898.792	20746
898.913	20663
899.033	20629
899.153	20590
899.273	20514
899.393	20469
899.513	20537
899.633	20560
899.753	20583
899.873	20381
899.993	20484
900.113	20473
900.232	20404
900.352	20343
900.472	20362
900.591	20202
900.711	20271
900.83	20157
900.95	20355
901.069	20294
901.189	20134
901.308	19868
901.427	19837
901.546	19845
901.665	19818
901.784	19780
901.904	19826
902.023	19620
902.141	19392
902.26	19320
902.379	19350
902.498	19335
902.617	19266
902.735	19365
902.854	19244
902.973	19247
903.091	19004
903.21	19076
903.328	18871
903.446	18867
903.565	18707
903.683	18757
903.801	18734
903.919	18719
904.038	18639
904.156	18566
904.274	18700
904.392	18464
904.51	18620
904.627	18433
904.745	18623
904.863	18601
904.981	18270
905.098	18247
905.216	18197
905.334	18323
905.451	18262
905.569	18254
905.686	18266
905.803	18167
905.921	17969
906.038	18136
906.155	17931
906.272	17904
906.389	17840
906.506	17657
906.623	17764
906.74	17668
906.857	17691
906.974	17646
907.091	17836
907.208	17878
907.324	17866
907.441	17551
907.557	17482
907.674	17478
907.79	17425
907.907	17482
908.023	17467
908.139	17478
908.256	17402
908.372	17242
908.488	17292
908.604	17185
908.72	17162
908.836	17197
908.952	17136
909.068	17185
909.184	17318
909.3	17193
909.415	17181
909.531	17185
909.647	16793
909.762	16835
909.878	16900
909.993	16892
910.108	16847
910.224	16839
910.339	16812
910.454	16649
910.57	16675
910.685	16645
910.8	16930
910.915	16759
911.03	16641
911.145	16493
911.259	16451
911.374	16489
911.489	16459
911.604	16230
911.718	16181
911.833	16177
911.947	16177
912.062	16006
912.176	16211
912.291	16192
912.405	16173
912.519	16402
912.633	16310
912.748	16154
912.862	16147
912.976	16048
913.09	15880
913.204	15854
913.318	15953
913.431	16173
913.545	16128
913.659	16139
913.772	15956
913.886	15854
914	15865
914.113	15937
914.226	15991
914.34	15876
914.453	15812
914.566	15808
914.68	15785
914.793	15732
914.906	15412
915.019	15348
915.132	15355
915.245	15340
915.358	15386
915.47	15412
915.583	15469
915.696	15382
915.809	15538
915.921	15568
916.034	15321
916.146	15230
916.259	15336
916.371	15317
916.483	15397
916.595	15264
916.708	15268
916.82	15252
916.932	15237
917.044	15195
917.156	15195
917.268	15074
917.38	15108
917.491	15089
917.603	15077
917.715	15146
917.826	15089
917.938	15058
918.049	14891
918.161	14948
918.272	15024
918.384	15100
918.495	15017
918.606	14796
918.717	14682
918.828	14925
918.939	14906
919.05	14724
919.161	14800
919.272	14518
919.383	14621
919.494	14823
919.604	14994
919.715	14743
919.826	14792
919.936	14739
920.047	14769
920.157	14735
920.267	14902
920.378	14838
920.488	14735
920.598	14982
920.708	15108
920.818	14868
920.928	14918
921.038	15070
921.148	15024
921.258	14781
921.368	14575
921.477	14488
921.587	14442
921.697	14423
921.806	14461
921.916	14381
922.025	14195
922.134	14275
922.244	14134
922.353	14149
922.462	13989
922.571	13902
922.68	13776
922.789	13822
922.898	13776
923.007	13799
923.116	13894
923.224	13712
923.333	13765
923.442	13655
923.55	13696
923.659	13628
923.767	13746
923.876	13506
923.984	13609
924.092	13483
924.201	13540
924.309	13483
924.417	13502
924.525	13453
924.633	13480
924.741	14347
924.849	13194
924.956	13354
925.064	13152
925.172	13095
925.279	13141
925.387	13209
925.494	13209
925.602	13289
925.709	13217
925.816	13023
925.924	13137
926.031	13225
926.138	13126
926.245	13137
926.352	13019
926.459	13217
926.566	13118
926.673	13095
926.779	12943
926.886	12947
926.993	12825
927.099	12768
927.206	12741
927.312	12722
927.419	12829
927.525	12719
927.631	12753
927.737	12585
927.843	12593
927.95	12460
928.056	12536
928.162	12486
928.267	12646
928.373	13175
928.479	12627
928.585	12342
928.69	12513
928.796	12407
928.901	12464
929.007	12254
929.112	12426
929.218	12479
929.323	12308
929.428	12270
929.533	12426
929.638	12216
929.743	12308
929.848	12216
929.953	12266
930.058	12155
930.163	11984
930.267	11988
930.372	12155
930.477	11916
930.581	12159
930.685	12011
930.79	11908
930.894	11855
930.998	11764
931.103	11961
931.207	11600
931.311	11547
931.415	11444
931.519	11166
931.623	11265
