Data from test_V78500241_752.txt Node
Date: Fri Mar 25 15:47:00 CST 2022
User: usil
Spectrometer: V785-0024
Trigger mode: 0
Integration Time (sec): 4.000000E-1
Scans to average: 1
Nonlinearity correction enabled: false
Boxcar width: 0
Storing dark spectrum: false
XAxis mode: Wavelengths
Number of Pixels in Spectrum: 1024
>>>>>Begin Spectral Data<<<<<
801.071	27857
801.214	27800
801.356	27568
801.499	27587
801.641	27374
801.783	27386
801.926	27466
802.068	27450
802.211	27237
802.353	27256
802.496	27176
802.638	27192
802.78	27066
802.923	27043
803.065	27062
803.208	27001
803.35	27062
803.492	27093
803.635	27165
803.777	27138
803.919	27264
804.061	27728
804.204	27294
804.346	27245
804.488	27165
804.63	27302
804.773	27176
804.915	27321
805.057	27420
805.199	27336
805.341	27359
805.483	27370
805.626	27439
805.768	27222
805.91	27447
806.052	27507
806.194	27355
806.336	27477
806.478	27477
806.62	27553
806.762	27473
806.904	27610
807.046	28002
807.188	27956
807.33	27819
807.472	27983
807.614	27861
807.756	27880
807.898	27713
808.04	27603
808.182	27637
808.324	27637
808.465	27656
808.607	27804
808.749	27968
808.891	28181
809.033	28238
809.174	28051
809.316	28101
809.458	28131
809.6	28067
809.741	28246
809.883	28139
810.025	28485
810.166	28268
810.308	28242
810.45	28314
810.591	28223
810.733	28078
810.875	28059
811.016	28010
811.158	27842
811.299	28162
811.441	28284
811.582	28215
811.724	28074
811.865	28097
812.007	28078
812.148	28093
812.29	28135
812.431	28291
812.573	28447
812.714	28516
812.855	28645
812.997	28679
813.138	28805
813.279	28588
813.421	28546
813.562	28523
813.703	28489
813.845	28310
813.986	27964
814.127	27751
814.268	27781
814.41	27800
814.551	27641
814.692	27873
814.833	27663
814.974	27675
815.115	27766
815.256	27622
815.397	27583
815.539	27614
815.68	27443
815.821	27511
815.962	27576
816.103	27618
816.244	27420
816.385	27336
816.526	27359
816.666	27104
816.807	27051
816.948	27199
817.089	27081
817.23	27119
817.371	27009
817.512	26986
817.653	26990
817.793	27013
817.934	27104
818.075	27032
818.216	27043
818.356	27089
818.497	26971
818.638	26739
818.778	26811
818.919	26727
819.06	26834
819.2	27039
819.341	27051
819.481	27119
819.622	27161
819.762	27416
819.903	27313
820.043	27188
820.184	27241
820.324	27211
820.465	27287
820.605	27112
820.746	27199
820.886	26967
821.026	27203
821.167	27211
821.307	27131
821.447	26979
821.588	26910
821.728	26815
821.868	26686
822.008	26537
822.149	26564
822.289	26613
822.429	26195
822.569	26244
822.709	26206
822.849	26092
822.99	26103
823.13	25966
823.27	25993
823.41	25791
823.55	25788
823.69	25788
823.83	25837
823.97	25811
824.11	25582
824.25	25651
824.389	25715
824.529	25753
824.669	25841
824.809	25856
824.949	25795
825.089	25826
825.228	25708
825.368	25594
825.508	25559
825.648	25506
825.787	25601
825.927	25643
826.067	25533
826.206	25518
826.346	25685
826.485	25674
826.625	25575
826.765	25651
826.904	25609
827.044	25312
827.183	25278
827.323	25247
827.462	25206
827.601	25297
827.741	25285
827.88	25316
828.02	25152
828.159	25244
828.298	25373
828.437	25282
828.577	25107
828.716	25308
828.855	25202
828.994	25057
829.134	25114
829.273	24939
829.412	24886
829.551	24928
829.69	24867
829.829	25069
829.968	25031
830.107	24958
830.246	24985
830.385	24867
830.524	24738
830.663	24825
830.802	24734
830.941	24681
831.08	24513
831.219	24692
831.357	24639
831.496	24738
831.635	24661
831.774	24429
831.913	24502
832.051	24262
832.19	24338
832.329	24403
832.467	24270
832.606	24163
832.744	24220
832.883	24205
833.022	24262
833.16	24247
833.299	24220
833.437	24327
833.576	24372
833.714	24353
833.852	24296
833.991	24311
834.129	24365
834.267	24334
834.406	24315
834.544	24346
834.682	24273
834.821	24273
834.959	24395
835.097	24224
835.235	24251
835.373	24330
835.511	24163
835.65	24106
835.788	24102
835.926	23977
836.064	23923
836.202	23946
836.34	24235
836.478	24357
836.615	24117
836.753	24102
836.891	24258
837.029	24106
837.167	24114
837.305	23984
837.443	24045
837.58	23984
837.718	24022
837.856	23828
837.993	23908
838.131	23874
838.269	23752
838.406	23927
838.544	23824
838.681	23539
838.819	23562
838.956	23471
839.094	23425
839.231	23516
839.369	23627
839.506	23889
839.643	23710
839.781	23543
839.918	23315
840.055	23524
840.193	23531
840.33	23474
840.467	23414
840.604	23440
840.742	23619
840.879	23311
841.016	23292
841.153	23208
841.29	23455
841.427	23379
841.564	23395
841.701	23417
841.838	23269
841.975	23296
842.112	23269
842.249	23322
842.385	23075
842.522	23269
842.659	23159
842.796	23003
842.933	22908
843.069	22946
843.206	23010
843.343	23220
843.479	23132
843.616	23136
843.752	22942
843.889	22904
844.025	22995
844.162	22778
844.298	22778
844.435	22755
844.571	22847
844.708	22816
844.844	22995
844.98	23052
845.117	23064
845.253	22809
845.389	22664
845.525	22767
845.661	22622
845.798	22660
845.934	22679
846.07	22721
846.206	22656
846.342	22759
846.478	22592
846.614	22424
846.75	22325
846.886	22265
847.022	22470
847.158	22253
847.294	22413
847.429	22352
847.565	22333
847.701	22577
847.837	22051
847.972	21918
848.108	22196
848.244	22112
848.379	21953
848.515	21922
848.65	21857
848.786	21911
848.921	21903
849.057	21975
849.192	22017
849.328	21945
849.463	21991
849.598	21945
849.734	21720
849.869	21827
850.004	21694
850.14	21709
850.275	21622
850.41	21568
850.545	21698
850.68	21587
850.815	21766
850.95	21793
851.085	21854
851.22	21793
851.355	21823
851.49	21732
851.625	21568
851.76	21648
851.895	21538
852.03	21481
852.165	21629
852.299	21876
852.434	21732
852.569	21682
852.703	21698
852.838	21827
852.973	21880
853.107	21759
853.242	21519
853.376	21485
853.511	21355
853.645	21481
853.78	21576
853.914	21412
854.048	21454
854.183	21485
854.317	21466
854.451	21614
854.585	21660
854.72	21496
854.854	21553
854.988	21473
855.122	21355
855.256	21302
855.39	21458
855.524	21519
855.658	21568
855.792	21591
855.926	21477
856.06	21553
856.194	21648
856.327	21538
856.461	21416
856.595	21500
856.729	21492
856.862	21595
856.996	21564
857.13	21610
857.263	21599
857.397	21568
857.53	21431
857.664	21663
857.797	21553
857.931	21641
858.064	21553
858.197	21557
858.331	21625
858.464	21447
858.597	21443
858.731	21523
858.864	21538
858.997	21500
859.13	21572
859.263	21492
859.396	21603
859.529	21431
859.662	21420
859.795	21496
859.928	21572
860.061	21515
860.194	21766
860.327	21576
860.46	21504
860.592	21557
860.725	21736
860.858	21618
860.99	21542
861.123	21538
861.256	21412
861.388	21492
861.521	22272
861.653	21370
861.786	21275
861.918	21336
862.05	21435
862.183	21473
862.315	21515
862.447	21431
862.58	21348
862.712	21272
862.844	21150
862.976	21313
863.108	21260
863.24	21633
863.372	21180
863.504	21272
863.636	21256
863.768	21313
863.9	21165
864.032	21207
864.164	21332
864.296	21374
864.428	21329
864.559	21317
864.691	21241
864.823	21230
864.954	21268
865.086	21211
865.217	21077
865.349	20948
865.48	21077
865.612	21108
865.743	21279
865.875	21222
866.006	21119
866.137	21135
866.269	21173
866.4	21226
866.531	21108
866.662	20899
866.793	21039
866.924	21047
867.055	21260
867.186	21017
867.317	21036
867.448	20918
867.579	21100
867.71	20823
867.841	20899
867.972	21085
868.103	21028
868.233	21009
868.364	21036
868.495	21108
868.625	21264
868.756	21252
868.886	21173
869.017	21279
869.147	21492
869.278	21412
869.408	21313
869.539	21230
869.669	21321
869.799	21340
869.929	21458
870.06	21462
870.19	21610
870.32	21443
870.45	21557
870.58	21652
870.71	21869
870.84	21682
870.97	21686
871.1	21698
871.23	21846
871.36	21876
871.489	21686
871.619	21915
871.749	21770
871.879	21819
872.008	22093
872.138	21903
872.267	21797
872.397	21857
872.526	21637
872.656	21732
872.785	21804
872.915	21823
873.044	21964
873.173	21865
873.303	21880
873.432	21861
873.561	22006
873.69	21945
873.819	21934
873.948	21972
874.077	22002
874.206	21800
874.335	21808
874.464	21956
874.593	22188
874.722	22090
874.851	22242
874.979	22135
875.108	22188
875.237	22063
875.365	21972
875.494	22177
875.623	22162
875.751	22063
875.88	22211
876.008	22341
876.136	22272
876.265	22622
876.393	22702
876.521	22538
876.65	22778
876.778	22405
876.906	22508
877.034	22356
877.162	22538
877.29	22413
877.418	22485
877.546	22398
877.674	22398
877.802	22382
877.93	22481
878.058	22352
878.185	22459
878.313	22485
878.441	22390
878.568	22306
878.696	22367
878.824	22519
878.951	22508
879.079	22626
879.206	22596
879.333	22592
879.461	22531
879.588	22527
879.715	22603
879.842	22717
879.97	22516
880.097	22314
880.224	22337
880.351	22360
880.478	22211
880.605	22318
880.732	22268
880.859	22538
880.986	22249
881.112	22207
881.239	21998
881.366	22067
881.493	21987
881.619	21907
881.746	21930
881.872	21808
881.999	21785
882.125	21854
882.252	21895
882.378	21876
882.505	21918
882.631	21736
882.757	21504
882.883	21671
883.01	21614
883.136	21515
883.262	21420
883.388	21397
883.514	21606
883.64	21603
883.766	21405
883.892	21348
884.018	21507
884.143	21557
884.269	21572
884.395	21275
884.52	21192
884.646	21192
884.772	21104
884.897	21009
885.023	21207
885.148	21317
885.274	21294
885.399	21420
885.524	21199
885.65	21207
885.775	21192
885.9	21211
886.025	21268
886.15	21165
886.275	21077
886.4	21127
886.525	21154
886.65	21058
886.775	21077
886.9	21279
887.025	21359
887.149	21150
887.274	21116
887.399	20933
887.523	20845
887.648	20960
887.773	20906
887.897	21017
888.021	20929
888.146	20887
888.27	21154
888.395	21043
888.519	20963
888.643	20902
888.767	20982
888.891	20773
889.015	20720
889.139	20857
889.263	20648
889.387	20815
889.511	21001
889.635	20918
889.759	20697
889.883	20648
890.006	20743
890.13	20891
890.254	20735
890.377	20731
890.501	20587
890.624	20404
890.748	20507
890.871	20408
890.995	20320
891.118	20275
891.241	20328
891.364	20317
891.488	20393
891.611	20385
891.734	20362
891.857	20480
891.98	20290
892.103	20404
892.226	20374
892.349	20218
892.471	20103
892.594	20206
892.717	20355
892.839	20183
892.962	20225
893.085	20320
893.207	20294
893.33	20210
893.452	20187
893.575	20305
893.697	20301
893.819	20362
893.941	20457
894.064	20336
894.186	20130
894.308	20161
894.43	20294
894.552	20336
894.674	20374
894.796	20073
894.918	20187
895.04	20214
895.161	20332
895.283	20263
895.405	20161
895.526	20252
895.648	20248
895.769	20210
895.891	20286
896.012	20332
896.134	20332
896.255	20218
896.376	20229
896.498	20324
896.619	20229
896.74	20210
896.861	20434
896.982	20583
897.103	20590
897.224	20434
897.345	20454
897.466	20328
897.587	20404
897.708	20533
897.828	20469
897.949	20454
898.07	20252
898.19	20480
898.311	20564
898.431	20476
898.552	20465
898.672	20484
898.792	20503
898.913	20526
899.033	20442
899.153	20278
899.273	20187
899.393	20164
899.513	20294
899.633	20191
899.753	20298
899.873	20149
899.993	20263
900.113	20100
900.232	20187
900.352	20168
900.472	20046
900.591	20012
900.711	19959
900.83	19902
900.95	20084
901.069	20111
901.189	19811
901.308	19727
901.427	19616
901.546	19605
901.665	19556
901.784	19597
901.904	19400
902.023	19388
902.141	19160
902.26	19057
902.379	19217
902.498	19145
902.617	18989
902.735	19129
902.854	19046
902.973	18966
903.091	18791
903.21	18692
903.328	18783
903.446	18734
903.565	18570
903.683	18509
903.801	18456
903.919	18464
904.038	18502
904.156	18350
904.274	18311
904.392	18277
904.51	18357
904.627	18251
904.745	18300
904.863	18300
904.981	18083
905.098	17992
905.216	17912
905.334	17988
905.451	18030
905.569	17988
905.686	17980
905.803	17980
905.921	17798
906.038	17935
906.155	17809
906.272	17764
906.389	17737
906.506	17512
906.623	17512
906.74	17532
906.857	17539
906.974	17440
907.091	17573
907.208	17554
907.324	17474
907.441	17410
907.557	17223
907.674	17284
907.79	17216
907.907	17178
908.023	17296
908.139	17337
908.256	17090
908.372	17166
908.488	17109
908.604	16949
908.72	17037
908.836	16923
908.952	16942
909.068	16961
909.184	17060
909.3	16927
909.415	16980
909.531	16984
909.647	16656
909.762	16653
909.878	16611
909.993	16721
910.108	16702
910.224	16580
910.339	16740
910.454	16485
910.57	16535
910.685	16402
910.8	16668
910.915	16611
911.03	16519
911.145	16284
911.259	16204
911.374	16162
911.489	16234
911.604	16177
911.718	15949
911.833	16112
911.947	15941
912.062	15835
912.176	15941
912.291	15945
912.405	16032
912.519	16299
912.633	16169
912.748	16055
912.862	15964
912.976	15884
913.09	15785
913.204	15717
913.318	15766
913.431	15899
913.545	15895
913.659	15930
913.772	15724
913.886	15606
914	15637
914.113	15724
914.226	15675
914.34	15595
914.453	15523
914.566	15561
914.68	15466
914.793	15488
914.906	15306
915.019	15211
915.132	15131
915.245	15180
915.358	15142
915.47	15203
915.583	15173
915.696	15275
915.809	15351
915.921	15291
916.034	15237
916.146	15131
916.259	15138
916.371	15203
916.483	15142
916.595	15039
916.708	15017
916.82	15043
916.932	14925
917.044	14986
917.156	14872
917.268	14853
917.38	14921
917.491	14910
917.603	14864
917.715	14952
917.826	14979
917.938	14777
918.049	14735
918.161	14826
918.272	15009
918.384	14998
918.495	14845
918.606	14689
918.717	14632
918.828	14613
918.939	14670
919.05	14590
919.161	14632
919.272	14339
919.383	14438
919.494	14560
919.604	14845
919.715	14632
919.826	14499
919.936	14560
920.047	14537
920.157	14636
920.267	14735
920.378	14590
920.488	14545
920.598	14769
920.708	14944
920.818	14689
920.928	14674
921.038	14861
921.148	14830
921.258	14518
921.368	14358
921.477	14355
921.587	14309
921.697	14202
921.806	14301
921.916	14164
922.025	13955
922.134	13978
922.244	13849
922.353	13883
922.462	13811
922.571	13738
922.68	13715
922.789	13544
922.898	13616
923.007	13548
923.116	13658
923.224	13575
923.333	13537
923.442	13464
923.55	13354
923.659	13441
923.767	13453
923.876	13430
923.984	13502
924.092	13301
924.201	13289
924.309	13369
924.417	13304
924.525	13312
924.633	13282
924.741	14092
924.849	13076
924.956	13160
925.064	13038
925.172	12958
925.279	12993
925.387	13015
925.494	13012
925.602	13137
925.709	13145
925.816	12935
925.924	13008
926.031	12977
926.138	13046
926.245	12939
926.352	12825
926.459	12840
926.566	13034
926.673	12909
926.779	12753
926.886	12749
926.993	12589
927.099	12608
927.206	12582
927.312	12536
927.419	12525
927.525	12582
927.631	12642
927.737	12407
927.843	12490
927.95	12376
928.056	12395
928.162	12369
928.267	12471
928.373	12970
928.479	12448
928.585	12163
928.69	12357
928.796	12456
928.901	12281
929.007	12117
929.112	12308
929.218	12209
929.323	12178
929.428	12076
929.533	12281
929.638	12045
929.743	12155
929.848	12144
929.953	12087
930.058	11965
930.163	11901
930.267	11783
930.372	12003
930.477	11809
930.581	11996
930.685	11863
930.79	11688
930.894	11794
930.998	11707
931.103	11863
931.207	11493
931.311	11391
931.415	11311
931.519	11045
931.623	11048
