Data from test_V78500241_2368.txt Node
Date: Fri Mar 25 15:58:12 CST 2022
User: usil
Spectrometer: V785-0024
Trigger mode: 0
Integration Time (sec): 4.000000E-1
Scans to average: 1
Nonlinearity correction enabled: false
Boxcar width: 0
Storing dark spectrum: false
XAxis mode: Wavelengths
Number of Pixels in Spectrum: 1024
>>>>>Begin Spectral Data<<<<<
801.071	28310
801.214	28318
801.356	28154
801.499	28143
801.641	27960
801.783	27956
801.926	27914
802.068	28032
802.211	27926
802.353	27964
802.496	27869
802.638	27694
802.78	27732
802.923	27542
803.065	27405
803.208	27652
803.35	27629
803.492	27766
803.635	27800
803.777	27823
803.919	27914
804.061	28344
804.204	28002
804.346	27884
804.488	27694
804.63	27835
804.773	27998
804.915	27865
805.057	28032
805.199	27835
805.341	27964
805.483	28032
805.626	28131
805.768	28063
805.91	28067
806.052	28082
806.194	27968
806.336	28329
806.478	28234
806.62	28116
806.762	28086
806.904	28295
807.046	28516
807.188	28447
807.33	28523
807.472	28512
807.614	28531
807.756	28687
807.898	28440
808.04	28257
808.182	28310
808.324	28470
808.465	28344
808.607	28557
808.749	28824
808.891	28755
809.033	28862
809.174	28888
809.316	28611
809.458	28816
809.6	28835
809.741	28946
809.883	28831
810.025	29006
810.166	28946
810.308	28930
810.45	29010
810.591	28843
810.733	28649
810.875	28557
811.016	28729
811.158	28679
811.299	28862
811.441	28885
811.582	28831
811.724	28862
811.865	28649
812.007	28759
812.148	28717
812.29	28752
812.431	28961
812.573	29003
812.714	29143
812.855	29246
812.997	29280
813.138	29501
813.279	29406
813.421	29265
813.562	29292
813.703	29014
813.845	28835
813.986	28729
814.127	28573
814.268	28371
814.41	28466
814.551	28291
814.692	28470
814.833	28451
814.974	28322
815.115	28516
815.256	28478
815.397	28261
815.539	28322
815.68	28295
815.821	28200
815.962	28230
816.103	28124
816.244	28082
816.385	27983
816.526	28017
816.666	27835
816.807	27785
816.948	27918
817.089	27903
817.23	27720
817.371	27819
817.512	27774
817.653	27648
817.793	27713
817.934	27808
818.075	27755
818.216	27717
818.356	27701
818.497	27549
818.638	27458
818.778	27412
818.919	27485
819.06	27610
819.2	27717
819.341	27743
819.481	27778
819.622	27968
819.762	28135
819.903	27907
820.043	27903
820.184	27797
820.324	27717
820.465	27797
820.605	27903
820.746	27819
820.886	27747
821.026	27789
821.167	27819
821.307	27835
821.447	27808
821.588	27435
821.728	27564
821.868	27443
822.008	27203
822.149	27058
822.289	27321
822.429	26880
822.569	26891
822.709	26899
822.849	26880
822.99	26807
823.13	26769
823.27	26621
823.41	26469
823.55	26358
823.69	26476
823.83	26488
823.97	26625
824.11	26298
824.25	26305
824.389	26442
824.529	26488
824.669	26377
824.809	26518
824.949	26526
825.089	26469
825.228	26465
825.368	26263
825.508	26199
825.648	26161
825.787	26206
825.927	26351
826.067	26263
826.206	26221
826.346	26278
826.485	26332
826.625	26134
826.765	26366
826.904	26259
827.044	26119
827.183	26016
827.323	25944
827.462	26001
827.601	26062
827.741	25780
827.88	25970
828.02	25875
828.159	25890
828.298	26020
828.437	25932
828.577	25925
828.716	26027
828.855	25887
828.994	25613
829.134	25624
829.273	25784
829.412	25586
829.551	25651
829.69	25788
829.829	25639
829.968	25666
830.107	25700
830.246	25719
830.385	25540
830.524	25453
830.663	25320
830.802	25289
830.941	25343
831.08	25217
831.219	25381
831.357	25354
831.496	25422
831.635	25069
831.774	25148
831.913	25118
832.051	25088
832.19	25031
832.329	25076
832.467	25012
832.606	24814
832.744	24837
832.883	25019
833.022	24901
833.16	24856
833.299	24977
833.437	24973
833.576	24973
833.714	24897
833.852	24977
833.991	25038
834.129	25046
834.267	25122
834.406	24882
834.544	25107
834.682	25072
834.821	24875
834.959	25076
835.097	24802
835.235	25015
835.373	24973
835.511	24821
835.65	24894
835.788	24745
835.926	24707
836.064	24661
836.202	24673
836.34	24753
836.478	24867
836.615	24783
836.753	24867
836.891	24734
837.029	24707
837.167	24783
837.305	24749
837.443	24711
837.58	24631
837.718	24673
837.856	24669
837.993	24730
838.131	24620
838.269	24456
838.406	24517
838.544	24350
838.681	24289
838.819	24117
838.956	24079
839.094	24083
839.231	24114
839.369	24334
839.506	24486
839.643	24346
839.781	24159
839.918	23973
840.055	24205
840.193	24098
840.33	23923
840.467	23996
840.604	24182
840.742	24266
840.879	23870
841.016	23965
841.153	23969
841.29	23973
841.427	23992
841.564	24057
841.701	24057
841.838	24049
841.975	23866
842.112	23935
842.249	23805
842.385	23775
842.522	23988
842.659	23843
842.796	23748
842.933	23741
843.069	23630
843.206	23661
843.343	23809
843.479	23798
843.616	23699
843.752	23467
843.889	23490
844.025	23729
844.162	23482
844.298	23604
844.435	23505
844.571	23535
844.708	23592
844.844	23691
844.98	23615
845.117	23604
845.253	23528
845.389	23391
845.525	23322
845.661	23379
845.798	23231
845.934	23330
846.07	23258
846.206	23341
846.342	23311
846.478	23269
846.614	23006
846.75	22908
846.886	22991
847.022	23124
847.158	22957
847.294	22976
847.429	22976
847.565	22892
847.701	23235
847.837	22702
847.972	22664
848.108	22831
848.244	22885
848.379	22668
848.515	22596
848.65	22584
848.786	22577
848.921	22531
849.057	22744
849.192	22660
849.328	22622
849.463	22660
849.598	22538
849.734	22569
849.869	22379
850.004	22318
850.14	22284
850.275	22478
850.41	22318
850.545	22352
850.68	22386
850.815	22470
850.95	22497
851.085	22516
851.22	22424
851.355	22325
851.49	22436
851.625	22371
851.76	22303
851.895	22242
852.03	22192
852.165	22268
852.299	22402
852.434	22398
852.569	22322
852.703	22341
852.838	22379
852.973	22516
853.107	22478
853.242	22246
853.376	22185
853.511	22063
853.645	22173
853.78	22200
853.914	22078
854.048	22082
854.183	22207
854.317	22128
854.451	22447
854.585	22082
854.72	22135
854.854	22166
854.988	22070
855.122	22101
855.256	22006
855.39	22162
855.524	22154
855.658	22299
855.792	22158
855.926	22234
856.06	22196
856.194	22291
856.327	22177
856.461	22150
856.595	22097
856.729	22169
856.862	22341
856.996	22215
857.13	22238
857.263	22219
857.397	22344
857.53	22097
857.664	22135
857.797	22344
857.931	22234
858.064	22246
858.197	22238
858.331	22147
858.464	22090
858.597	22188
858.731	22234
858.864	22063
858.997	22166
859.13	22158
859.263	22249
859.396	22341
859.529	22112
859.662	22188
859.795	22128
859.928	22154
860.061	22333
860.194	22352
860.327	22303
860.46	22173
860.592	22181
860.725	22265
860.858	22295
860.99	22223
861.123	22032
861.256	22070
861.388	22219
861.521	22816
861.653	22021
861.786	21972
861.918	22029
862.05	22131
862.183	22055
862.315	22219
862.447	22253
862.58	22017
862.712	21785
862.844	21873
862.976	21934
863.108	21880
863.24	22356
863.372	21907
863.504	21808
863.636	21846
863.768	21968
863.9	21953
864.032	21854
864.164	21804
864.296	21941
864.428	21983
864.559	21960
864.691	21819
864.823	21819
864.954	21922
865.086	21808
865.217	21827
865.349	21561
865.48	21743
865.612	21838
865.743	21926
865.875	21778
866.006	21663
866.137	21770
866.269	21705
866.4	21739
866.531	21778
866.662	21572
866.793	21701
866.924	21576
867.055	21827
867.186	21755
867.317	21686
867.448	21625
867.579	21641
867.71	21679
867.841	21583
867.972	21701
868.103	21633
868.233	21656
868.364	21663
868.495	21739
868.625	21922
868.756	22067
868.886	21846
869.017	21926
869.147	22002
869.278	22070
869.408	22013
869.539	21953
869.669	22017
869.799	22067
869.929	22055
870.06	22036
870.19	22200
870.32	22139
870.45	22352
870.58	22261
870.71	22306
870.84	22394
870.97	22348
871.1	22489
871.23	22535
871.36	22523
871.489	22325
871.619	22413
871.749	22443
871.879	22580
872.008	22565
872.138	22615
872.267	22485
872.397	22440
872.526	22257
872.656	22424
872.785	22360
872.915	22531
873.044	22535
873.173	22672
873.303	22637
873.432	22577
873.561	22637
873.69	22512
873.819	22577
873.948	22599
874.077	22443
874.206	22500
874.335	22580
874.464	22630
874.593	22835
874.722	22637
874.851	22839
874.979	22763
875.108	22915
875.237	22771
875.365	22466
875.494	22774
875.623	22717
875.751	22698
875.88	22748
876.008	22934
876.136	22949
876.265	23258
876.393	23235
876.521	23318
876.65	23166
876.778	23075
876.906	23178
877.034	23102
877.162	23102
877.29	23037
877.418	23083
877.546	23162
877.674	23117
877.802	23102
877.93	23006
878.058	22995
878.185	23086
878.313	23003
878.441	23090
878.568	23010
878.696	22896
878.824	23159
878.951	23273
879.079	23288
879.206	23360
879.333	23303
879.461	23174
879.588	23231
879.715	23246
879.842	23402
879.97	23208
880.097	23033
880.224	22927
880.351	22961
880.478	22847
880.605	22717
880.732	22930
880.859	23147
880.986	22919
881.112	22946
881.239	22831
881.366	22774
881.493	22580
881.619	22493
881.746	22440
881.872	22424
881.999	22459
882.125	22291
882.252	22493
882.378	22626
882.505	22546
882.631	22310
882.757	22196
882.883	22188
883.01	22280
883.136	22200
883.262	22112
883.388	22063
883.514	22150
883.64	22204
883.766	22078
883.892	21983
884.018	22048
884.143	22120
884.269	22181
884.395	21907
884.52	21785
884.646	21682
884.772	21831
884.897	21587
885.023	21800
885.148	21835
885.274	21869
885.399	21838
885.524	21660
885.65	21861
885.775	21766
885.9	21713
886.025	21816
886.15	21903
886.275	21717
886.4	21625
886.525	21800
886.65	21762
886.775	21671
886.9	21865
887.025	21953
887.149	21686
887.274	21671
887.399	21488
887.523	21553
887.648	21435
887.773	21485
887.897	21656
888.021	21603
888.146	21496
888.27	21652
888.395	21671
888.519	21568
888.643	21622
888.767	21603
888.891	21526
889.015	21473
889.139	21568
889.263	21332
889.387	21401
889.511	21526
889.635	21462
889.759	21408
889.883	21393
890.006	21393
890.13	21435
890.254	21272
890.377	21245
890.501	21081
890.624	21058
890.748	21001
890.871	20899
890.995	20944
891.118	20925
891.241	20906
891.364	20861
891.488	21085
891.611	20918
891.734	20830
891.857	20910
891.98	20956
892.103	20960
892.226	20994
892.349	20838
892.471	20712
892.594	20819
892.717	20705
892.839	20876
892.962	20773
893.085	20941
893.207	20861
893.33	20571
893.452	20773
893.575	20750
893.697	20914
893.819	20944
893.941	21017
894.064	20921
894.186	20826
894.308	20644
894.43	20883
894.552	20952
894.674	20952
894.796	20716
894.918	20800
895.04	20651
895.161	20735
895.283	20887
895.405	20750
895.526	20804
895.648	20743
895.769	20804
895.891	20689
896.012	20960
896.134	20895
896.255	20785
896.376	20754
896.498	20853
896.619	20754
896.74	20804
896.861	20834
896.982	21051
897.103	21207
897.224	21096
897.345	20971
897.466	20902
897.587	21024
897.708	21112
897.828	21017
897.949	20994
898.07	20853
898.19	20952
898.311	21028
898.431	20899
898.552	21062
898.672	20982
898.792	21089
898.913	21085
899.033	20910
899.153	20750
899.273	20735
899.393	20769
899.513	20727
899.633	20769
899.753	20735
899.873	20579
899.993	20857
900.113	20625
900.232	20739
900.352	20617
900.472	20518
900.591	20545
900.711	20480
900.83	20465
900.95	20533
901.069	20545
901.189	20404
901.308	20168
901.427	19970
901.546	20149
901.665	20225
901.784	19986
901.904	20001
902.023	19913
902.141	19776
902.26	19571
902.379	19696
902.498	19563
902.617	19487
902.735	19571
902.854	19586
902.973	19381
903.091	19358
903.21	19362
903.328	19339
903.446	19133
903.565	19126
903.683	19012
903.801	18951
903.919	18905
904.038	19126
904.156	18719
904.274	18875
904.392	18802
904.51	18833
904.627	18859
904.745	18833
904.863	18722
904.981	18635
905.098	18391
905.216	18494
905.334	18506
905.451	18547
905.569	18365
905.686	18448
905.803	18521
905.921	18289
906.038	18353
906.155	18194
906.272	18133
906.389	18174
906.506	18083
906.623	17977
906.74	18003
906.857	17874
906.974	17920
907.091	18007
907.208	18087
907.324	17988
907.441	17927
907.557	17748
907.674	17707
907.79	17684
907.907	17653
908.023	17809
908.139	17745
908.256	17642
908.372	17608
908.488	17493
908.604	17414
908.72	17528
908.836	17459
908.952	17387
909.068	17330
909.184	17562
909.3	17417
909.415	17440
909.531	17448
909.647	17094
909.762	17185
909.878	17025
909.993	17181
910.108	17045
910.224	17102
910.339	17117
910.454	16987
910.57	16942
910.685	16896
910.8	17052
910.915	17128
911.03	16824
911.145	16786
911.259	16748
911.374	16691
911.489	16516
911.604	16558
911.718	16428
911.833	16550
911.947	16432
912.062	16238
912.176	16474
912.291	16436
912.405	16478
912.519	16656
912.633	16512
912.748	16550
912.862	16459
912.976	16291
913.09	16253
913.204	16105
913.318	16303
913.431	16265
913.545	16314
913.659	16455
913.772	16166
913.886	15983
914	16048
914.113	16158
914.226	16200
914.34	16120
914.453	15979
914.566	16093
914.68	15899
914.793	15884
914.906	15762
915.019	15660
915.132	15564
915.245	15584
915.358	15633
915.47	15660
915.583	15625
915.696	15686
915.809	15816
915.921	15850
916.034	15576
916.146	15458
916.259	15496
916.371	15549
916.483	15526
916.595	15458
916.708	15424
916.82	15412
916.932	15393
917.044	15393
917.156	15435
917.268	15211
917.38	15389
917.491	15291
917.603	15336
917.715	15462
917.826	15344
917.938	15249
918.049	15207
918.161	15260
918.272	15367
918.384	15321
918.495	15184
918.606	14910
918.717	14963
918.828	15009
918.939	15097
919.05	14944
919.161	15123
919.272	14796
919.383	14895
919.494	15062
919.604	15272
919.715	14963
919.826	14960
919.936	14994
920.047	15043
920.157	15009
920.267	15195
920.378	14975
920.488	15013
920.598	15161
920.708	15329
920.818	15119
920.928	15146
921.038	15321
921.148	15203
921.258	14971
921.368	14910
921.477	14762
921.587	14727
921.697	14697
921.806	14739
921.916	14575
922.025	14442
922.134	14328
922.244	14366
922.353	14442
922.462	14271
922.571	14187
922.68	14016
922.789	13967
922.898	14058
923.007	13997
923.116	14043
923.224	14001
923.333	13944
923.442	13898
923.55	13818
923.659	13928
923.767	13902
923.876	13742
923.984	13871
924.092	13723
924.201	13788
924.309	13772
924.417	13681
924.525	13757
924.633	13715
924.741	14625
924.849	13540
924.956	13670
925.064	13411
925.172	13434
925.279	13373
925.387	13407
925.494	13381
925.602	13537
925.709	13430
925.816	13285
925.924	13392
926.031	13476
926.138	13373
926.245	13384
926.352	13190
926.459	13396
926.566	13381
926.673	13270
926.779	13198
926.886	13179
926.993	13046
927.099	12947
927.206	13008
927.312	12954
927.419	12954
927.525	13015
927.631	12993
927.737	12920
927.843	12817
927.95	12658
928.056	12783
928.162	12711
928.267	12913
928.373	13400
928.479	12817
928.585	12620
928.69	12730
928.796	12749
928.901	12616
929.007	12483
929.112	12593
929.218	12635
929.323	12464
929.428	12422
929.533	12597
929.638	12452
929.743	12422
929.848	12525
929.953	12388
930.058	12350
930.163	12152
930.267	12201
930.372	12277
930.477	12136
930.581	12414
930.685	12136
930.79	12083
930.894	12068
930.998	12007
931.103	12140
931.207	11737
931.311	11688
931.415	11634
931.519	11509
931.623	11444
